Data from Ink_Intensity_USB4F045381__112__00112.txt Node

Date: Mon Jul 17 11:09:02 EDT 2023
User: mmckonesweet
Spectrometer: USB4F04538
Trigger mode: 4
Integration Time (sec): 9.000000E-1
Scans to average: 1
Electric dark correction enabled: true
Nonlinearity correction enabled: false
Boxcar width: 0
XAxis mode: Wavelengths
Number of Pixels in Spectrum: 3648
>>>>>Begin Spectral Data<<<<<
345.52	-998.38
345.736	-998.38
345.952	-998.38
346.168	-1074.16
346.384	-1043.44
346.6	-107.52
346.816	-201.72
347.032	-201.72
347.248	293.88
347.464	-195.58
347.68	-152.57
347.896	54.27
348.112	373.75
348.328	-56.32
348.544	-89.09
348.76	-21.5
348.975	304.12
349.191	-201.72
349.407	-189.44
349.623	64.51
349.839	-33.79
350.055	-140.29
350.27	64.51
350.486	197.63
350.702	322.56
350.918	228.35
351.133	-99.33
351.349	175.1
351.565	392.19
351.781	-164.86
351.996	-64.51
352.212	332.79
352.428	-148.48
352.644	-185.34
352.859	-191.49
353.075	314.36
353.291	7.17
353.506	-70.65
353.722	-250.88
353.938	-121.85
354.153	404.47
354.369	136.19
354.584	-205.82
354.8	279.55
355.016	-291.84
355.231	-250.88
355.447	-89.09
355.662	95.23
355.878	736.24
356.093	-373.75
356.309	-7.17
356.524	-279.55
356.74	173.05
356.955	-189.44
357.171	-113.66
357.386	197.63
357.602	-177.15
357.817	-82.94
358.033	-173.05
358.248	424.95
358.464	121.85
358.679	-164.86
358.895	-273.4
359.11	-3.07
359.325	318.46
359.541	-41.98
359.756	60.42
359.972	-254.97
360.187	181.25
360.402	-203.77
360.618	-193.53
360.833	1084.4
361.048	197.63
361.264	-179.2
361.479	-74.75
361.694	23.55
361.909	171.01
362.125	-261.12
362.34	-134.14
362.555	285.69
362.77	80.89
362.986	-277.5
363.201	-154.62
363.416	154.62
363.631	41.98
363.847	-199.68
364.062	-185.34
364.277	203.77
364.492	179.2
364.707	-171.01
364.922	-324.6
365.138	246.78
365.353	398.33
365.568	-269.31
365.783	-134.14
365.998	-5.12
366.213	541.69
366.428	-179.2
366.643	35.84
366.858	175.1
367.073	289.79
367.288	-62.46
367.503	-234.49
367.718	107.52
367.933	304.12
368.148	-306.17
368.363	-87.04
368.578	35.84
368.793	490.49
369.008	-189.44
369.223	-265.21
369.438	283.64
369.653	386.04
369.868	-279.55
370.083	-236.54
370.298	99.33
370.513	359.42
370.728	7.17
370.943	-189.44
371.157	-234.49
371.372	572.41
371.587	-273.4
371.802	-254.97
372.017	91.13
372.232	465.91
372.446	-17.41
372.661	-144.38
372.876	285.69
373.091	173.05
373.306	-52.22
373.52	-228.35
373.735	-160.77
373.95	529.4
374.165	-50.18
374.379	-113.66
374.594	-140.29
374.809	187.39
375.023	23.55
375.238	-238.59
375.453	269.31
375.667	-195.58
375.882	-187.39
376.097	-238.59
376.311	31.74
376.526	-68.61
376.741	-158.72
376.955	154.62
377.17	564.22
377.384	523.26
377.599	-46.08
377.813	-304.12
378.028	666.61
378.242	240.64
378.457	-150.53
378.672	-345.08
378.886	115.71
379.101	-5.12
379.315	-271.36
379.53	-125.95
379.744	244.73
379.958	193.53
380.173	-121.85
380.387	-236.54
380.602	60.42
380.816	-171.01
381.031	-152.57
381.245	-105.47
381.459	168.96
381.674	2706.39
381.888	-214.01
382.103	3.07
382.317	-138.24
382.531	453.63
382.746	-31.74
382.96	-152.57
383.174	-84.99
383.388	459.77
383.603	109.57
383.817	-308.22
384.031	162.81
384.246	474.1
384.46	-9.22
384.674	367.61
384.888	-35.84
385.103	82.94
385.317	-324.6
385.531	-56.32
385.745	345.08
385.959	347.13
386.174	-199.68
386.388	-269.31
386.602	105.47
386.816	-128
387.03	-164.86
387.244	-66.56
387.458	46.08
387.672	439.29
387.887	-302.08
388.101	-275.45
388.315	283.64
388.529	113.66
388.743	-177.15
388.957	-267.26
389.171	371.71
389.385	-214.01
389.599	-148.48
389.813	89.09
390.027	166.91
390.241	629.75
390.455	-156.67
390.669	-130.05
390.883	-9.22
391.097	361.47
391.311	66.56
391.525	-130.05
391.738	197.63
391.952	205.82
392.166	-50.18
392.38	-187.39
392.594	324.6
392.808	300.03
393.022	-144.38
393.236	-109.57
393.449	185.34
393.663	199.68
393.877	-271.36
394.091	-87.04
394.305	-134.14
394.518	-107.52
394.732	-316.41
394.946	-136.19
395.16	392.19
395.373	105.47
395.587	-242.68
395.801	-160.77
396.015	269.31
396.228	205.82
396.442	-271.36
396.656	-359.42
396.869	334.84
397.083	506.87
397.297	-117.76
397.51	-152.57
397.724	273.4
397.938	70.65
398.151	-328.7
398.365	-289.79
398.578	244.73
398.792	383.99
399.005	-17.41
399.219	-140.29
399.433	162.81
399.646	150.53
399.86	107.52
400.073	68.61
400.287	205.82
400.5	64.51
400.714	-99.33
400.927	-128
401.141	295.93
401.354	1057.78
401.567	136.19
401.781	-226.3
401.994	343.03
402.208	678.9
402.421	-62.46
402.635	-91.13
402.848	89.09
403.061	306.17
403.275	-70.65
403.488	-205.82
403.701	410.62
403.915	275.45
404.128	-33.79
404.341	-160.77
404.555	254.97
404.768	-25.6
404.981	-82.94
405.195	-140.29
405.408	523.26
405.621	244.73
405.834	-41.98
406.048	-234.49
406.261	465.91
406.474	414.71
406.687	-195.58
406.9	7.17
407.114	123.9
407.327	228.35
407.54	-289.79
407.753	-283.64
407.966	-95.23
408.179	289.79
408.392	-193.53
408.605	-246.78
408.819	125.95
409.032	134.14
409.245	-222.2
409.458	-5.12
409.671	211.96
409.884	209.92
410.097	-302.08
410.31	64.51
410.523	281.6
410.736	56.32
410.949	-37.89
411.162	-146.43
411.375	427
411.588	326.65
411.801	-46.08
412.014	-236.54
412.227	25.6
412.44	-48.13
412.653	-140.29
412.865	64.51
413.078	277.5
413.291	162.81
413.504	-99.33
413.717	-199.68
413.93	252.92
414.143	-252.92
414.356	-187.39
414.568	-369.66
414.781	304.12
414.994	148.48
415.207	-148.48
415.42	-95.23
415.632	271.36
415.845	508.92
416.058	-314.36
416.271	-267.26
416.483	62.46
416.696	574.46
416.909	-132.09
417.121	-181.25
417.334	134.14
417.547	529.4
417.759	-218.11
417.972	-168.96
418.185	-95.23
418.397	310.27
418.61	-140.29
418.823	-191.49
419.035	359.42
419.248	29.7
419.46	-111.61
419.673	-146.43
419.885	211.96
420.098	56.32
420.311	-187.39
420.523	-379.9
420.736	179.2
420.948	48.13
421.161	-162.81
421.373	-398.33
421.586	132.09
421.798	-62.46
422.01	-427
422.223	62.46
422.435	-82.94
422.648	271.36
422.86	-70.65
423.073	-185.34
423.285	289.79
423.497	-240.64
423.71	-136.19
423.922	-158.72
424.134	148.48
424.347	416.76
424.559	-9.22
424.771	19.46
424.984	74.75
425.196	175.1
425.408	-394.23
425.621	-234.49
425.833	265.21
426.045	361.47
426.257	-310.27
426.47	-207.87
426.682	185.34
426.894	156.67
427.106	-99.33
427.318	-107.52
427.531	-99.33
427.743	287.74
427.955	-164.86
428.167	248.83
428.379	207.87
428.591	3.07
428.804	-15.36
429.016	-140.29
429.228	-17.41
429.44	158.72
429.652	121.85
429.864	-310.27
430.076	-13.31
430.288	11.26
430.5	-121.85
430.712	-91.13
430.924	281.6
431.136	154.62
431.348	-277.5
431.56	-201.72
431.772	72.7
431.984	9.22
432.196	-207.87
432.408	-185.34
432.62	-29.7
432.832	177.15
433.044	117.76
433.256	-84.99
433.468	191.49
433.679	-205.82
433.891	-300.03
434.103	91.13
434.315	461.82
434.527	306.17
434.739	-25.6
434.95	-193.53
435.162	181.25
435.374	-144.38
435.586	-97.28
435.798	-95.23
436.009	-144.38
436.221	-13.31
436.433	-146.43
436.645	-130.05
436.856	-33.79
437.068	388.09
437.28	-154.62
437.491	138.24
437.703	193.53
437.915	168.96
438.126	-189.44
438.338	117.76
438.55	-1.02
438.761	142.33
438.973	-156.67
439.184	-72.7
439.396	74.75
439.608	230.4
439.819	-267.26
440.031	-13.31
440.242	248.83
440.454	228.35
440.665	-121.85
440.877	-25.6
441.088	156.67
441.3	-23.55
441.511	-345.08
441.723	-209.92
441.934	171.01
442.146	189.44
442.357	3.07
442.569	187.39
442.78	109.57
442.991	474.1
443.203	171.01
443.414	-230.4
443.626	418.81
443.837	-1.02
444.048	-336.89
444.26	-291.84
444.471	39.94
444.682	240.64
444.894	-289.79
445.105	-267.26
445.316	269.31
445.528	211.96
445.739	-37.89
445.95	-179.2
446.161	140.29
446.373	302.08
446.584	-82.94
446.795	-146.43
447.006	199.68
447.217	402.43
447.429	-300.03
447.64	-234.49
447.851	390.14
448.062	105.47
448.273	-265.21
448.484	-222.2
448.695	228.35
448.907	58.37
449.118	-9.22
449.329	125.95
449.54	-41.98
449.751	-117.76
449.962	-101.37
450.173	-146.43
450.384	334.84
450.595	408.57
450.806	-175.1
451.017	-35.84
451.228	359.42
451.439	330.75
451.65	-154.62
451.861	-293.88
452.072	-162.81
452.283	72.7
452.494	64.51
452.705	-199.68
452.915	451.58
453.126	181.25
453.337	-132.09
453.548	-185.34
453.759	353.27
453.97	590.84
454.181	3.07
454.391	-123.9
454.602	99.33
454.813	246.78
455.024	-72.7
455.235	-107.52
455.445	162.81
455.656	136.19
455.867	121.85
456.078	-209.92
456.288	91.13
456.499	150.53
456.71	-248.83
456.921	156.67
457.131	173.05
457.342	179.2
457.553	-33.79
457.763	-205.82
457.974	234.49
458.184	334.84
458.395	-128
458.606	-201.72
458.816	410.62
459.027	558.07
459.237	11.26
459.448	-263.16
459.659	427
459.869	711.67
460.08	-320.51
460.29	-52.22
460.501	594.93
460.711	31.74
460.922	-214.01
461.132	-109.57
461.343	809.97
461.553	-195.58
461.764	-193.53
461.974	-119.81
462.184	320.51
462.395	277.5
462.605	-82.94
462.816	-107.52
463.026	146.43
463.236	406.52
463.447	-97.28
463.657	11.26
463.867	435.19
464.078	113.66
464.288	11.26
464.498	-125.95
464.709	80.89
464.919	211.96
465.129	-74.75
465.339	-164.86
465.55	203.77
465.76	318.46
465.97	-70.65
466.18	-171.01
466.391	427
466.601	254.97
466.811	-13.31
467.021	-211.96
467.231	322.56
467.441	449.53
467.651	-5.12
467.862	-371.71
468.072	185.34
468.282	543.74
468.492	-181.25
468.702	1.02
468.912	164.86
469.122	726
469.332	293.88
469.542	-152.57
469.752	343.03
469.962	199.68
470.172	-140.29
470.382	-109.57
470.592	420.86
470.802	494.58
471.012	-3.07
471.222	-105.47
471.432	445.43
471.642	375.8
471.852	97.28
472.062	-111.61
472.272	164.86
472.482	-19.46
472.691	-121.85
472.901	-154.62
473.111	257.02
473.321	736.24
473.531	-158.72
473.741	37.89
473.95	349.18
474.16	336.89
474.37	62.46
474.58	-128
474.79	721.91
474.999	498.68
475.209	-138.24
475.419	-17.41
475.628	162.81
475.838	580.6
476.048	48.13
476.258	-160.77
476.467	574.46
476.677	144.38
476.886	121.85
477.096	236.54
477.306	146.43
477.515	582.65
477.725	91.13
477.935	23.55
478.144	631.8
478.354	166.91
478.563	105.47
478.773	99.33
478.982	480.25
479.192	570.36
479.401	236.54
479.611	11.26
479.82	144.38
480.03	353.27
480.239	-41.98
480.449	-87.04
480.658	766.96
480.868	195.58
481.077	181.25
481.287	160.77
481.496	388.09
481.705	723.96
481.915	379.9
482.124	381.95
482.333	383.99
482.543	670.71
482.752	173.05
482.961	80.89
483.171	621.56
483.38	359.42
483.589	195.58
483.799	70.65
484.008	396.28
484.217	625.65
484.426	154.62
484.636	41.98
484.845	490.49
485.054	44.03
485.263	402.43
485.472	236.54
485.682	801.78
485.891	422.91
486.1	1.02
486.309	123.9
486.518	605.17
486.727	828.4
486.936	64.51
487.146	306.17
487.355	771.06
487.564	195.58
487.773	166.91
487.982	214.01
488.191	371.71
488.4	531.45
488.609	254.97
488.818	277.5
489.027	1068.02
489.236	773.11
489.445	293.88
489.654	148.48
489.863	650.23
490.072	465.91
490.281	601.08
490.49	277.5
490.698	871.41
490.907	803.83
491.116	244.73
491.325	91.13
491.534	869.36
491.743	611.32
491.952	429.05
492.16	279.55
492.369	734.2
492.578	809.97
492.787	377.85
492.996	197.63
493.204	383.99
493.413	1002.48
493.622	89.09
493.831	99.33
494.039	1014.77
494.248	355.32
494.457	402.43
494.665	177.15
494.874	623.61
495.083	1053.68
495.291	373.75
495.5	308.22
495.709	904.18
495.917	660.47
496.126	455.67
496.335	203.77
496.543	599.03
496.752	805.88
496.96	592.89
497.169	242.68
497.377	609.27
497.586	945.14
497.794	592.89
498.003	138.24
498.211	574.46
498.42	965.62
498.628	461.82
498.837	330.75
499.045	822.26
499.254	721.91
499.462	465.91
499.671	416.76
499.879	1125.36
500.087	861.17
500.296	502.78
500.504	480.25
500.713	787.44
500.921	1334.25
501.129	445.43
501.338	515.06
501.546	730.1
501.754	809.97
501.962	490.49
502.171	445.43
502.379	846.84
502.587	1170.41
502.795	580.6
503.004	494.58
503.212	746.48
503.42	1057.78
503.628	670.71
503.837	609.27
504.045	969.71
504.253	1197.04
504.461	478.2
504.669	355.32
504.877	1006.58
505.085	1156.08
505.294	371.71
505.502	674.81
505.71	887.79
505.918	1068.02
506.126	527.35
506.334	517.11
506.542	844.79
506.75	1000.43
506.958	633.85
507.166	623.61
507.374	738.29
507.582	1334.25
507.79	707.57
507.998	437.24
508.206	986.1
508.414	932.85
508.622	639.99
508.83	662.52
509.037	1399.79
509.245	844.79
509.453	578.55
509.661	551.93
509.869	1090.54
510.077	893.94
510.285	736.24
510.492	336.89
510.7	1549.29
510.908	820.21
511.116	676.85
511.324	687.09
511.531	803.83
511.739	996.34
511.947	775.16
512.155	984.05
512.362	1043.44
512.57	756.72
512.778	728.05
512.985	472.06
513.193	1184.75
513.401	1358.83
513.608	889.84
513.816	709.62
514.024	1250.28
514.231	1330.16
514.439	709.62
514.646	662.52
514.854	1252.33
515.061	1326.06
515.269	781.3
515.477	764.92
515.684	893.94
515.892	1295.34
516.099	639.99
516.307	582.65
516.514	1403.88
516.722	1508.33
516.929	799.73
517.136	650.23
517.344	1440.75
517.551	1199.09
517.759	836.6
517.966	779.25
518.173	1063.92
518.381	967.67
518.588	951.28
518.796	832.5
519.003	1301.48
519.21	1149.93
519.418	793.59
519.625	1139.69
519.832	1305.58
520.039	1281
520.247	771.06
520.454	850.93
520.661	1358.83
520.868	1252.33
521.076	891.89
521.283	883.7
521.49	1797.09
521.697	1377.26
521.904	1002.48
522.112	1008.62
522.319	1455.08
522.526	1412.07
522.733	877.55
522.94	848.88
523.147	1309.68
523.354	1514.47
523.561	826.36
523.768	1047.54
523.975	1582.06
524.183	1336.3
524.39	1076.21
524.597	871.41
524.804	1371.12
525.011	1133.55
525.218	947.19
525.425	961.52
525.632	1674.21
525.838	1143.79
526.045	1006.58
526.252	975.86
526.459	2472.92
526.666	2335.71
526.873	1045.49
527.08	1035.25
527.287	1797.09
527.494	1657.83
527.701	926.71
527.907	1047.54
528.114	1571.82
528.321	1326.06
528.528	1125.36
528.735	1090.54
528.941	1354.73
529.148	1242.09
529.355	1256.43
529.562	1088.5
529.768	1833.96
529.975	1358.83
530.182	1141.74
530.388	1117.17
530.595	1696.74
530.802	1266.67
531.008	1319.92
531.215	1256.43
531.422	1936.35
531.628	2272.22
531.835	1293.29
532.042	1377.26
532.248	1369.07
532.455	1600.49
532.661	1219.57
532.868	1174.51
533.074	1770.47
533.281	1793
533.487	1453.03
533.694	1194.99
533.9	1436.65
534.107	1666.02
534.313	1250.28
534.52	1213.42
534.726	1907.68
534.933	2169.82
535.139	1238
535.345	1238
535.552	1862.63
535.758	1637.35
535.965	1436.65
536.171	1340.4
536.377	1838.05
536.584	2040.8
536.79	1403.88
536.996	1577.96
537.203	1840.1
537.409	1721.32
537.615	1448.94
537.821	1674.21
538.028	1899.49
538.234	1819.62
538.44	1432.55
538.646	1580.01
538.853	1860.58
539.059	1674.21
539.265	1848.29
539.471	1182.7
539.677	2016.23
539.883	1770.47
540.09	1508.33
540.296	1993.7
540.502	1670.12
540.708	1653.73
540.914	1649.64
541.12	1498.09
541.326	2010.08
541.532	1874.92
541.738	1768.42
541.944	1588.2
542.15	2186.21
542.356	1870.82
542.562	1539.05
542.768	1608.68
542.974	2438.11
543.18	2499.55
543.386	1780.71
543.592	1573.86
543.798	2231.26
544.004	2319.32
544.21	1659.88
544.415	1817.57
544.621	1932.26
544.827	2169.82
545.033	1711.08
545.239	1973.22
545.445	1862.63
545.651	2059.23
545.856	1772.52
546.062	1663.97
546.268	2001.89
546.474	2001.89
546.679	1872.87
546.885	1854.44
547.091	1917.92
547.297	2657.24
547.502	1907.68
547.708	1616.87
547.914	1950.69
548.119	2251.74
548.325	1678.31
548.531	1678.31
548.736	2407.39
548.942	2048.99
549.147	1844.2
549.353	1989.6
549.559	2436.06
549.764	2171.87
549.97	1977.31
550.175	2044.9
550.381	2315.23
550.586	1985.51
550.792	1932.26
550.997	1922.02
551.203	2341.85
551.408	2382.81
551.614	1833.96
551.819	1926.11
552.025	2751.45
552.23	2632.66
552.435	1776.61
552.641	2329.56
552.846	2018.27
553.052	2661.34
553.257	2192.35
553.462	2032.61
553.668	2126.82
553.873	2636.76
554.078	1950.69
554.283	2104.29
554.489	2376.67
554.694	2440.15
554.899	1930.21
555.105	2204.64
555.31	2552.79
555.515	2558.94
555.72	2218.97
555.925	2044.9
556.131	2722.77
556.336	2356.19
556.541	2092
556.746	1944.55
556.951	2919.38
557.156	2788.31
557.361	2223.07
557.567	2292.7
557.772	3050.45
557.977	2655.19
558.182	2173.92
558.387	2208.73
558.592	2370.52
558.797	2816.98
559.002	2391
559.207	2288.61
559.412	2552.79
559.617	3017.68
559.822	2243.55
560.027	2313.18
560.232	2718.68
560.437	2794.45
560.642	2198.49
560.847	2341.85
561.051	2628.57
561.256	2642.9
561.461	2460.63
561.666	2175.97
561.871	2759.64
562.076	2829.27
562.281	2407.39
562.485	2239.45
562.69	2878.42
562.895	2956.24
563.1	2405.34
563.305	2337.76
563.509	2980.82
563.714	3187.66
563.919	2415.58
564.123	2534.36
564.328	2751.45
564.533	3013.59
564.737	2431.96
564.942	2407.39
565.147	3113.94
565.351	3146.7
565.556	2698.2
565.761	2657.24
565.965	2773.97
566.17	2690.01
566.374	2653.14
566.579	2565.08
566.784	2968.53
566.988	2792.41
567.193	2407.39
567.397	2583.51
567.602	2573.27
567.806	2821.08
568.011	2612.18
568.215	2708.44
568.42	2862.04
568.624	2778.07
568.828	2489.31
569.033	2878.42
569.237	3060.69
569.442	3048.4
569.646	2599.9
569.85	2647
570.055	2974.67
570.259	3046.35
570.463	2937.81
570.668	2833.36
570.872	2884.56
571.076	3208.14
571.281	2806.74
571.485	2837.46
571.689	3042.26
571.893	3232.72
572.098	2972.63
572.302	2796.5
572.506	3259.34
572.71	3083.22
572.914	2890.71
573.119	2829.27
573.323	3455.95
573.527	3406.8
573.731	3001.3
573.935	2763.73
574.139	3251.15
574.343	3079.12
574.547	2821.08
574.751	2907.09
574.955	3679.18
575.159	3662.79
575.364	3013.59
575.568	2864.08
575.772	3204.05
575.976	3580.87
576.18	3003.35
576.383	2857.94
576.587	3638.22
576.791	3455.95
576.995	2735.06
577.199	2972.63
577.403	3515.34
577.607	3705.8
577.811	3034.07
578.015	3202
578.219	3484.62
578.422	3505.1
578.626	3091.41
578.83	3255.25
579.034	3675.08
579.238	3527.63
579.442	3118.03
579.645	3580.87
579.849	3466.19
580.053	3509.19
580.257	3122.13
580.46	3347.4
580.664	3820.49
580.868	3699.66
581.071	3349.45
581.275	3283.92
581.479	3249.1
581.682	3644.36
581.886	3222.48
582.09	3333.07
582.293	3632.07
582.497	3843.01
582.7	3580.87
582.904	3363.79
583.107	3591.11
583.311	3539.91
583.515	3541.96
583.718	3505.1
583.922	3838.92
584.125	4039.62
584.329	3345.36
584.532	3480.52
584.735	4015.04
584.939	3734.47
585.142	3324.88
585.346	3353.55
585.549	3812.29
585.753	3431.37
585.956	3599.31
586.159	3701.7
586.363	4238.27
586.566	3709.9
586.769	3404.75
586.973	3447.76
587.176	4125.63
587.379	4193.22
587.582	3806.15
587.786	3685.32
587.989	3910.6
588.192	4508.6
588.395	3652.55
588.599	3890.12
588.802	3873.73
589.005	4133.82
589.208	3638.22
589.411	3673.03
589.615	4238.27
589.818	4496.32
590.021	3945.41
590.224	3804.1
590.427	4275.13
590.63	4457.4
590.833	3546.06
591.036	3728.33
591.239	4078.53
591.442	3920.84
591.645	4160.45
591.848	3744.71
592.051	4168.64
592.254	4320.19
592.457	3904.45
592.66	4012.99
592.863	4045.76
593.066	4377.53
593.269	3834.82
593.472	3972.04
593.675	4070.34
593.878	4453.31
594.081	4113.35
594.284	3906.5
594.486	4322.24
594.689	4318.14
594.892	4152.26
595.095	3996.61
595.298	4471.74
595.5	4168.64
595.703	4101.06
595.906	4246.46
596.109	4826.04
596.311	4725.69
596.514	3687.37
596.717	4117.44
596.92	4783.03
597.122	4475.84
597.325	3861.45
597.528	4070.34
597.73	4785.08
597.933	4488.12
598.136	4131.78
598.338	4017.09
598.541	4596.67
598.743	4867
598.946	4301.76
599.148	4162.5
599.351	4731.83
599.554	4778.94
599.756	4258.75
599.959	4496.32
600.161	4871.09
600.363	5151.67
600.566	4688.82
600.768	4359.1
600.971	5008.31
601.173	4869.05
601.376	4398.01
601.578	4461.5
601.78	4697.02
601.983	5288.88
602.185	4385.73
602.388	4623.29
602.59	4799.41
602.792	4686.78
602.995	4803.51
603.197	4359.1
603.399	5122.99
603.601	4842.42
603.804	4467.64
604.006	4596.67
604.208	4744.12
604.41	4400.06
604.613	4752.31
604.815	4385.73
605.017	5340.08
605.219	4606.91
605.421	4885.43
605.623	4596.67
605.826	5178.29
606.028	5258.16
606.23	4629.43
606.432	4490.17
606.634	5370.8
606.836	5182.38
607.038	4447.16
607.24	4797.37
607.442	5157.81
607.644	5053.36
607.846	4965.3
608.048	4586.43
608.25	5200.82
608.452	4776.89
608.654	4709.3
608.856	4598.71
609.058	5069.75
609.26	5200.82
609.462	4977.59
609.664	4987.83
609.866	5473.2
610.067	5264.3
610.269	5024.69
610.471	4815.8
610.673	5118.9
610.875	5364.65
611.077	4776.89
611.278	5039.03
611.48	5184.43
611.682	5436.33
611.884	5104.56
612.085	4957.11
612.287	4987.83
612.489	5514.16
612.69	4807.61
612.892	5110.71
613.094	5534.64
613.295	5340.08
613.497	4871.09
613.699	5118.9
613.9	5643.18
614.102	5520.3
614.304	5090.23
614.505	4893.62
614.707	5280.69
614.908	5295.02
615.11	4942.77
615.311	5043.12
615.513	5569.45
615.714	5569.45
615.916	5055.41
616.117	5129.14
616.319	5331.89
616.52	5551.02
616.722	5100.47
616.923	5163.95
617.124	5585.83
617.326	5561.26
617.527	5174.19
617.729	5366.7
617.93	5677.99
618.131	5598.12
618.333	5372.85
618.534	5235.63
618.735	5356.46
618.937	5829.54
619.138	5008.31
619.339	5135.28
619.54	5594.03
619.742	5544.88
619.943	5493.68
620.144	5340.08
620.345	5856.17
620.546	5882.79
620.748	5327.79
620.949	5274.54
621.15	5671.85
621.351	5727.14
621.552	5299.12
621.753	5366.7
621.954	5417.9
622.155	6132.64
622.356	5254.06
622.558	5659.56
622.759	5774.25
622.96	6149.03
623.161	5571.5
623.362	5565.36
623.563	5680.04
623.764	5786.54
623.965	5415.85
624.166	5663.66
624.366	5651.37
624.567	5864.36
624.768	5241.78
624.969	5374.89
625.17	5710.76
625.371	6069.16
625.572	5659.56
625.773	5489.58
625.973	6038.44
626.174	6108.07
626.375	5782.44
626.576	5718.95
626.777	6189.99
626.977	6384.54
627.178	5579.69
627.379	5804.97
627.58	6026.15
627.78	5862.31
627.981	5835.69
628.182	5684.14
628.382	6232.99
628.583	5784.49
628.784	5487.53
628.984	5872.55
629.185	6192.03
629.386	6413.21
629.586	5897.13
629.787	5710.76
629.987	6028.2
630.188	6112.16
630.388	5731.24
630.589	6126.5
630.79	6624.15
630.99	6222.75
631.191	5970.85
631.391	6028.2
631.591	6306.72
631.792	6632.35
631.992	5977
632.193	6034.34
632.393	6429.6
632.594	6194.08
632.794	5835.69
632.994	6060.96
633.195	6237.09
633.395	6087.59
633.595	6056.87
633.796	6319.01
633.996	6265.76
634.196	6552.48
634.397	5993.38
634.597	6173.6
634.797	6138.79
634.997	6775.7
635.198	6413.21
635.398	5897.13
635.598	6626.2
635.798	6638.49
635.998	6472.61
636.199	6056.87
636.399	6378.4
636.599	6267.81
636.799	6091.68
636.999	6462.37
637.199	6581.15
637.399	6714.27
637.599	6208.42
637.799	6364.06
637.999	6429.6
638.199	6837.14
638.399	6306.72
638.599	6151.07
638.799	6648.73
638.999	7093.14
639.199	6532
639.399	6474.65
639.599	6779.8
639.799	6251.42
639.999	6296.48
640.199	6362.01
640.399	6599.58
640.599	6550.43
640.799	6482.85
640.998	6579.1
641.198	7076.76
641.398	6761.37
641.598	6589.34
641.798	6513.56
641.997	7869.32
642.197	6691.74
642.397	6472.61
642.597	6581.15
642.796	7017.36
642.996	7140.24
643.196	6738.84
643.395	6523.8
643.595	6902.68
643.795	6491.04
643.994	6704.03
644.194	6560.67
644.394	6970.26
644.593	6962.07
644.793	6478.75
644.992	6857.62
645.192	7052.18
645.392	6388.64
645.591	6679.45
645.791	6742.94
645.99	7072.66
646.19	7000.98
646.389	6765.46
646.589	6831
646.788	7138.2
646.987	7220.11
647.187	7080.85
647.386	6874.01
647.586	7072.66
647.785	7334.8
647.984	6853.53
648.184	6929.3
648.383	7023.51
648.582	6994.84
648.782	7015.32
648.981	6970.26
649.18	7046.04
649.38	7226.26
649.579	6986.65
649.778	6980.5
649.977	7515.02
650.177	7291.79
650.376	6820.76
650.575	6761.37
650.774	7703.43
650.973	7117.72
651.173	6898.58
651.372	7072.66
651.571	7265.17
651.77	7482.25
651.969	6816.66
652.168	7232.4
652.367	7066.52
652.566	7519.12
652.765	7121.81
652.964	7529.36
653.163	7941
653.362	7216.02
653.561	7033.75
653.76	7293.84
653.959	7279.5
654.158	7666.57
654.357	7449.49
654.556	7355.28
654.755	7558.03
654.954	7691.15
655.153	7312.27
655.352	7310.22
655.551	7801.74
655.749	7410.57
655.948	7205.78
656.147	7445.39
656.346	7693.19
656.545	7590.8
656.743	7494.54
656.942	7392.14
657.141	7685
657.34	7797.64
657.538	7439.25
657.737	7441.29
657.936	7429.01
658.135	7822.22
658.333	7527.31
658.532	7410.57
658.731	8203.14
658.929	7889.8
659.128	7846.79
659.326	7617.42
659.525	8053.64
659.724	7789.45
659.922	7310.22
660.121	7207.83
660.319	7893.9
660.518	7611.28
660.716	7449.49
660.915	7383.95
661.113	8186.76
661.312	7578.51
661.51	7627.66
661.709	7512.97
661.907	8133.51
662.105	8321.92
662.304	7713.67
662.502	7906.18
662.701	8240
662.899	7744.39
663.097	8033.16
663.296	7504.78
663.494	8156.04
663.692	8332.16
663.891	7785.35
664.089	7717.77
664.287	7910.28
664.485	8233.86
664.684	7734.15
664.882	7793.55
665.08	8137.6
665.278	8004.49
665.476	7682.95
665.675	8141.7
665.873	8438.66
666.071	8473.47
666.269	7750.54
666.467	8106.88
666.665	8094.6
666.863	7697.29
667.061	7951.24
667.259	7961.48
667.457	8153.99
667.655	8223.62
667.853	7699.34
668.051	7986.05
668.249	8043.4
668.447	8211.33
668.645	7777.16
668.843	8018.82
669.041	8350.59
669.239	7986.05
669.437	8369.02
669.635	8264.58
669.833	8293.25
670.031	8276.87
670.229	8145.8
670.426	8211.33
670.624	8108.93
670.822	8006.53
671.02	7930.76
671.218	8002.44
671.415	7938.95
671.613	8192.9
671.811	8207.23
672.009	7936.9
672.206	8248.19
672.404	8328.06
672.602	8274.82
672.799	8119.17
672.997	8428.42
673.195	8641.4
673.392	8143.75
673.59	7912.33
673.788	8457.09
673.985	7744.39
674.183	8371.07
674.38	8174.47
674.578	8493.95
674.775	8156.04
674.973	8174.47
675.17	8186.76
675.368	8801.15
675.565	8469.37
675.763	8014.73
675.96	8000.39
676.158	8649.6
676.355	8260.48
676.553	8133.51
676.75	8295.3
676.947	8399.74
677.145	8407.94
677.342	8211.33
677.539	8354.69
677.737	8377.22
677.934	8924.02
678.131	8373.12
678.329	8160.13
678.526	8708.99
678.723	8797.05
678.92	8328.06
679.118	8258.43
679.315	8051.59
679.512	8864.63
679.709	8266.63
679.906	8391.55
680.104	8915.83
680.301	8600.44
680.498	8209.28
680.695	8098.69
680.892	8317.83
681.089	8395.65
681.286	8479.61
681.483	8121.22
681.68	8651.64
681.877	8659.84
682.075	8215.43
682.272	8672.12
682.469	8688.51
682.665	8395.65
682.862	8182.66
683.059	8166.28
683.256	8582.01
683.453	8657.79
683.65	8403.84
683.847	8545.15
684.044	8805.24
684.241	8240
684.438	8567.68
684.635	8100.74
684.831	9210.74
685.028	9028.47
685.225	8485.76
685.422	8526.72
685.619	8643.45
685.815	8788.86
686.012	8393.6
686.209	8334.21
686.405	8389.5
686.602	8801.15
686.799	8395.65
686.996	8457.09
687.192	8584.06
687.389	9098.1
687.586	8346.5
687.782	8592.25
687.979	9026.42
688.175	8883.06
688.372	8440.7
688.568	8426.37
688.765	8579.97
688.962	8981.37
689.158	8625.02
689.355	8215.43
689.551	8969.08
689.748	8440.7
689.944	8653.69
690.14	8473.47
690.337	8948.6
690.533	8723.32
690.73	8565.63
690.926	8692.6
691.123	8645.5
691.319	8862.58
691.515	8409.98
691.712	8657.79
691.908	9087.86
692.104	8784.76
692.301	8608.64
692.497	8399.74
692.693	8764.28
692.889	8862.58
693.086	8833.91
693.282	8477.57
693.478	8702.84
693.674	9026.42
693.87	8565.63
694.067	8373.12
694.263	9051
694.459	8739.71
694.655	8852.34
694.851	8784.76
695.047	8942.46
695.243	8950.65
695.439	8616.83
695.635	8708.99
695.831	8874.87
696.027	8852.34
696.224	8563.58
696.42	8856.44
696.615	9116.53
696.811	9118.58
697.007	8485.76
697.203	8696.7
697.399	8969.08
697.595	9067.38
697.791	8696.7
697.987	8645.5
698.183	8672.12
698.379	8588.16
698.575	8543.1
698.77	8522.62
698.966	8989.56
699.162	9436.02
699.358	8801.15
699.554	8754.04
699.749	9085.81
699.945	9173.88
700.141	8881.02
700.337	8725.37
700.532	8983.41
700.728	8788.86
700.924	8733.56
701.119	8639.36
701.315	9155.44
701.511	9003.89
701.706	9046.9
701.902	8659.84
702.097	8973.18
702.293	8969.08
702.489	8801.15
702.684	8645.5
702.88	9051
703.075	8772.47
703.271	8745.85
703.466	8620.92
703.662	8895.35
703.857	9163.64
704.053	8661.88
704.248	8772.47
704.443	9329.52
704.639	9145.2
704.834	8846.2
705.03	8749.95
705.225	9356.15
705.42	9327.47
705.616	9124.72
705.811	8772.47
706.006	8911.74
706.202	8872.82
706.397	8860.54
706.592	8848.25
706.787	9194.36
706.983	9141.11
707.178	9315.19
707.373	8985.46
707.568	9186.16
707.763	9558.89
707.959	8868.73
708.154	8731.51
708.349	9051
708.544	9270.13
708.739	8969.08
708.934	8653.69
709.129	9257.84
709.324	9378.67
709.519	8903.54
709.714	8811.39
709.909	9247.6
710.104	9096.05
710.299	9061.24
710.494	8825.72
710.689	9306.99
710.884	9106.29
711.079	9046.9
711.274	9235.32
711.469	9413.49
711.664	9268.08
711.859	8850.3
712.054	9149.3
712.249	9579.37
712.443	9632.62
712.638	8995.7
712.833	8868.73
713.028	9137.01
713.223	8969.08
713.417	9218.93
713.612	8878.97
713.807	9415.54
714.002	9808.75
714.196	9116.53
714.391	8940.41
714.586	9196.4
714.78	9141.11
714.975	8985.46
715.17	8864.63
715.364	9087.86
715.559	9382.77
715.754	8674.17
715.948	8749.95
716.143	9526.13
716.337	9403.25
716.532	9231.22
716.726	9096.05
716.921	9345.91
717.115	9667.44
717.31	8780.67
717.504	9616.24
717.699	9366.39
717.893	9143.16
718.088	8803.19
718.282	8670.08
718.476	9122.68
718.671	9200.5
718.865	8797.05
719.059	9038.71
719.254	9237.36
719.448	9565.04
719.642	10357.6
719.837	8807.29
720.031	9497.46
720.225	9544.56
720.419	8917.88
720.614	9075.57
720.808	9376.62
721.002	9141.11
721.196	8758.14
721.39	8594.3
721.585	9632.62
721.779	9173.88
721.973	9042.81
722.167	8684.41
722.361	9122.68
722.555	9413.49
722.749	8823.67
722.943	8952.7
723.137	8940.41
723.331	9130.87
723.525	9182.07
723.719	8952.7
723.913	9519.98
724.107	9485.17
724.301	8944.5
724.495	8768.38
724.689	9429.87
724.883	9339.76
725.077	8924.02
725.271	9069.43
725.465	9345.91
725.659	9124.72
725.853	8985.46
726.046	8778.62
726.24	8895.35
726.434	9390.96
726.628	8999.8
726.822	9192.31
727.015	9573.23
727.209	9634.67
727.403	9032.57
727.596	8815.48
727.79	9509.74
727.984	9472.88
728.177	8915.83
728.371	9198.45
728.565	9585.52
728.758	9171.83
728.952	8897.4
729.146	9010.04
729.339	9667.44
729.533	9253.75
729.726	8973.18
729.92	8932.22
730.113	9499.5
730.307	9548.65
730.5	9231.22
730.694	9114.48
730.887	9200.5
731.081	9751.4
731.274	8938.36
731.468	9206.64
731.661	9487.22
731.854	9124.72
732.048	9216.88
732.241	9190.26
732.435	9155.44
732.628	9331.57
732.821	9339.76
733.014	9251.7
733.208	9241.46
733.401	9575.28
733.594	9253.75
733.788	9112.44
733.981	9587.57
734.174	9565.04
734.367	9218.93
734.56	9341.81
734.754	9554.8
734.947	9493.36
735.14	9214.84
735.333	9298.8
735.526	9540.46
735.719	9087.86
735.912	9139.06
736.105	9263.99
736.298	9591.66
736.491	9180.02
736.684	9139.06
736.877	9272.18
737.07	9499.5
737.263	9730.92
737.456	9405.3
737.649	9147.25
737.842	9444.21
738.035	9493.36
738.228	9386.86
738.421	9343.86
738.614	9708.4
738.807	9644.91
739	8997.75
739.192	9200.5
739.385	9554.8
739.578	9784.17
739.771	9540.46
739.964	9218.93
740.156	9528.17
740.349	9583.47
740.542	9599.85
740.735	9001.85
740.927	9546.61
741.12	9304.95
741.313	9022.33
741.505	9567.09
741.698	9489.26
741.891	9454.45
742.083	9370.48
742.276	9306.99
742.468	9548.65
742.661	9505.65
742.854	9513.84
743.046	9339.76
743.239	10011.5
743.431	9464.69
743.624	9333.62
743.816	9296.75
744.009	9511.79
744.201	9765.74
744.393	9362.29
744.586	9220.98
744.778	9855.85
744.971	9655.15
745.163	9456.5
745.355	9419.63
745.548	9667.44
745.74	9534.32
745.932	9522.03
746.125	9345.91
746.317	10247.01
746.509	9505.65
746.702	9405.3
746.894	9327.47
747.086	9519.98
747.278	9745.26
747.471	9456.5
747.663	9472.88
747.855	9599.85
748.047	9812.84
748.239	9233.27
748.431	9339.76
748.623	10132.33
748.815	9929.58
749.008	9210.74
749.2	9462.64
749.392	9802.6
749.584	9735.02
749.776	9442.16
749.968	9436.02
750.16	10126.18
750.352	9765.74
750.544	9261.94
750.736	9300.85
750.928	9745.26
751.12	9655.15
751.311	9263.99
751.503	9698.16
751.695	9538.41
751.887	9728.88
752.079	9137.01
752.271	9259.89
752.463	10263.4
752.654	9624.43
752.846	9458.54
753.038	9268.08
753.23	9399.15
753.421	9958.25
753.613	9341.81
753.805	9773.93
753.997	9735.02
754.188	9880.43
754.38	9345.91
754.572	9233.27
754.763	9685.87
754.955	9722.73
755.146	9548.65
755.338	9382.77
755.53	9778.03
755.721	9624.43
755.913	9065.33
756.104	9362.29
756.296	9485.17
756.487	9497.46
756.679	9223.03
756.87	9272.18
757.062	9487.22
757.253	9673.58
757.445	9200.5
757.636	9317.23
757.827	9567.09
758.019	10257.25
758.21	9190.26
758.401	9386.86
758.593	9931.62
758.784	10105.7
758.975	9114.48
759.167	9110.39
759.358	9511.79
759.549	9937.77
759.74	9132.92
759.932	9122.68
760.123	9939.82
760.314	9429.87
760.505	9323.38
760.696	9282.42
760.888	10107.75
761.079	9292.66
761.27	9048.95
761.461	9182.07
761.652	9927.53
761.843	9452.4
762.034	9413.49
762.225	9309.04
762.416	9366.39
762.607	9649
762.798	9325.43
762.989	9053.05
763.18	10300.26
763.371	9194.36
763.562	9214.84
763.753	9278.32
763.944	9921.38
764.135	9624.43
764.326	9395.06
764.517	9118.58
764.708	9562.99
764.899	9608.05
765.089	9126.77
765.28	9071.48
765.471	9503.6
765.662	9554.8
765.853	9065.33
766.043	8833.91
766.234	9743.21
766.425	9552.75
766.615	8987.51
766.806	9096.05
766.997	9546.61
767.187	9509.74
767.378	9165.68
767.569	8790.91
767.759	9423.73
767.95	9390.96
768.141	9167.73
768.331	8997.75
768.522	9364.34
768.712	9407.34
768.903	8987.51
769.093	8952.7
769.284	9841.51
769.474	9282.42
769.665	8895.35
769.855	8960.89
770.046	9509.74
770.236	9282.42
770.426	9005.94
770.617	8989.56
770.807	9554.8
770.998	9298.8
771.188	9038.71
771.378	8835.96
771.569	9370.48
771.759	9239.41
771.949	8971.13
772.139	8723.32
772.33	9292.66
772.52	9692.01
772.71	8989.56
772.9	8817.53
773.09	9665.39
773.281	9583.47
773.471	8887.16
773.661	8946.55
773.851	9319.28
774.041	9034.61
774.231	8891.26
774.421	9157.49
774.611	9634.67
774.802	9182.07
774.992	8932.22
775.182	8981.37
775.372	9335.67
775.562	9487.22
775.752	8969.08
775.942	8825.72
776.131	9470.83
776.321	9202.55
776.511	8846.2
776.701	8881.02
776.891	9374.58
777.081	9046.9
777.271	8897.4
777.461	8883.06
777.651	9352.05
777.84	9130.87
778.03	8928.12
778.22	8774.52
778.41	9335.67
778.599	9034.61
778.789	8846.2
778.979	8670.08
779.169	9153.4
779.358	8876.92
779.548	9118.58
779.738	8567.68
779.927	9223.03
780.117	8928.12
780.307	8805.24
780.496	8545.15
780.686	9229.17
780.875	9460.59
781.065	8698.75
781.254	8887.16
781.444	8964.98
781.633	9298.8
781.823	8815.48
782.012	8577.92
782.202	8921.98
782.391	8999.8
782.581	8625.02
782.77	8862.58
782.96	9010.04
783.149	8719.23
783.338	8772.47
783.528	8676.22
783.717	9280.37
783.906	9194.36
784.096	8741.75
784.285	8698.75
784.474	8813.43
784.663	8786.81
784.853	8694.65
785.042	8659.84
785.231	8778.62
785.42	9184.12
785.61	8825.72
785.799	8659.84
785.988	8694.65
786.177	8829.82
786.366	8700.8
786.555	8827.77
786.744	9167.73
786.933	8911.74
787.122	8483.71
787.312	8676.22
787.501	8590.2
787.69	8993.65
787.879	8592.25
788.068	8559.49
788.257	8588.16
788.445	8780.67
788.634	8694.65
788.823	8551.29
789.012	9505.65
789.201	9337.71
789.39	8618.88
789.579	8471.42
789.768	8659.84
789.957	8825.72
790.145	8590.2
790.334	8272.77
790.523	8596.35
790.712	8571.77
790.9	8633.21
791.089	8430.46
791.278	8928.12
791.467	8676.22
791.655	8766.33
791.844	9042.81
792.033	8522.62
792.221	8473.47
792.41	8567.68
792.599	8178.56
792.787	8876.92
792.976	8975.22
793.164	8442.75
793.353	8563.58
793.541	8956.79
793.73	8700.8
793.918	8616.83
794.107	8268.67
794.295	8539.01
794.484	8641.4
794.672	8418.18
794.861	8233.86
795.049	8958.84
795.238	9218.93
795.426	8280.96
795.614	8506.24
795.803	8731.51
795.991	9067.38
796.179	8354.69
796.368	8348.54
796.556	8829.82
796.744	8434.56
796.932	8395.65
797.121	8190.85
797.309	8743.8
797.497	8846.2
797.685	8293.25
797.874	8321.92
798.062	8534.91
798.25	8930.17
798.438	8346.5
798.626	8278.91
798.814	8727.42
799.002	9175.92
799.19	8692.6
799.378	8584.06
799.566	8829.82
799.755	9083.77
799.943	8711.04
800.131	8317.83
800.318	8792.95
800.506	9007.99
800.694	8438.66
800.882	8641.4
801.07	8932.22
801.258	8899.45
801.446	8391.55
801.634	8471.42
801.822	8559.49
802.01	8756.09
802.197	8444.8
802.385	8526.72
802.573	8799.1
802.761	8684.41
802.949	8678.27
803.136	8229.76
803.324	9153.4
803.512	8797.05
803.699	8452.99
803.887	8399.74
804.075	9272.18
804.262	8913.78
804.45	8446.85
804.638	8645.5
804.825	8659.84
805.013	8846.2
805.201	8590.2
805.388	8422.27
805.576	8876.92
805.763	9188.21
805.951	8717.18
806.138	8917.88
806.326	9429.87
806.513	9012.09
806.701	8770.43
806.888	8717.18
807.075	9087.86
807.263	9501.55
807.45	8723.32
807.638	8700.8
807.825	9622.38
808.012	9278.32
808.2	8713.08
808.387	9012.09
808.574	9141.11
808.761	9436.02
808.949	8790.91
809.136	9118.58
809.323	9124.72
809.51	9089.91
809.698	9235.32
809.885	9128.82
810.072	9220.98
810.259	9313.14
810.446	8825.72
810.633	8850.3
810.82	9364.34
811.008	9720.68
811.195	9458.54
811.382	8969.08
811.569	9270.13
811.756	8751.99
811.943	9059.19
812.13	9057.14
812.317	9130.87
812.504	9325.43
812.691	9161.59
812.878	9169.78
813.064	9622.38
813.251	9263.99
813.438	8799.1
813.625	9059.19
813.812	9280.37
813.999	9335.67
814.186	8928.12
814.372	8903.54
814.559	9157.49
814.746	9522.03
814.933	9085.81
815.12	9239.41
815.306	9163.64
815.493	9026.42
815.68	8921.98
815.866	9145.2
816.053	9519.98
816.24	9825.13
816.426	9003.89
816.613	8903.54
816.799	9468.78
816.986	9620.33
817.173	9081.72
817.359	9003.89
817.546	9407.34
817.732	9038.71
817.919	8934.26
818.105	9042.81
818.292	9053.05
818.478	9347.95
818.665	9241.46
818.851	8932.22
819.037	9898.86
819.224	9180.02
819.41	8907.64
819.597	8952.7
819.783	9726.83
819.969	9524.08
820.156	8926.07
820.342	8831.87
820.528	10048.36
820.714	9231.22
820.901	9134.96
821.087	8950.65
821.273	9784.17
821.459	9325.43
821.646	8940.41
821.832	9063.29
822.018	9567.09
822.204	9194.36
822.39	9132.92
822.576	8944.5
822.762	9452.4
822.948	9251.7
823.134	9173.88
823.32	8848.25
823.507	8921.98
823.693	9220.98
823.879	9210.74
824.065	8913.78
824.25	9372.53
824.436	8799.1
824.622	8762.23
824.808	8944.5
824.994	9059.19
825.18	9116.53
825.366	8895.35
825.552	8899.45
825.738	9069.43
825.923	9466.74
826.109	9022.33
826.295	8948.6
826.481	8887.16
826.667	9007.99
826.852	8954.74
827.038	8809.34
827.224	9620.33
827.409	9419.63
827.595	8586.11
827.781	8950.65
827.966	9331.57
828.152	9325.43
828.338	8760.19
828.523	8567.68
828.709	8952.7
828.894	9476.98
829.08	8952.7
829.266	8620.92
829.451	9026.42
829.637	9323.38
829.822	8829.82
830.008	8809.34
830.193	9227.12
830.378	9329.52
830.564	8858.49
830.749	8743.8
830.935	9022.33
831.12	9036.66
831.305	8268.67
831.491	8711.04
831.676	8782.71
831.861	9198.45
832.047	8799.1
832.232	8571.77
832.417	9059.19
832.602	8971.13
832.788	8813.43
832.973	8393.6
833.158	8842.11
833.343	9083.77
833.528	8833.91
833.714	8672.12
833.899	9038.71
834.084	9204.6
834.269	8891.26
834.454	8598.4
834.639	9071.48
834.824	8868.73
835.009	8743.8
835.194	8715.13
835.379	8934.26
835.564	9309.04
835.749	8733.56
835.934	8567.68
836.119	9055.09
836.304	8723.32
836.489	8567.68
836.674	8678.27
836.859	8643.45
837.044	9298.8
837.228	8645.5
837.413	8366.98
837.598	8866.68
837.783	9010.04
837.968	8526.72
838.152	8287.11
838.337	8266.63
838.522	9016.18
838.707	8969.08
838.891	8674.17
839.076	8899.45
839.261	8973.18
839.445	8506.24
839.63	8504.19
839.815	9032.57
839.999	8592.25
840.184	8426.37
840.368	8631.16
840.553	9173.88
840.737	8856.44
840.922	8229.76
841.106	8366.98
841.291	8571.77
841.475	8668.03
841.66	8326.02
841.844	8166.28
842.029	9220.98
842.213	8276.87
842.397	8391.55
842.582	8004.49
842.766	8991.61
842.951	8907.64
843.135	8338.3
843.319	8430.46
843.504	8579.97
843.688	8848.25
843.872	8088.45
844.056	8352.64
844.241	8614.78
844.425	8479.61
844.609	8428.42
844.793	8006.53
844.977	8792.95
845.161	8594.3
845.346	8250.24
845.53	8006.53
845.714	8141.7
845.898	8960.89
846.082	7967.62
846.266	8153.99
846.45	8657.79
846.634	8633.21
846.818	8164.23
847.002	8317.83
847.186	8772.47
847.37	8156.04
847.554	8078.21
847.738	8268.67
847.922	8600.44
848.106	8498.05
848.29	8053.64
848.473	8307.59
848.657	8657.79
848.841	8530.81
849.025	8078.21
849.209	7873.42
849.392	8553.34
849.576	8375.17
849.76	7799.69
849.944	8305.54
850.127	8655.74
850.311	8022.92
850.495	8006.53
850.678	7904.14
850.862	8594.3
851.046	8653.69
851.229	8156.04
851.413	8049.54
851.596	8254.34
851.78	8272.77
851.964	8182.66
852.147	8104.84
852.331	8915.83
852.514	8657.79
852.698	8209.28
852.881	7611.28
853.065	8608.64
853.248	8135.56
853.431	8119.17
853.615	8072.07
853.798	8692.6
853.982	8362.88
854.165	7945.09
854.348	7930.76
854.532	8133.51
854.715	8043.4
854.898	7988.1
855.081	7830.41
855.265	8498.05
855.448	8584.06
855.631	7619.47
855.814	7941
855.997	8424.32
856.181	8033.16
856.364	7996.29
856.547	7732.11
856.73	8274.82
856.913	8127.36
857.096	7685
857.279	8043.4
857.462	8070.02
857.645	8254.34
857.828	7771.02
858.011	7990.15
858.194	7887.75
858.377	8160.13
858.56	7564.17
858.743	7822.22
858.926	7795.59
859.109	8227.71
859.292	7617.42
859.475	7625.61
859.658	8254.34
859.841	8051.59
860.023	7465.87
860.206	7611.28
860.389	8024.97
860.572	8235.91
860.755	7736.2
860.937	7691.15
861.12	7697.29
861.303	7828.36
861.486	7635.85
861.668	7404.43
861.851	7990.15
862.034	8121.22
862.216	7580.56
862.399	7289.74
862.581	7926.66
862.764	8233.86
862.947	7701.39
863.129	7410.57
863.312	7496.59
863.494	8117.12
863.677	7846.79
863.859	7183.25
864.042	7969.67
864.224	8027.01
864.406	7601.04
864.589	7121.81
864.771	7793.55
864.954	7429.01
865.136	7406.48
865.318	7152.53
865.501	7654.28
865.683	7506.83
865.865	7207.83
866.048	7244.69
866.23	7619.47
866.412	7410.57
866.594	7324.56
866.777	7506.83
866.959	7873.42
867.141	7340.94
867.323	7469.97
867.505	7529.36
867.687	7574.41
867.869	7519.12
868.052	7318.42
868.234	7279.5
868.416	7445.39
868.598	7723.91
868.78	6980.5
868.962	7095.19
869.144	7754.63
869.326	7396.24
869.508	7125.91
869.69	7056.28
869.872	7488.4
870.054	7930.76
870.236	6896.53
870.417	7265.17
870.599	7383.95
870.781	7797.64
870.963	7521.17
871.145	7242.64
871.327	7246.74
871.508	7621.52
871.69	7330.7
871.872	7293.84
872.054	7478.16
872.235	7629.71
872.417	7109.52
872.599	6955.93
872.78	7799.69
872.962	7598.99
873.144	7119.76
873.325	7275.41
873.507	7920.52
873.689	7582.6
873.87	7320.46
874.052	7236.5
874.233	7535.5
874.415	7891.85
874.596	7517.07
874.778	7205.78
874.959	7543.69
875.141	7687.05
875.322	7160.72
875.503	7093.14
875.685	7601.04
875.866	7269.27
876.048	7107.48
876.229	7043.99
876.41	7496.59
876.592	7713.67
876.773	7193.49
876.954	7095.19
877.136	8074.12
877.317	7478.16
877.498	7035.8
877.679	7539.6
877.86	7732.11
878.042	7355.28
878.223	7240.59
878.404	7617.42
878.585	7578.51
878.766	7998.34
878.947	7707.53
879.128	7486.35
879.309	7721.87
879.49	8063.88
879.672	7447.44
879.853	7525.26
880.034	7422.86
880.215	7586.7
880.396	7801.74
880.576	7330.7
880.757	7539.6
880.938	7975.81
881.119	7457.68
881.3	7316.37
881.481	7433.1
881.662	8614.78
881.843	7250.83
882.023	7351.18
882.204	7891.85
882.385	7875.46
882.566	7578.51
882.747	7670.67
882.927	7926.66
883.108	7955.33
883.289	7619.47
883.469	7871.37
883.65	7621.52
883.831	8047.49
884.011	7766.92
884.192	7568.27
884.373	8190.85
884.553	8086.4
884.734	7693.19
884.914	7803.78
885.095	8776.57
885.275	8295.3
885.456	8096.64
885.636	7531.41
885.817	8133.51
885.997	7949.19
886.178	7639.95
886.358	7713.67
886.538	7895.94
886.719	9087.86
886.899	7637.9
887.08	7975.81
887.26	8522.62
887.44	7730.06
887.621	7846.79
887.801	7637.9
887.981	8711.04
888.161	8401.79
888.342	7924.62
888.522	7941
888.702	8530.81
888.882	8670.08
889.062	7941
889.242	7562.12
889.423	8727.42
889.603	8264.58
889.783	8143.75
889.963	7975.81
890.143	8557.44
890.323	8461.18
890.503	8137.6
890.683	8086.4
890.863	8246.15
891.043	8493.95
891.223	8024.97
891.403	8217.47
891.583	8418.18
891.763	8412.03
891.943	8088.45
892.122	8070.02
892.302	8289.15
892.482	8196.99
892.662	8389.5
892.842	7928.71
893.022	8668.03
893.201	8330.11
893.381	8332.16
893.561	7799.69
893.741	8457.09
893.92	8448.9
894.1	8153.99
894.28	8211.33
894.459	8375.17
894.639	8487.81
894.819	8125.32
894.998	8149.89
895.178	8336.26
895.357	8608.64
895.537	8133.51
895.716	8125.32
895.896	8682.36
896.075	8797.05
896.255	8160.13
896.434	7947.14
896.614	8518.53
896.793	8817.53
896.973	8283.01
897.152	8231.81
897.331	8569.73
897.511	8809.34
897.69	7932.81
897.87	8137.6
898.049	8366.98
898.228	8326.02
898.407	8139.65
898.587	8434.56
898.766	8082.31
898.945	8323.97
899.124	8127.36
899.304	8174.47
899.483	8420.22
899.662	8680.32
899.841	7801.74
900.02	8018.82
900.199	8620.92
900.378	8416.13
900.557	7771.02
900.737	7859.08
900.916	8379.26
901.095	8287.11
901.274	8242.05
901.453	7777.16
901.632	8057.73
901.811	7998.34
901.989	7979.91
902.168	7824.26
902.347	8469.37
902.526	7959.43
902.705	7936.9
902.884	8100.74
903.063	8614.78
903.242	8483.71
903.42	7893.9
903.599	8094.6
903.778	8395.65
903.957	8620.92
904.135	8045.45
904.314	8113.03
904.493	8190.85
904.672	8215.43
904.85	7904.14
905.029	7834.5
905.207	8407.94
905.386	8614.78
905.565	7789.45
905.743	7637.9
905.922	7984.01
906.1	8108.93
906.279	7678.86
906.457	7723.91
906.636	8051.59
906.814	7816.07
906.993	7791.5
907.171	7625.61
907.35	8174.47
907.528	8336.26
907.707	7969.67
907.885	7535.5
908.063	8211.33
908.242	7795.59
908.42	7633.8
908.598	7302.03
908.777	7994.25
908.955	7619.47
909.133	7498.64
909.311	7230.35
909.49	7754.63
909.668	7584.65
909.846	7568.27
910.024	7398.29
910.202	7791.5
910.38	7781.26
910.559	7242.64
910.737	7508.88
910.915	7846.79
911.093	7572.36
911.271	7369.62
911.449	7668.62
911.627	7746.44
911.805	8143.75
911.983	7377.81
912.161	7388.05
912.339	7476.11
912.517	7908.23
912.695	7488.4
912.872	7228.31
913.05	7365.52
913.228	7662.48
913.406	7195.54
913.584	7379.86
913.762	7697.29
913.939	7390.1
914.117	7125.91
914.295	7015.32
914.473	7435.15
914.65	7611.28
914.828	7228.31
915.006	6927.25
915.184	7048.08
915.361	7369.62
915.539	7154.58
915.716	7291.79
915.894	7429.01
916.072	7545.74
916.249	7082.9
916.427	7099.28
916.604	7097.24
916.782	7265.17
916.959	6804.38
917.137	6947.73
917.314	7250.83
917.492	7355.28
917.669	7066.52
917.847	7089.04
918.024	7224.21
918.201	7021.46
918.379	6900.63
918.556	7048.08
918.733	7326.61
918.911	6933.4
919.088	7123.86
919.265	6835.1
919.442	7000.98
919.62	7050.13
919.797	6611.87
919.974	6548.38
920.151	6910.87
920.328	6964.12
920.506	6570.91
920.683	6876.06
920.86	6562.72
921.037	6630.3
921.214	6749.08
921.391	6618.01
921.568	6996.89
921.745	6421.41
921.922	6550.43
922.099	6450.08
922.276	7140.24
922.453	6790.04
922.63	6241.18
922.807	6755.22
922.984	6814.62
923.161	6540.19
923.338	6310.82
923.514	6204.32
923.691	6478.75
923.868	6689.69
924.045	6208.42
924.222	6216.61
924.399	6568.86
924.575	6663.07
924.752	6276
924.929	6362.01
925.105	6552.48
925.282	6173.6
925.459	6247.33
925.635	6177.7
925.812	6271.9
925.989	6136.74
926.165	5972.9
926.342	5841.83
926.518	6101.92
926.695	6159.27
926.871	6009.76
927.048	5952.42
927.224	6382.49
927.401	6050.72
927.577	5874.6
927.754	5727.14
927.93	6437.79
928.107	6169.51
928.283	5690.28
928.459	5987.24
928.636	6239.14
928.812	5843.88
928.988	5708.71
929.165	5499.82
929.341	5995.43
929.517	5983.14
929.693	5991.33
929.87	5434.29
930.046	5921.7
930.222	5553.07
930.398	5565.36
930.574	5733.29
930.751	5823.4
930.927	5555.12
931.103	5641.13
931.279	5419.95
931.455	5544.88
931.631	5651.37
931.807	5276.59
931.983	5378.99
932.159	5227.44
932.335	5591.98
932.511	5184.43
932.687	5323.69
932.863	5483.44
933.039	5495.72
933.215	5045.17
933.391	4953.01
933.566	5278.64
933.742	5288.88
933.918	4971.44
934.094	4899.77
934.27	5102.51
934.445	5217.2
934.621	4998.07
934.797	4672.44
934.973	5225.39
935.148	5086.13
935.324	4629.43
935.5	4463.55
935.675	5016.5
935.851	4950.96
936.027	4551.61
936.202	4334.53
936.378	4836.28
936.553	4512.7
936.729	4719.54
936.904	4064.19
937.08	3937.22
937.255	4154.3
937.431	3939.27
937.606	3759.05
937.782	3988.42
937.957	4105.15
938.133	3836.87
938.308	3554.25
938.483	3716.04
938.659	3527.63
938.834	3550.15
939.009	3437.52
939.185	3656.65
939.36	3476.43
939.535	3103.7
939.71	3310.54
939.886	3720.14
940.061	3599.31
940.236	3208.14
940.411	3199.95
940.586	3464.14
940.761	3339.21
940.937	3087.31
941.112	3036.11
941.287	3222.48
941.462	3263.44
941.637	2976.72
941.812	2952.15
941.987	3306.45
942.162	3087.31
942.337	2888.66
942.512	2849.75
942.687	3513.29
942.862	3152.85
943.037	2640.86
943.212	2431.96
943.386	2812.89
943.561	3023.83
943.736	2857.94
943.911	2952.15
944.086	3027.92
944.26	2972.63
944.435	2591.7
944.61	2880.47
944.785	3189.71
944.959	3435.47
945.134	2741.21
945.309	2603.99
945.483	2753.49
945.658	3077.07
945.833	2374.62
946.007	2554.84
946.182	3171.28
946.357	2751.45
946.531	2538.46
946.706	2634.71
946.88	2427.87
947.055	2907.09
947.229	2620.38
947.404	2690.01
947.578	3077.07
947.752	2704.34
947.927	2499.55
948.101	2366.43
948.276	2769.88
948.45	2780.12
948.624	2796.5
948.799	2448.35
948.973	2866.13
949.147	2710.49
949.321	2753.49
949.496	2520.03
949.67	2997.2
949.844	2640.86
950.018	2743.25
950.193	2628.57
950.367	3396.56
950.541	2696.15
950.715	2831.32
950.889	2569.18
951.063	2773.97
951.237	3064.79
951.411	2341.85
951.585	2423.77
951.759	2909.14
951.933	2763.73
952.107	2636.76
952.281	2948.05
952.455	3261.39
952.629	2974.67
952.803	2616.28
952.977	2536.41
953.151	3003.35
953.325	2948.05
953.499	2698.2
953.672	2448.35
953.846	2743.25
954.02	2778.07
954.194	2556.89
954.368	2356.19
954.541	2917.33
954.715	2714.58
954.889	2663.38
955.062	2534.36
955.236	2792.41
955.41	2753.49
955.583	2792.41
955.757	2294.75
955.93	2726.87
956.104	2565.08
956.278	2628.57
956.451	2630.62
956.625	2876.37
956.798	3326.93
956.972	2872.28
957.145	2573.27
957.319	2794.45
957.492	2720.73
957.665	2753.49
957.839	2505.69
958.012	2958.29
958.185	2642.9
958.359	2517.98
958.532	2669.53
958.705	2943.96
958.879	2966.48
959.052	2608.09
959.225	2358.24
959.398	2743.25
959.572	2915.28
959.745	2452.44
959.918	2554.84
960.091	2687.96
960.264	2933.72
960.438	2481.11
960.611	2407.39
960.784	2989.01
960.957	2649.05
961.13	2890.71
961.303	2366.43
961.476	2628.57
961.649	2763.73
961.822	2358.24
961.995	2434.01
962.168	2894.8
962.341	2753.49
962.514	2546.65
962.686	2587.61
962.859	2710.49
963.032	2759.64
963.205	2497.5
963.378	2358.24
963.551	2769.88
963.723	2685.91
963.896	2517.98
964.069	2690.01
964.242	2704.34
964.414	2784.21
964.587	2524.12
964.76	2417.63
964.932	2792.41
965.105	2655.19
965.278	2468.83
965.45	2350.04
965.623	2603.99
965.795	2765.78
965.968	2296.8
966.14	2493.4
966.313	2634.71
966.485	2585.56
966.658	2190.3
966.83	2339.8
967.003	2880.47
967.175	2763.73
967.348	2460.63
967.52	2436.06
967.692	2880.47
967.865	2810.84
968.037	2421.72
968.209	2599.9
968.382	2575.32
968.554	2759.64
968.726	2468.83
968.898	2378.72
969.071	2585.56
969.243	2778.07
969.415	2317.28
969.587	2440.15
969.759	3075.03
969.932	2810.84
970.104	2427.87
970.276	2022.37
970.448	2509.79
970.62	2450.39
970.792	2358.24
970.964	2393.05
971.136	3072.98
971.308	2618.33
971.48	2304.99
971.652	2198.49
971.824	2833.36
971.996	2286.56
972.168	2345.95
972.339	2167.77
972.511	2794.45
972.683	2485.21
972.855	2452.44
973.027	2221.02
973.199	2345.95
973.37	2587.61
973.542	2354.14
973.714	2372.57
973.886	2358.24
974.057	2757.59
974.229	2108.38
974.401	2118.62
974.572	2210.78
974.744	1926.11
974.915	2255.84
975.087	2089.95
975.259	2694.1
975.43	2214.88
975.602	2173.92
975.773	2075.62
975.945	2143.2
976.116	2538.46
976.288	2225.12
976.459	2407.39
976.63	2386.91
976.802	2554.84
976.973	2104.29
977.145	2276.32
977.316	2866.13
977.487	2450.39
977.659	2333.66
977.83	2104.29
978.001	2857.94
978.172	2472.92
978.344	2096.1
978.515	2194.4
978.686	2227.17
978.857	2784.21
979.028	2196.45
979.2	2057.18
979.371	2536.41
979.542	2358.24
979.713	2323.42
979.884	1666.02
980.055	2061.28
980.226	2362.33
980.397	2001.89
980.568	1973.22
980.739	2485.21
980.91	2202.59
981.081	2159.58
981.252	1989.6
981.423	2391
981.594	2489.31
981.765	1924.07
981.936	2089.95
982.106	2167.77
982.277	2624.47
982.448	2005.99
982.619	2120.67
982.79	2194.4
982.96	2434.01
983.131	2171.87
983.302	1709.03
983.472	2114.53
983.643	2274.27
983.814	2132.96
983.984	2051.04
984.155	2223.07
984.326	2446.3
984.496	2053.09
984.667	1960.93
984.837	1971.17
985.008	2505.69
985.178	2128.86
985.349	2024.42
985.519	2073.57
985.69	1985.51
985.86	1926.11
986.031	1965.03
986.201	2214.88
986.371	2323.42
986.542	1948.64
986.712	1651.69
986.882	2323.42
987.053	2401.24
987.223	1739.75
987.393	2063.33
987.563	1940.45
987.734	2227.17
987.904	2259.93
988.074	1903.59
988.244	2196.45
988.414	1975.27
988.585	1846.24
988.755	1979.36
988.925	2071.52
989.095	2462.68
989.265	1760.23
989.435	1807.33
989.605	2065.38
989.775	2151.39
989.945	1967.07
990.115	1690.6
990.285	1991.65
990.455	2184.16
990.625	1913.83
990.795	1733.61
990.965	2337.76
991.134	1805.28
991.304	1706.98
991.474	1623.02
991.644	2014.18
991.814	2391
991.984	1612.78
992.153	1547.24
992.323	1958.88
992.493	2055.14
992.662	1512.42
992.832	1915.87
993.002	2061.28
993.171	1997.79
993.341	1534.95
993.511	1891.3
993.68	1883.11
993.85	2161.63
994.019	1471.47
994.189	1510.38
994.358	2046.94
994.528	1809.38
994.697	1407.98
994.867	1580.01
995.036	2124.77
995.206	1727.46
995.375	1571.82
995.544	1704.93
995.714	1973.22
995.883	1743.85
996.052	1766.37
996.222	1489.9
996.391	2294.75
996.56	1911.78
996.73	1590.25
996.899	1450.99
997.068	2210.78
997.237	1870.82
997.406	1446.89
997.576	1403.88
997.745	1913.83
997.914	1850.34
998.083	1326.06
998.252	1491.95
998.421	1838.05
998.59	1698.79
998.759	1424.36
998.928	1338.35
999.097	1993.7
999.266	1844.2
999.435	1620.97
999.604	1418.22
999.773	2192.35
999.942	1596.39
1000.111	1324.01
1000.28	1260.52
1000.448	1567.72
1000.617	1604.58
1000.786	1588.2
1000.955	1246.19
1001.124	1731.56
1001.292	2431.96
1001.461	1379.31
1001.63	1377.26
1001.798	1999.84
1001.967	2014.18
1002.136	1283.05
1002.304	1252.33
1002.473	1840.1
1002.642	1731.56
1002.81	1399.79
1002.979	1414.12
1003.147	1874.92
1003.316	2155.49
1003.484	1348.59
1003.653	1223.66
1003.821	1911.78
1003.99	1580.01
1004.158	1469.42
1004.327	1467.37
1004.495	1711.08
1004.663	1500.14
1004.832	1459.18
1005	1207.28
1005.168	1741.8
1005.337	1661.93
1005.505	1037.3
1005.673	1436.65
1005.842	1799.14
1006.01	1780.71
1006.178	1180.65
1006.346	1211.37
1006.514	1608.68
1006.683	1778.66
1006.851	1270.76
1007.019	1027.06
1007.187	1453.03
1007.355	1088.5
1007.523	1016.82
1007.691	1137.65
1007.859	1248.24
1008.027	1760.23
1008.195	1235.95
1008.363	1100.78
1008.531	1793
1008.699	1444.84
1008.867	1203.18
1009.035	1125.36
1009.203	1795.04
1009.37	1461.23
1009.538	1162.22
1009.706	1584.1
1009.874	1530.86
1010.042	1387.5
1010.209	1117.17
1010.377	1070.06
1010.545	1686.5
1010.713	1375.21
1010.88	1121.26
1011.048	1203.18
1011.216	1326.06
1011.383	1700.84
1011.551	1121.26
1011.718	1012.72
1011.886	1635.3
1012.054	1362.92
1012.221	1074.16
1012.389	959.47
1012.556	1367.02
1012.724	1866.72
1012.891	1117.17
1013.058	924.66
1013.226	1453.03
1013.393	1575.91
1013.561	895.99
1013.728	887.79
1013.895	1612.78
1014.063	1502.19
1014.23	887.79
1014.397	932.85
1014.565	1534.95
1014.732	1254.38
1014.899	1047.54
1015.066	879.6
1015.233	1362.92
1015.401	1489.9
1015.568	1115.12
1015.735	1121.26
1015.902	1219.57
1016.069	1342.44
1016.236	910.32
1016.403	908.27
1016.57	1115.12
1016.737	1465.32
1016.904	941.04
1017.071	916.47
1017.238	1188.85
1017.405	1506.28
1017.572	916.47
1017.739	1078.26
1017.906	1506.28
1018.073	1514.47
1018.24	867.31
1018.407	967.67
1018.573	1430.51
1018.74	1135.6
1018.907	920.56
1019.074	699.38
1019.241	1493.99
1019.407	1215.47
1019.574	734.2
1019.741	748.53
1019.907	1258.48
1020.074	1324.01
1020.241	689.14
1020.407	654.33
1020.574	1307.63
1020.74	1342.44
1020.907	807.92
1021.073	609.27
1021.24	1692.65
1021.406	1453.03
1021.573	746.48
1021.739	777.2
1021.906	1397.74
1022.072	1151.98
1022.239	805.88
1022.405	779.25
1022.571	1203.18
1022.738	834.55
1022.904	736.24
1023.07	875.51
1023.237	1174.51
1023.403	1389.55
1023.569	846.84
1023.735	723.96
1023.902	1246.19
1024.068	1209.33
1024.234	646.13
1024.4	756.72
1024.566	1215.47
1024.732	1276.91
1024.898	687.09
1025.065	549.88
1025.231	1254.38
1025.397	961.52
1025.563	637.94
1025.729	637.94
1025.895	650.23
1026.061	867.31
1026.227	519.16
1026.392	697.33
1026.558	1287.15
1026.724	1201.13
1026.89	699.38
1027.056	826.36
1027.222	1174.51
1027.388	910.32
1027.553	670.71
1027.719	701.43
1027.885	1399.79
1028.051	1184.75
1028.216	474.1
1028.382	644.09
1028.548	1096.69
1028.713	977.91
1028.879	541.69
1029.045	769.01
1029.21	1385.45
1029.376	1217.52
1029.541	654.33
1029.707	556.02
1029.873	1074.16
1030.038	1252.33
1030.204	631.8
1030.369	662.52
1030.534	1156.08
1030.7	822.26
1030.865	613.37
1031.031	525.3
1031.196	1002.48
1031.361	1008.62
1031.527	578.55
1031.692	484.34
1031.857	572.41
1032.023	1035.25
1032.188	474.1
1032.353	506.87
1032.518	1244.14
1032.684	967.67
1032.849	369.66
1033.014	588.79
1033.179	1000.43
1033.344	979.95
1033.509	603.13
1033.674	472.06
1033.839	1076.21
1034.004	1022.96
1034.17	482.3
1034.335	418.81
1034.5	855.03
1034.664	734.2
1034.829	433.15
1034.994	562.17
1035.159	959.47
1035.324	969.71
1035.489	455.67
1035.654	533.5
1035.819	1031.15
1035.984	922.61
1036.148	558.07
1036.313	422.91
1036.478	1096.69
1036.643	777.2
1036.807	459.77
1036.972	396.28
1037.137	1170.41
1037.301	797.68
1037.466	293.88
1037.631	482.3
1037.795	1260.52
1037.96	859.12
1038.124	637.94
1038.289	334.84
1038.454	912.37
1038.618	965.62
1038.783	480.25
1038.947	543.74
1039.111	826.36
1039.276	689.14
1039.44	381.95
1039.605	889.84
1039.769	738.29
1039.933	807.92
1040.098	435.19
1040.262	773.11
1040.426	1047.54
1040.591	969.71
1040.755	355.32
1040.919	396.28
1041.083	904.18
1041.248	754.68
1041.412	308.22
1041.576	343.03
1041.74	668.66
1041.904	893.94
1042.068	359.42
1042.232	379.9
1042.397	994.29
1042.561	859.12
1042.725	115.71
1042.889	494.58
1043.053	924.66
1043.217	885.75
1043.381	441.34
1043.544	226.3
1043.708	1012.72
1043.872	537.59
1044.036	142.33
1044.2	187.39
1044.364	1031.15
1044.528	1115.12
1044.691	3290.06
1044.855	173.05
1045.019	863.22
1045.183	846.84
1045.346	287.74
1045.51	271.36
1045.674	787.44
1045.837	889.84
1046.001	279.55
1046.165	287.74
1046.328	1254.38
1046.492	775.16
1046.655	472.06
1046.819	338.94
1046.983	676.85
1047.146	828.4
1047.31	355.32
1047.473	105.47
1047.636	705.53
1047.8	519.16
1047.963	375.8
1048.127	181.25
1048.29	547.83
