Data from Ink_Intensity_USB4F045381__176__00176.txt Node

Date: Mon Jul 17 11:39:48 EDT 2023
User: mmckonesweet
Spectrometer: USB4F04538
Trigger mode: 4
Integration Time (sec): 9.000000E-1
Scans to average: 1
Electric dark correction enabled: true
Nonlinearity correction enabled: false
Boxcar width: 0
XAxis mode: Wavelengths
Number of Pixels in Spectrum: 3648
>>>>>Begin Spectral Data<<<<<
345.52	-1082.52
345.736	-1082.52
345.952	-1082.52
346.168	-945.31
346.384	-1041.56
346.6	-144.55
346.816	-257.19
347.032	-224.42
347.248	258.9
347.464	-271.53
347.68	-126.12
347.896	62.29
348.112	451.41
348.328	-15.53
348.544	-68.78
348.76	162.64
348.975	172.88
349.191	-244.9
349.407	-191.66
349.623	9.05
349.839	-81.07
350.055	-199.85
350.27	95.06
350.486	213.84
350.702	281.43
350.918	226.13
351.133	-242.85
351.349	142.16
351.565	412.5
351.781	-208.04
351.996	17.24
352.212	324.43
352.428	-85.16
352.644	-232.62
352.859	-220.33
353.075	267.09
353.291	121.68
353.506	-175.27
353.722	-224.42
353.938	-46.25
354.153	398.16
354.369	121.68
354.584	-253.09
354.8	211.79
355.016	-373.92
355.231	-201.9
355.447	-5.29
355.662	119.64
355.878	807.75
356.093	-304.29
356.309	-109.74
356.524	-273.57
356.74	295.76
356.955	-199.85
357.171	11.09
357.386	95.06
357.602	-158.89
357.817	-142.5
358.033	-228.52
358.248	283.47
358.464	138.07
358.679	-138.41
358.895	-343.21
359.11	-54.44
359.325	281.43
359.541	15.19
359.756	-31.91
359.972	-265.38
360.187	168.79
360.402	-216.23
360.618	-199.85
360.833	883.53
361.048	154.45
361.264	-162.98
361.479	-128.17
361.694	-42.15
361.909	279.38
362.125	-292.01
362.34	-154.79
362.555	207.7
362.77	37.72
362.986	-285.86
363.201	-171.18
363.416	140.12
363.631	13.14
363.847	-255.14
364.062	-169.13
364.277	168.79
364.492	68.44
364.707	-191.66
364.922	-423.08
365.138	240.47
365.353	342.86
365.568	-330.92
365.783	-175.27
365.998	54.1
366.213	609.1
366.428	-347.3
366.643	29.52
366.858	262.99
367.073	119.64
367.288	-105.64
367.503	-322.73
367.718	82.77
367.933	262.99
368.148	-265.38
368.363	-109.74
368.578	-60.59
368.793	424.78
369.008	-212.14
369.223	-257.19
369.438	150.36
369.653	422.73
369.868	-312.49
370.083	-273.57
370.298	115.54
370.513	430.93
370.728	-5.29
370.943	-195.75
371.157	-191.66
371.372	385.87
371.587	-249
371.802	-289.96
372.017	50
372.232	402.26
372.446	-93.35
372.661	-253.09
372.876	205.65
373.091	107.35
373.306	-107.69
373.52	-289.96
373.735	-216.23
373.95	439.12
374.165	-158.89
374.379	-232.62
374.594	-148.65
374.809	131.92
375.023	56.15
375.238	-240.81
375.453	172.88
375.667	-259.24
375.882	-220.33
376.097	-224.42
376.311	33.62
376.526	-40.11
376.741	-326.82
376.955	86.87
377.17	529.23
377.384	463.69
377.599	-93.35
377.813	-302.25
378.028	615.24
378.242	115.54
378.457	-72.87
378.672	-371.88
378.886	84.82
379.101	-31.91
379.315	-404.64
379.53	-244.9
379.744	121.68
379.958	193.36
380.173	-171.18
380.387	-224.42
380.602	54.1
380.816	-230.57
381.031	-111.78
381.245	-197.8
381.459	164.69
381.674	2675.5
381.888	-160.94
382.103	68.44
382.317	-230.57
382.531	381.78
382.746	-111.78
382.96	-171.18
383.174	-115.88
383.388	406.35
383.603	-48.3
383.817	-253.09
384.031	99.16
384.246	471.89
384.46	-31.91
384.674	260.95
384.888	2.9
385.103	-27.82
385.317	-289.96
385.531	-111.78
385.745	328.53
385.959	236.37
386.174	-255.14
386.388	-240.81
386.602	33.62
386.816	-165.03
387.03	-142.5
387.244	-68.78
387.458	-66.73
387.672	338.77
387.887	-326.82
388.101	-339.11
388.315	293.71
388.529	103.25
388.743	-218.28
388.957	-281.77
389.171	295.76
389.385	-191.66
389.599	-138.41
389.813	-52.39
390.027	213.84
390.241	621.39
390.455	-158.89
390.669	-162.98
390.883	-68.78
391.097	324.43
391.311	-27.82
391.525	-203.94
391.738	148.31
391.952	154.45
392.166	-38.06
392.38	-212.14
392.594	174.93
392.808	303.95
393.022	-109.74
393.236	-113.83
393.449	160.59
393.663	179.03
393.877	-289.96
394.091	-99.5
394.305	-62.63
394.518	-130.22
394.732	-242.85
394.946	-222.38
395.16	406.35
395.373	86.87
395.587	-201.9
395.801	-160.94
396.015	209.75
396.228	234.32
396.442	-302.25
396.656	-330.92
396.869	281.43
397.083	418.64
397.297	-81.07
397.51	-199.85
397.724	267.09
397.938	119.64
398.151	-326.82
398.365	-296.1
398.578	127.83
398.792	418.64
399.005	-44.2
399.219	-130.22
399.433	97.11
399.646	123.73
399.86	-48.3
400.073	-40.11
400.287	103.25
400.5	13.14
400.714	25.43
400.927	-74.92
401.141	129.88
401.354	1057.61
401.567	86.87
401.781	-289.96
401.994	164.69
402.208	564.04
402.421	-126.12
402.635	-76.97
402.848	-27.82
403.061	228.18
403.275	-79.02
403.488	-216.23
403.701	471.89
403.915	267.09
404.128	-19.63
404.341	-185.51
404.555	154.45
404.768	-23.72
404.981	35.67
405.195	-230.57
405.408	453.45
405.621	277.33
405.834	-17.58
406.048	-224.42
406.261	340.82
406.474	473.93
406.687	-232.62
406.9	-99.5
407.114	50
407.327	189.27
407.54	-339.11
407.753	-318.63
407.966	-101.55
408.179	209.75
408.392	-238.76
408.605	-289.96
408.819	205.65
409.032	207.7
409.245	-240.81
409.458	21.33
409.671	199.51
409.884	203.6
410.097	-230.57
410.31	-3.24
410.523	152.4
410.736	-11.43
410.949	-101.55
411.162	-148.65
411.375	394.06
411.588	199.51
411.801	-52.39
412.014	-205.99
412.227	13.14
412.44	-109.74
412.653	-222.38
412.865	-91.31
413.078	256.85
413.291	160.59
413.504	-93.35
413.717	-269.48
413.93	258.9
414.143	-130.22
414.356	-117.93
414.568	-326.82
414.781	136.02
414.994	7
415.207	-117.93
415.42	-117.93
415.632	254.8
415.845	484.17
416.058	-306.34
416.271	-373.92
416.483	-27.82
416.696	424.78
416.909	-191.66
417.121	-251.05
417.334	146.26
417.547	537.42
417.759	-271.53
417.972	-312.49
418.185	-115.88
418.397	222.03
418.61	-228.52
418.823	-263.33
419.035	396.11
419.248	-31.91
419.46	-130.22
419.673	-134.31
419.885	213.84
420.098	23.38
420.311	-142.5
420.523	-431.27
420.736	154.45
420.948	29.52
421.161	-160.94
421.373	-453.8
421.586	80.72
421.798	-144.55
422.01	-298.15
422.223	-68.78
422.435	-103.59
422.648	176.98
422.86	-234.66
423.073	-224.42
423.285	271.19
423.497	-244.9
423.71	-179.37
423.922	-238.76
424.134	37.72
424.347	383.82
424.559	-72.87
424.771	84.82
424.984	-52.39
425.196	226.13
425.408	-375.97
425.621	-378.02
425.833	287.57
426.045	271.19
426.257	-265.38
426.47	-191.66
426.682	64.34
426.894	174.93
427.106	-226.47
427.318	-185.51
427.531	-68.78
427.743	183.12
427.955	-214.18
428.167	209.75
428.379	183.12
428.591	56.15
428.804	-89.26
429.016	-277.67
429.228	-15.53
429.44	119.64
429.652	-19.63
429.864	-369.83
430.076	-74.92
430.288	-19.63
430.5	-117.93
430.712	-183.46
430.924	242.51
431.136	107.35
431.348	-371.88
431.56	-199.85
431.772	-17.58
431.984	-99.5
432.196	-236.71
432.408	-158.89
432.62	-44.2
432.832	127.83
433.044	52.05
433.256	-193.7
433.468	181.07
433.679	-236.71
433.891	-292.01
434.103	-13.48
434.315	381.78
434.527	187.22
434.739	-93.35
434.95	-158.89
435.162	250.71
435.374	-95.4
435.586	-181.42
435.798	-117.93
436.009	-171.18
436.221	-70.83
436.433	-175.27
436.645	-185.51
436.856	-40.11
437.068	236.37
437.28	-263.33
437.491	70.48
437.703	72.53
437.915	129.88
438.126	-179.37
438.338	76.63
438.55	-79.02
438.761	117.59
438.973	-169.13
439.184	-126.12
439.396	31.57
439.608	205.65
439.819	-242.85
440.031	-76.97
440.242	201.55
440.454	211.79
440.665	-109.74
440.877	-146.6
441.088	164.69
441.3	-40.11
441.511	-343.21
441.723	-269.48
441.934	129.88
442.146	80.72
442.357	-144.55
442.569	11.09
442.78	62.29
442.991	367.44
443.203	2.9
443.414	-296.1
443.626	316.24
443.837	-205.99
444.048	-265.38
444.26	-380.07
444.471	-7.34
444.682	230.23
444.894	-384.16
445.105	-398.5
445.316	287.57
445.528	158.55
445.739	-167.08
445.95	-173.22
446.161	99.16
446.373	234.32
446.584	-220.33
446.795	-216.23
447.006	144.21
447.217	471.89
447.429	-408.74
447.64	-300.2
447.851	336.72
448.062	74.58
448.273	-404.64
448.484	-312.49
448.695	176.98
448.907	76.63
449.118	-162.98
449.329	-27.82
449.54	-132.26
449.751	-212.14
449.962	-236.71
450.173	-257.19
450.384	293.71
450.595	328.53
450.806	-271.53
451.017	-167.08
451.228	389.97
451.439	217.94
451.65	-158.89
451.861	-423.08
452.072	-224.42
452.283	-62.63
452.494	0.85
452.705	-296.1
452.915	365.39
453.126	127.83
453.337	-156.84
453.548	-238.76
453.759	254.8
453.97	463.69
454.181	121.68
454.391	-269.48
454.602	93.01
454.813	176.98
455.024	-224.42
455.235	-277.67
455.445	62.29
455.656	189.27
455.867	-113.83
456.078	-273.57
456.288	-134.31
456.499	168.79
456.71	-210.09
456.921	31.57
457.131	136.02
457.342	113.49
457.553	-222.38
457.763	-249
457.974	185.17
458.184	250.71
458.395	-339.11
458.606	-279.72
458.816	217.94
459.027	516.94
459.237	-44.2
459.448	-412.84
459.659	377.68
459.869	654.16
460.08	-394.4
460.29	-101.55
460.501	475.98
460.711	-132.26
460.922	-302.25
461.132	-277.67
461.343	660.3
461.553	-249
461.764	-281.77
461.974	-197.8
462.184	105.3
462.395	19.29
462.605	-267.43
462.816	-300.2
463.026	-5.29
463.236	279.38
463.447	-283.81
463.657	-302.25
463.867	174.93
464.078	-19.63
464.288	-173.22
464.498	-253.09
464.709	-85.16
464.919	-44.2
465.129	-173.22
465.339	-353.45
465.55	168.79
465.76	181.07
465.97	-236.71
466.18	-267.43
466.391	260.95
466.601	131.92
466.811	-205.99
467.021	-339.11
467.231	150.36
467.441	262.99
467.651	-228.52
467.862	-408.74
468.072	27.48
468.282	275.28
468.492	-251.05
468.702	-265.38
468.912	-38.06
469.122	521.04
469.332	54.1
469.542	-351.4
469.752	168.79
469.962	88.92
470.172	-273.57
470.382	-218.28
470.592	111.44
470.802	234.32
471.012	-111.78
471.222	-203.94
471.432	219.99
471.642	152.4
471.852	-70.83
472.062	-238.76
472.272	-44.2
472.482	-281.77
472.691	-337.06
472.901	-382.12
473.111	70.48
473.321	535.37
473.531	-296.1
473.741	-173.22
473.95	146.26
474.16	205.65
474.37	-189.61
474.58	-328.87
474.79	529.23
474.999	146.26
475.209	-285.86
475.419	-224.42
475.628	-122.02
475.838	236.37
476.048	-183.46
476.258	-384.16
476.467	303.95
476.677	-48.3
476.886	-99.5
477.096	-220.33
477.306	-87.21
477.515	369.49
477.725	-218.28
477.935	-126.12
478.144	379.73
478.354	-205.99
478.563	-210.09
478.773	-328.87
478.982	236.37
479.192	242.51
479.401	-201.9
479.611	-351.4
479.82	-144.55
480.03	62.29
480.239	-289.96
480.449	-320.68
480.658	400.21
480.868	-124.07
481.077	-222.38
481.287	-244.9
481.496	54.1
481.705	375.63
481.915	-33.96
482.124	-11.43
482.333	111.44
482.543	389.97
482.752	-197.8
482.961	-294.05
483.171	197.46
483.38	-11.43
483.589	-183.46
483.799	-316.58
484.008	-50.35
484.217	201.55
484.426	-185.51
484.636	-388.26
484.845	80.72
485.054	-173.22
485.263	125.78
485.472	-249
485.682	414.54
485.891	43.86
486.1	-384.16
486.309	-246.95
486.518	217.94
486.727	426.83
486.936	-363.69
487.146	-113.83
487.355	267.09
487.564	-244.9
487.773	-175.27
487.982	-224.42
488.191	-156.84
488.4	-17.58
488.609	-238.76
488.818	-275.62
489.027	523.09
489.236	439.12
489.445	-304.29
489.654	-265.38
489.863	291.66
490.072	29.52
490.281	74.58
490.49	-324.77
490.698	426.83
490.907	242.51
491.116	-228.52
491.325	-314.53
491.534	301.9
491.743	64.34
491.952	-179.37
492.16	-187.56
492.369	140.12
492.578	271.19
492.787	-83.11
492.996	-363.69
493.204	-140.46
493.413	494.41
493.622	-418.98
493.831	-339.11
494.039	385.87
494.248	-165.03
494.457	-257.19
494.665	-416.93
494.874	197.46
495.083	406.35
495.291	-275.62
495.5	-365.73
495.709	193.36
495.917	74.58
496.126	-81.07
496.335	-310.44
496.543	-91.31
496.752	199.51
496.96	13.14
497.169	-400.55
497.377	29.52
497.586	185.17
497.794	-191.66
498.003	-439.46
498.211	-83.11
498.42	418.64
498.628	-226.47
498.837	-343.21
499.045	115.54
499.254	82.77
499.462	-277.67
499.671	-312.49
499.879	488.27
500.087	285.52
500.296	-292.01
500.504	-267.43
500.713	43.86
500.921	516.94
501.129	-332.97
501.338	-271.53
501.546	121.68
501.754	47.96
501.962	-171.18
502.171	-367.78
502.379	136.02
502.587	449.36
502.795	-175.27
503.004	-238.76
503.212	45.91
503.42	187.22
503.628	-314.53
503.837	-199.85
504.045	213.84
504.253	381.78
504.461	-330.92
504.669	-437.41
504.877	148.31
505.085	346.96
505.294	-474.28
505.502	-36.01
505.71	111.44
505.918	283.47
506.126	-308.39
506.334	-302.25
506.542	0.85
506.75	129.88
506.958	-124.07
507.166	-289.96
507.374	-109.74
507.582	400.21
507.79	-175.27
507.998	-437.41
508.206	123.73
508.414	129.88
508.622	-302.25
508.83	-191.66
509.037	351.06
509.245	17.24
509.453	-343.21
509.661	-425.12
509.869	148.31
510.077	-33.96
510.285	-193.7
510.492	-582.82
510.7	562
510.908	-68.78
511.116	-249
511.324	-285.86
511.531	29.52
511.739	88.92
511.947	-150.7
512.155	9.05
512.362	152.4
512.57	-210.09
512.778	-289.96
512.985	-375.97
513.193	287.57
513.401	437.07
513.608	-240.81
513.816	-226.47
514.024	209.75
514.231	416.59
514.439	-318.63
514.646	-244.9
514.854	224.08
515.061	262.99
515.269	-281.77
515.477	-308.39
515.684	-162.98
515.892	209.75
516.099	-380.07
516.307	-404.64
516.514	152.4
516.722	389.97
516.929	-246.95
517.136	-324.77
517.344	279.38
517.551	217.94
517.759	-328.87
517.966	-281.77
518.173	-48.3
518.381	39.76
518.588	-218.28
518.796	-351.4
519.003	250.71
519.21	-85.16
519.418	-296.1
519.625	54.1
519.832	72.53
520.039	129.88
520.247	-361.64
520.454	-273.57
520.661	187.22
520.868	25.43
521.076	-292.01
521.283	-162.98
521.49	648.01
521.697	168.79
521.904	-142.5
522.112	-328.87
522.319	203.6
522.526	121.68
522.733	-380.07
522.94	-322.73
523.147	-74.92
523.354	273.23
523.561	-349.35
523.768	-179.37
523.975	269.14
524.183	127.83
524.39	-183.46
524.597	-431.27
524.804	-19.63
525.011	-203.94
525.218	-384.16
525.425	-289.96
525.632	285.52
525.838	-171.18
526.045	-214.18
526.252	-324.77
526.459	1108.8
526.666	850.76
526.873	-320.68
527.08	-240.81
527.287	387.92
527.494	252.75
527.701	-414.88
527.907	-294.05
528.114	226.13
528.321	-83.11
528.528	-228.52
528.735	-349.35
528.941	-152.74
529.148	-113.83
529.355	-232.62
529.562	-242.85
529.768	357.2
529.975	-66.73
530.182	-222.38
530.388	-267.43
530.595	326.48
530.802	-220.33
531.008	-142.5
531.215	-212.14
531.422	465.74
531.628	650.06
531.835	-214.18
532.042	-214.18
532.248	-124.07
532.455	2.9
532.661	-240.81
532.868	-326.82
533.074	154.45
533.281	168.79
533.487	-103.59
533.694	-355.49
533.9	-214.18
534.107	150.36
534.313	-324.77
534.52	-343.21
534.726	201.55
534.933	496.46
535.139	-367.78
535.345	-386.21
535.552	146.26
535.758	93.01
535.965	-273.57
536.171	-343.21
536.377	215.89
536.584	334.67
536.79	-271.53
536.996	-271.53
537.203	60.24
537.409	201.55
537.615	-314.53
537.821	-140.46
538.028	262.99
538.234	217.94
538.44	-322.73
538.646	-162.98
538.853	136.02
539.059	-44.2
539.265	99.16
539.471	-517.28
539.677	236.37
539.883	-74.92
540.09	-353.45
540.296	90.96
540.502	-3.24
540.708	-148.65
540.914	-99.5
541.12	-341.16
541.326	187.22
541.532	52.05
541.738	-162.98
541.944	-289.96
542.15	242.51
542.356	-15.53
542.562	-337.06
542.768	-277.67
542.974	672.59
543.18	527.18
543.386	-375.97
543.592	-427.17
543.798	363.34
544.004	353.1
544.21	-343.21
544.415	-208.04
544.621	-3.24
544.827	267.09
545.033	-392.36
545.239	-19.63
545.445	-265.38
545.651	47.96
545.856	-347.3
546.062	-349.35
546.268	-109.74
546.474	4.95
546.679	-226.47
546.885	-205.99
547.091	-36.01
547.297	533.33
547.502	-205.99
547.708	-396.45
547.914	-95.4
548.119	148.31
548.325	-380.07
548.531	-328.87
548.736	308.05
548.942	-122.02
549.147	-312.49
549.353	-46.25
549.559	262.99
549.764	29.52
549.97	-251.05
550.175	-224.42
550.381	222.03
550.586	-171.18
550.792	-177.32
550.997	-341.16
551.203	74.58
551.408	250.71
551.614	-279.72
551.819	-343.21
552.025	463.69
552.23	451.41
552.435	-396.45
552.641	-132.26
552.846	-124.07
553.052	222.03
553.257	-167.08
553.462	-187.56
553.668	-142.5
553.873	340.82
554.078	-302.25
554.283	-277.67
554.489	103.25
554.694	45.91
554.899	-390.31
555.105	-124.07
555.31	228.18
555.515	162.64
555.72	-210.09
555.925	-324.77
556.131	131.92
556.336	-93.35
556.541	-281.77
556.746	-443.56
556.951	260.95
557.156	410.45
557.361	-109.74
557.567	-56.49
557.772	459.6
557.977	191.31
558.182	-275.62
558.387	-265.38
558.592	-81.07
558.797	287.57
559.002	-136.36
559.207	-126.12
559.412	-52.39
559.617	467.79
559.822	-292.01
560.027	-273.57
560.232	72.53
560.437	205.65
560.642	-474.28
560.847	-292.01
561.051	-15.53
561.256	211.79
561.461	-195.75
561.666	-318.63
561.871	27.48
562.076	189.27
562.281	-208.04
562.485	-341.16
562.69	176.98
562.895	291.66
563.1	-269.48
563.305	-310.44
563.509	287.57
563.714	615.24
563.919	-238.76
564.123	-328.87
564.328	-44.2
564.533	381.78
564.737	-218.28
564.942	-298.15
565.147	418.64
565.351	619.34
565.556	-146.6
565.761	-134.31
565.965	123.73
566.17	-199.85
566.374	-236.71
566.579	-500.9
566.784	148.31
566.988	-66.73
567.193	-363.69
567.397	-277.67
567.602	-244.9
567.806	-48.3
568.011	-273.57
568.215	-187.56
568.42	-46.25
568.624	-19.63
568.828	-324.77
569.033	-101.55
569.237	172.88
569.442	162.64
569.646	-337.06
569.85	-242.85
570.055	21.33
570.259	136.02
570.463	-58.54
570.668	-298.15
570.872	39.76
571.076	21.33
571.281	-165.03
571.485	-195.75
571.689	17.24
571.893	199.51
572.098	-119.98
572.302	-292.01
572.506	66.39
572.71	21.33
572.914	-162.98
573.119	-240.81
573.323	404.3
573.527	371.54
573.731	-265.38
573.935	-335.01
574.139	113.49
574.343	-136.36
574.547	-304.29
574.751	-232.62
574.955	336.72
575.159	324.43
575.364	-287.91
575.568	-441.51
575.772	70.48
575.976	363.34
576.18	-287.91
576.383	-365.73
576.587	279.38
576.791	172.88
576.995	-386.21
577.199	-484.52
577.403	357.2
577.607	357.2
577.811	-416.93
578.015	-130.22
578.219	95.06
578.422	144.21
578.626	-193.7
578.83	-52.39
579.034	277.33
579.238	97.11
579.442	-265.38
579.645	123.73
579.849	54.1
580.053	29.52
580.257	-158.89
580.46	-165.03
580.664	187.22
580.868	168.79
581.071	-23.72
581.275	-81.07
581.479	-228.52
581.682	230.23
581.886	-228.52
582.09	-142.5
582.293	185.17
582.497	219.99
582.7	-50.35
582.904	-326.82
583.107	33.62
583.311	-15.53
583.515	-150.7
583.718	-265.38
583.922	129.88
584.125	471.89
584.329	-306.34
584.532	-167.08
584.735	365.39
584.939	181.07
585.142	-375.97
585.346	-251.05
585.549	185.17
585.753	-132.26
585.956	-224.42
586.159	-140.46
586.363	428.88
586.566	185.17
586.769	-361.64
586.973	-328.87
587.176	174.93
587.379	291.66
587.582	88.92
587.786	21.33
587.989	95.06
588.192	619.34
588.395	-177.32
588.599	101.2
588.802	95.06
589.005	176.98
589.208	-183.46
589.411	-257.19
589.615	262.99
589.818	357.2
590.021	7
590.224	-156.84
590.427	189.27
590.63	234.32
590.833	-490.66
591.036	-281.77
591.239	-62.63
591.442	-91.31
591.645	-56.49
591.848	-226.47
592.051	82.77
592.254	303.95
592.457	-175.27
592.66	-152.74
592.863	11.09
593.066	201.55
593.269	-251.05
593.472	-160.94
593.675	-154.79
593.878	248.66
594.081	-66.73
594.284	-353.45
594.486	215.89
594.689	97.11
594.892	-87.21
595.095	-230.57
595.298	250.71
595.5	-27.82
595.703	-126.12
595.906	-58.54
596.109	375.63
596.311	346.96
596.514	-476.32
596.717	-160.94
596.92	265.04
597.122	248.66
597.325	-461.99
597.528	-281.77
597.73	346.96
597.933	127.83
598.136	-269.48
598.338	-523.43
598.541	111.44
598.743	248.66
598.946	-205.99
599.148	-93.35
599.351	369.49
599.554	312.14
599.756	-91.31
599.959	-240.81
600.161	332.62
600.363	637.77
600.566	86.87
600.768	-232.62
600.971	447.31
601.173	203.6
601.376	-236.71
601.578	-220.33
601.78	160.59
601.983	580.43
602.185	-263.33
602.388	21.33
602.59	82.77
602.792	-19.63
602.995	62.29
603.197	-205.99
603.399	250.71
603.601	179.03
603.804	-122.02
604.006	-273.57
604.208	4.95
604.41	-316.58
604.613	-70.83
604.815	-257.19
605.017	619.34
605.219	-68.78
605.421	238.42
605.623	-232.62
605.826	389.97
606.028	445.26
606.23	-146.6
606.432	-197.8
606.634	496.46
606.836	387.92
607.038	-269.48
607.24	-83.11
607.442	176.98
607.644	152.4
607.846	-58.54
608.048	-230.57
608.25	465.74
608.452	-50.35
608.654	-240.81
608.856	-310.44
609.058	68.44
609.26	258.9
609.462	-40.11
609.664	-236.71
609.866	635.72
610.067	408.4
610.269	56.15
610.471	-113.83
610.673	-9.39
610.875	254.8
611.077	-273.57
611.278	-60.59
611.48	103.25
611.682	500.56
611.884	-85.16
612.085	-134.31
612.287	-58.54
612.489	97.11
612.69	-298.15
612.892	-111.78
613.094	389.97
613.295	193.36
613.497	-214.18
613.699	-191.66
613.9	471.89
614.102	359.25
614.304	-195.75
614.505	-255.14
614.707	93.01
614.908	74.58
615.11	-203.94
615.311	-103.59
615.513	324.43
615.714	330.58
615.916	-244.9
616.117	-175.27
616.319	146.26
616.52	332.62
616.722	-169.13
616.923	-158.89
617.124	402.26
617.326	310.1
617.527	-83.11
617.729	113.49
617.93	234.32
618.131	353.1
618.333	-152.74
618.534	-40.11
618.735	-101.55
618.937	424.78
619.138	-226.47
619.339	-230.57
619.54	246.61
619.742	56.15
619.943	33.62
620.144	-31.91
620.345	389.97
620.546	379.73
620.748	-179.37
620.949	-197.8
621.15	123.73
621.351	107.35
621.552	-113.83
621.753	-261.29
621.954	-230.57
622.155	654.16
622.356	-265.38
622.558	0.85
622.759	142.16
622.96	596.81
623.161	-142.5
623.362	-74.92
623.563	76.63
623.764	193.36
623.965	-107.69
624.166	0.85
624.366	68.44
624.567	187.22
624.768	-398.5
624.969	-56.49
625.17	54.1
625.371	193.36
625.572	-23.72
625.773	-187.56
625.973	297.81
626.174	330.58
626.375	-9.39
626.576	-89.26
626.777	379.73
626.977	607.05
627.178	-232.62
627.379	74.58
627.58	201.55
627.78	113.49
627.981	-23.72
628.182	-1.19
628.382	439.12
628.583	-173.22
628.784	-140.46
628.984	95.06
629.185	363.34
629.386	418.64
629.586	-27.82
629.787	-208.04
629.987	240.47
630.188	90.96
630.388	-72.87
630.589	-1.19
630.79	779.08
630.99	136.02
631.191	-44.2
631.391	62.29
631.591	322.38
631.792	590.67
631.992	25.43
632.193	-50.35
632.393	568.14
632.594	262.99
632.794	-177.32
632.994	-7.34
633.195	172.88
633.395	217.94
633.595	-165.03
633.796	99.16
633.996	25.43
634.196	478.03
634.397	-208.04
634.597	-42.15
634.797	-13.48
634.997	594.76
635.198	181.07
635.398	-173.22
635.598	215.89
635.798	428.88
635.998	359.25
636.199	-187.56
636.399	97.11
636.599	-60.59
636.799	-25.77
636.999	164.69
637.199	271.19
637.399	410.45
637.599	-132.26
637.799	17.24
637.999	25.43
638.199	488.27
638.399	-154.79
638.599	-175.27
638.799	254.8
638.999	645.96
639.199	76.63
639.399	43.86
639.599	512.85
639.799	-19.63
639.999	-99.5
640.199	-148.65
640.399	199.51
640.599	340.82
640.799	-52.39
640.998	211.79
641.198	496.46
641.398	340.82
641.598	25.43
641.798	37.72
641.997	1170.24
642.197	150.36
642.397	88.92
642.597	-154.79
642.796	283.47
642.996	523.09
643.196	90.96
643.395	-158.89
643.595	240.47
643.795	-191.66
643.994	-64.68
644.194	103.25
644.394	398.16
644.593	213.84
644.793	-246.95
644.992	27.48
645.192	351.06
645.392	-150.7
645.591	95.06
645.791	7
645.99	310.1
646.19	185.17
646.389	66.39
646.589	31.57
646.788	394.06
646.987	328.53
647.187	207.7
647.386	207.7
647.586	203.6
647.785	332.62
647.984	23.38
648.184	62.29
648.383	125.78
648.582	47.96
648.782	33.62
648.981	174.93
649.18	-36.01
649.38	267.09
649.579	-19.63
649.778	9.05
649.977	330.58
650.177	342.86
650.376	39.76
650.575	-101.55
650.774	664.4
650.973	45.91
651.173	-228.52
651.372	58.2
651.571	357.2
651.77	408.4
651.969	-70.83
652.168	156.5
652.367	-27.82
652.566	228.18
652.765	-66.73
652.964	303.95
653.163	742.22
653.362	209.75
653.561	15.19
653.76	-25.77
653.959	113.49
654.158	267.09
654.357	224.08
654.556	50
654.755	385.87
654.954	410.45
655.153	52.05
655.352	74.58
655.551	498.51
655.749	70.48
655.948	15.19
656.147	113.49
656.346	271.19
656.545	209.75
656.743	115.54
656.942	31.57
657.141	230.23
657.34	-31.91
657.538	19.29
657.737	54.1
657.936	138.07
658.135	338.77
658.333	29.52
658.532	86.87
658.731	611.15
658.929	564.04
659.128	316.24
659.326	17.24
659.525	576.33
659.724	217.94
659.922	-154.79
660.121	-44.2
660.319	346.96
660.518	101.2
660.716	-150.7
660.915	-48.3
661.113	533.33
661.312	-11.43
661.51	103.25
661.709	-27.82
661.907	379.73
662.105	623.44
662.304	58.2
662.502	66.39
662.701	580.43
662.899	181.07
663.097	344.91
663.296	-23.72
663.494	516.94
663.692	598.86
663.891	-42.15
664.089	-33.96
664.287	359.25
664.485	594.76
664.684	-36.01
664.882	138.07
665.08	316.24
665.278	295.76
665.476	-81.07
665.675	316.24
665.873	695.11
666.071	594.76
666.269	35.67
666.467	318.29
666.665	326.48
666.863	344.91
667.061	193.36
667.259	-46.25
667.457	242.51
667.655	500.56
667.853	-44.2
668.051	168.79
668.249	56.15
668.447	484.17
668.645	-23.72
668.843	258.9
669.041	478.03
669.239	213.84
669.437	287.57
669.635	185.17
669.833	172.88
670.031	537.42
670.229	244.56
670.426	119.64
670.624	209.75
670.822	162.64
671.02	72.53
671.218	269.14
671.415	-60.59
671.613	355.15
671.811	189.27
672.009	86.87
672.206	443.21
672.404	389.97
672.602	320.34
672.799	111.44
672.997	418.64
673.195	586.57
673.392	193.36
673.59	21.33
673.788	512.85
673.985	-148.65
674.183	148.31
674.38	101.2
674.578	512.85
674.775	189.27
674.973	-27.82
675.17	-25.77
675.368	731.98
675.565	521.04
675.763	107.35
675.96	-33.96
676.158	627.53
676.355	273.23
676.553	-1.19
676.75	45.91
676.947	359.25
677.145	334.67
677.342	183.12
677.539	242.51
677.737	418.64
677.934	885.58
678.131	326.48
678.329	80.72
678.526	719.69
678.723	516.94
678.92	152.4
679.118	103.25
679.315	39.76
679.512	674.64
679.709	84.82
679.906	265.04
680.104	537.42
680.301	322.38
680.498	25.43
680.695	78.68
680.892	197.46
681.089	277.33
681.286	277.33
681.483	-134.31
681.68	504.65
681.877	506.7
682.075	144.21
682.272	330.58
682.469	547.66
682.665	228.18
682.862	31.57
683.059	-99.5
683.256	426.83
683.453	463.69
683.65	228.18
683.847	226.13
684.044	299.86
684.241	52.05
684.438	228.18
684.635	54.1
684.831	873.29
685.028	815.94
685.225	142.16
685.422	258.9
685.619	275.28
685.815	418.64
686.012	236.37
686.209	301.9
686.405	109.4
686.602	482.13
686.799	21.33
686.996	148.31
687.192	72.53
687.389	815.94
687.586	17.24
687.782	185.17
687.979	654.16
688.175	625.48
688.372	295.76
688.568	138.07
688.765	279.38
688.962	717.64
689.158	332.62
689.355	-17.58
689.551	633.68
689.748	273.23
689.944	258.9
690.14	21.33
690.337	615.24
690.533	318.29
690.73	412.5
690.926	205.65
691.123	518.99
691.319	299.86
691.515	47.96
691.712	336.72
691.908	576.33
692.104	537.42
692.301	346.96
692.497	7
692.693	549.71
692.889	594.76
693.086	394.06
693.282	-1.19
693.478	459.6
693.674	742.22
693.87	254.8
694.067	33.62
694.263	437.07
694.459	377.68
694.655	414.54
694.851	312.14
695.047	574.28
695.243	643.92
695.439	318.29
695.635	150.36
695.831	586.57
696.027	488.27
696.224	90.96
696.42	506.7
696.615	789.32
696.811	580.43
697.007	-27.82
697.203	201.55
697.399	523.09
697.595	697.16
697.791	107.35
697.987	402.26
698.183	160.59
698.379	297.81
698.575	162.64
698.77	248.66
698.966	615.24
699.162	797.51
699.358	222.03
699.554	146.26
699.749	602.96
699.945	639.82
700.141	324.43
700.337	375.63
700.532	447.31
700.728	179.03
700.924	103.25
701.119	113.49
701.315	508.75
701.511	482.13
701.706	267.09
701.902	-11.43
702.097	430.93
702.293	590.67
702.489	267.09
702.684	129.88
702.88	437.07
703.075	324.43
703.271	281.43
703.466	47.96
703.662	494.41
703.857	535.37
704.053	246.61
704.248	303.95
704.443	631.63
704.639	717.64
704.834	234.32
705.03	236.37
705.225	617.29
705.42	731.98
705.616	373.58
705.811	238.42
706.006	414.54
706.202	443.21
706.397	332.62
706.592	183.12
706.787	611.15
706.983	463.69
707.178	529.23
707.373	367.44
707.568	684.87
707.763	688.97
707.959	168.79
708.154	160.59
708.349	613.2
708.544	578.38
708.739	537.42
708.934	113.49
709.129	668.49
709.324	711.5
709.519	222.03
709.714	189.27
709.909	727.88
710.104	641.87
710.299	219.99
710.494	332.62
710.689	637.77
710.884	496.46
711.079	531.28
711.274	637.77
711.469	707.4
711.664	562
711.859	195.41
712.054	332.62
712.249	645.96
712.443	801.61
712.638	111.44
712.833	205.65
713.028	523.09
713.223	447.31
713.417	570.19
713.612	291.66
713.807	623.44
714.002	1061.7
714.196	404.3
714.391	279.38
714.586	774.99
714.78	455.5
714.975	252.75
715.17	291.66
715.364	555.85
715.559	871.24
715.754	60.24
715.948	299.86
716.143	1004.36
716.337	535.37
716.532	562
716.726	258.9
716.921	670.54
717.115	926.54
717.31	238.42
717.504	840.52
717.699	461.65
717.893	820.04
718.088	240.47
718.282	211.79
718.476	590.67
718.671	703.31
718.865	295.76
719.059	269.14
719.254	613.2
719.448	920.39
719.642	1737.53
719.837	101.2
720.031	748.36
720.225	865.1
720.419	381.78
720.614	349.01
720.808	858.95
721.002	467.79
721.196	275.28
721.39	281.43
721.585	942.92
721.779	684.87
721.973	324.43
722.167	170.83
722.361	553.8
722.555	738.12
722.749	332.62
722.943	297.81
723.137	332.62
723.331	693.07
723.525	400.21
723.719	256.85
723.913	734.03
724.107	842.57
724.301	205.65
724.495	408.4
724.689	967.49
724.883	848.71
725.077	392.02
725.271	377.68
725.465	873.29
725.659	553.8
725.853	467.79
726.046	174.93
726.24	365.39
726.434	844.62
726.628	377.68
726.822	430.93
727.015	875.34
727.209	865.1
727.403	394.06
727.596	262.99
727.79	797.51
727.984	877.38
728.177	392.02
728.371	406.35
728.565	801.61
728.758	330.58
728.952	285.52
729.146	303.95
729.339	848.71
729.533	586.57
729.726	349.01
729.92	320.34
730.113	965.45
730.307	766.79
730.5	488.27
730.694	267.09
730.887	482.13
731.081	703.31
731.274	191.31
731.468	385.87
731.661	549.71
731.854	375.63
732.048	260.95
732.241	246.61
732.435	545.61
732.628	656.2
732.821	443.21
733.014	209.75
733.208	383.82
733.401	705.35
733.594	396.11
733.788	387.92
733.981	1000.26
734.174	635.72
734.367	328.53
734.56	580.43
734.754	883.53
734.947	625.48
735.14	275.28
735.333	447.31
735.526	852.81
735.719	629.58
735.912	293.71
736.105	344.91
736.298	615.24
736.491	473.93
736.684	316.24
736.877	385.87
737.07	774.99
737.263	953.16
737.456	518.99
737.649	301.9
737.842	557.9
738.035	664.4
738.228	549.71
738.421	465.74
738.614	914.25
738.807	817.99
739	262.99
739.192	324.43
739.385	766.79
739.578	742.22
739.771	662.35
739.964	351.06
740.156	760.65
740.349	607.05
740.542	607.05
740.735	320.34
740.927	353.1
741.12	367.44
741.313	308.05
741.505	508.75
741.698	703.31
741.891	736.07
742.083	656.2
742.276	449.36
742.468	684.87
742.661	600.91
742.854	441.17
743.046	303.95
743.239	1104.71
743.431	596.81
743.624	535.37
743.816	287.57
744.009	547.66
744.201	764.75
744.393	643.92
744.586	379.73
744.778	889.67
744.971	619.34
745.163	490.32
745.355	539.47
745.548	676.68
745.74	545.61
745.932	471.89
746.125	418.64
746.317	1205.06
746.509	695.11
746.702	432.97
746.894	521.04
747.086	789.32
747.278	1008.45
747.471	539.47
747.663	545.61
747.855	779.08
748.047	1051.46
748.239	447.31
748.431	498.51
748.623	1178.44
748.815	1047.37
749.008	301.9
749.2	484.17
749.392	844.62
749.584	760.65
749.776	488.27
749.968	584.52
750.16	1145.67
750.352	611.15
750.544	566.09
750.736	355.15
750.928	795.47
751.12	758.6
751.311	475.98
751.503	512.85
751.695	684.87
751.887	709.45
752.079	258.9
752.271	492.37
752.463	1416
752.654	852.81
752.846	518.99
753.038	430.93
753.23	572.24
753.421	815.94
753.613	572.24
753.805	586.57
753.997	916.3
754.188	889.67
754.38	451.41
754.572	432.97
754.763	629.58
754.955	828.23
755.146	574.28
755.338	562
755.53	854.86
755.721	576.33
755.913	351.06
756.104	422.73
756.296	758.6
756.487	959.3
756.679	447.31
756.87	525.13
757.062	559.95
757.253	955.21
757.445	521.04
757.636	609.1
757.827	705.35
758.019	1327.94
758.21	496.46
758.401	490.32
758.593	1188.68
758.784	1037.13
758.975	232.27
759.167	416.59
759.358	742.22
759.549	990.02
759.74	488.27
759.932	459.6
760.123	1110.85
760.314	518.99
760.505	697.16
760.696	496.46
760.888	1276.74
761.079	742.22
761.27	342.86
761.461	404.3
761.652	1153.86
761.843	686.92
762.034	594.76
762.225	742.22
762.416	787.27
762.607	791.37
762.798	574.28
762.989	471.89
763.18	1489.73
763.371	695.11
763.562	545.61
763.753	619.34
763.944	992.07
764.135	983.88
764.326	627.53
764.517	547.66
764.708	789.32
764.899	930.63
765.089	457.55
765.28	412.5
765.471	861
765.662	820.04
765.853	662.35
766.043	349.01
766.234	916.3
766.425	1028.93
766.615	478.03
766.806	400.21
766.997	1035.08
767.187	844.62
767.378	568.14
767.569	289.62
767.759	967.49
767.95	834.38
768.141	668.49
768.331	512.85
768.522	832.33
768.712	899.91
768.903	422.73
769.093	398.16
769.284	1135.43
769.474	983.88
769.665	394.06
769.855	320.34
770.046	975.69
770.236	637.77
770.426	691.02
770.617	394.06
770.807	865.1
770.998	785.23
771.188	643.92
771.378	482.13
771.569	975.69
771.759	932.68
771.949	430.93
772.139	338.77
772.33	854.86
772.52	1110.85
772.71	496.46
772.9	340.82
773.09	1186.63
773.281	1090.37
773.471	478.03
773.661	539.47
773.851	1102.66
774.041	652.11
774.231	441.17
774.421	680.78
774.611	1235.78
774.802	834.38
774.992	648.01
775.182	453.45
775.372	824.14
775.562	947.01
775.752	514.89
775.942	629.58
776.131	1151.81
776.321	879.43
776.511	584.52
776.701	353.1
776.891	1088.32
777.081	578.38
777.271	559.95
777.461	490.32
777.651	955.21
777.84	971.59
778.03	709.45
778.22	598.86
778.41	1061.7
778.599	729.93
778.789	650.06
778.979	523.09
779.169	996.17
779.358	881.48
779.548	777.03
779.738	430.93
779.927	881.48
780.117	582.48
780.307	553.8
780.496	404.3
780.686	924.49
780.875	1266.5
781.065	537.42
781.254	527.18
781.444	912.2
781.633	928.58
781.823	506.7
782.012	514.89
782.202	807.75
782.391	795.47
782.581	420.69
782.77	715.59
782.96	973.64
783.149	809.8
783.338	531.28
783.528	375.63
783.717	981.83
783.906	1198.92
784.096	674.64
784.285	488.27
784.474	764.75
784.663	553.8
784.853	494.41
785.042	598.86
785.231	703.31
785.42	1069.89
785.61	652.11
785.799	463.69
785.988	648.01
786.177	824.14
786.366	598.86
786.555	738.12
786.744	1270.59
786.933	740.17
787.122	490.32
787.312	469.84
787.501	537.42
787.69	899.91
787.879	562
788.068	463.69
788.257	600.91
788.445	709.45
788.634	539.47
788.823	553.8
789.012	1465.15
789.201	1135.43
789.39	621.39
789.579	578.38
789.768	734.03
789.957	906.06
790.145	521.04
790.334	312.14
790.523	803.66
790.712	791.37
790.9	592.72
791.089	406.35
791.278	1047.37
791.467	881.48
791.655	947.01
791.844	1094.47
792.033	713.55
792.221	738.12
792.41	643.92
792.599	424.78
792.787	951.11
792.976	1073.99
793.164	467.79
793.353	490.32
793.541	1090.37
793.73	1022.79
793.918	621.39
794.107	562
794.295	820.04
794.484	893.77
794.672	584.52
794.861	574.28
795.049	1000.26
795.238	1319.75
795.426	398.16
795.614	576.33
795.803	965.45
795.991	1145.67
796.179	643.92
796.368	619.34
796.556	1110.85
796.744	674.64
796.932	607.05
797.121	566.09
797.309	899.91
797.497	1012.55
797.685	635.72
797.874	484.17
798.062	768.84
798.25	1143.62
798.438	500.56
798.626	527.18
798.814	924.49
799.002	1383.23
799.19	717.64
799.378	615.24
799.566	1133.38
799.755	1215.3
799.943	805.71
800.131	611.15
800.318	971.59
800.506	869.19
800.694	580.43
800.882	897.86
801.07	1166.15
801.258	838.47
801.446	701.26
801.634	609.1
801.822	879.43
802.01	912.2
802.197	709.45
802.385	676.68
802.573	1022.79
802.761	721.74
802.949	701.26
803.136	443.21
803.324	1090.37
803.512	840.52
803.699	715.59
803.887	521.04
804.075	1180.48
804.262	758.6
804.45	514.89
804.638	650.06
804.825	711.5
805.013	828.23
805.201	723.79
805.388	508.75
805.576	922.44
805.763	1502.01
805.951	734.03
806.138	901.96
806.326	1411.9
806.513	1067.85
806.701	664.4
806.888	674.64
807.075	959.3
807.263	1286.98
807.45	545.61
807.638	787.27
807.825	1291.07
808.012	1145.67
808.2	711.5
808.387	865.1
808.574	1088.32
808.761	1307.46
808.949	586.57
809.136	754.51
809.323	830.28
809.51	893.77
809.698	959.3
809.885	944.97
810.072	977.73
810.259	1227.59
810.446	756.55
810.633	641.87
810.82	1190.72
811.008	1293.12
811.195	910.15
811.382	701.26
811.569	1037.13
811.756	734.03
811.943	901.96
812.13	799.56
812.317	795.47
812.504	893.77
812.691	883.53
812.878	758.6
813.064	1266.5
813.251	1178.44
813.438	580.43
813.625	908.1
813.812	920.39
813.999	969.54
814.186	729.93
814.372	815.94
814.559	1008.45
814.746	1370.94
814.933	762.7
815.12	1049.41
815.306	873.29
815.493	899.91
815.68	781.13
815.866	785.23
816.053	1413.95
816.24	1526.59
816.426	893.77
816.613	705.35
816.799	1293.12
816.986	1317.7
817.173	774.99
817.359	840.52
817.546	1092.42
817.732	678.73
817.919	574.28
818.105	912.2
818.292	963.4
818.478	1284.93
818.665	910.15
818.851	768.84
819.037	1661.76
819.224	1211.2
819.41	703.31
819.597	639.82
819.783	1372.99
819.969	1307.46
820.156	797.51
820.342	574.28
820.528	1870.65
820.714	1080.13
820.901	1033.03
821.087	746.31
821.273	1508.16
821.459	979.78
821.646	660.3
821.832	750.41
822.018	1037.13
822.204	1264.45
822.39	725.83
822.576	754.51
822.762	1229.63
822.948	1037.13
823.134	944.97
823.32	748.36
823.507	844.62
823.693	1043.27
823.879	1213.25
824.065	750.41
824.25	1121.09
824.436	795.47
824.622	770.89
824.808	613.2
824.994	992.07
825.18	783.18
825.366	729.93
825.552	713.55
825.738	1022.79
825.923	1321.79
826.109	1088.32
826.295	750.41
826.481	908.1
826.667	965.45
826.852	1028.93
827.038	783.18
827.224	1356.61
827.409	1411.9
827.595	748.36
827.781	1008.45
827.966	1301.31
828.152	1317.7
828.338	783.18
828.523	703.31
828.709	805.71
828.894	1405.76
829.08	803.66
829.266	750.41
829.451	1024.84
829.637	1227.59
829.822	971.59
830.008	811.85
830.193	1289.03
830.378	1409.86
830.564	893.77
830.749	813.9
830.935	1209.15
831.12	1221.44
831.305	783.18
831.491	934.73
831.676	797.51
831.861	1205.06
832.047	848.71
832.232	635.72
832.417	1256.26
832.602	1008.45
832.788	779.08
832.973	781.13
833.158	1028.93
833.343	1233.73
833.528	856.9
833.714	863.05
833.899	1354.56
834.084	1518.4
834.269	977.73
834.454	865.1
834.639	1315.65
834.824	1078.08
835.009	875.34
835.194	1012.55
835.379	1311.55
835.564	1463.1
835.749	1024.84
835.934	676.68
836.119	1291.07
836.304	1069.89
836.489	815.94
836.674	1102.66
836.859	926.54
837.044	1391.42
837.228	865.1
837.413	834.38
837.598	1225.54
837.783	1323.84
837.968	916.3
838.152	662.35
838.337	623.44
838.522	1467.2
838.707	1332.03
838.891	992.07
839.076	1213.25
839.261	1405.76
839.445	889.67
839.63	875.34
839.815	1432.38
839.999	1080.13
840.184	844.62
840.368	813.9
840.553	1309.51
840.737	1368.9
840.922	725.83
841.106	731.98
841.291	760.65
841.475	1221.44
841.66	795.47
841.844	904.01
842.029	1872.7
842.213	721.74
842.397	824.14
842.582	715.59
842.766	1334.08
842.951	1282.88
843.135	901.96
843.319	965.45
843.504	1168.2
843.688	1497.92
843.872	625.48
844.056	729.93
844.241	1188.68
844.425	1002.31
844.609	1033.03
844.793	678.73
844.977	1301.31
845.161	1237.83
845.346	725.83
845.53	777.03
845.714	1145.67
845.898	1473.34
846.082	701.26
846.266	883.53
846.45	1131.33
846.634	1069.89
846.818	842.57
847.002	963.4
847.186	1231.68
847.37	1020.74
847.554	746.31
847.738	893.77
847.922	1133.38
848.106	1176.39
848.29	799.56
848.473	785.23
848.657	1241.92
848.841	1002.31
849.025	897.86
849.209	633.68
849.392	1172.29
849.576	1055.56
849.76	652.11
849.944	1024.84
850.127	1463.1
850.311	828.23
850.495	682.83
850.678	666.44
850.862	1514.3
851.046	1553.21
851.229	1143.62
851.413	764.75
851.596	1131.33
851.78	1049.41
851.964	918.34
852.147	914.25
852.331	1776.44
852.514	1432.38
852.698	895.82
852.881	727.88
853.065	1377.09
853.248	1209.15
853.431	1018.69
853.615	955.21
853.798	1600.32
853.982	1215.3
854.165	1024.84
854.348	844.62
854.532	957.25
854.715	967.49
854.898	930.63
855.081	904.01
855.265	1454.91
855.448	1430.34
855.631	824.14
855.814	830.28
855.997	1340.22
856.181	1125.19
856.364	936.78
856.547	709.45
856.73	1076.04
856.913	1203.01
857.096	711.5
857.279	922.44
857.462	1076.04
857.645	1342.27
857.828	934.73
858.011	1002.31
858.194	1094.47
858.377	1303.36
858.56	811.85
858.743	928.58
858.926	910.15
859.109	1278.79
859.292	875.34
859.475	662.35
859.658	1375.04
859.841	1389.38
860.023	768.84
860.206	750.41
860.389	1223.49
860.572	1483.58
860.755	832.33
860.937	799.56
861.12	1069.89
861.303	1057.61
861.486	930.63
861.668	791.37
861.851	1184.58
862.034	1162.05
862.216	1094.47
862.399	648.01
862.581	1313.6
862.764	1489.73
862.947	1024.84
863.129	832.33
863.312	805.71
863.494	1614.65
863.677	1086.28
863.859	701.26
864.042	1323.84
864.224	1499.97
864.406	924.49
864.589	801.61
864.771	1311.55
864.954	947.01
865.136	768.84
865.318	676.68
865.501	1299.27
865.683	637.77
865.865	795.47
866.048	785.23
866.23	1106.76
866.412	1094.47
866.594	779.08
866.777	1055.56
866.959	1231.68
867.141	965.45
867.323	1055.56
867.505	895.82
867.687	1080.13
867.869	1194.82
868.052	793.42
868.234	779.08
868.416	1080.13
868.598	1254.21
868.78	865.1
868.962	791.37
869.144	1432.38
869.326	1426.24
869.508	897.86
869.69	770.89
869.872	883.53
870.054	1479.49
870.236	781.13
870.417	854.86
870.599	1098.56
870.781	1538.88
870.963	906.06
871.145	848.71
871.327	799.56
871.508	1426.24
871.69	973.64
871.872	934.73
872.054	1170.24
872.235	1346.37
872.417	955.21
872.599	768.84
872.78	1561.41
872.962	1237.83
873.144	701.26
873.325	777.03
873.507	1532.73
873.689	1231.68
873.87	766.79
874.052	985.93
874.233	1241.92
874.415	1250.11
874.596	910.15
874.778	869.19
874.959	1262.4
875.141	1381.18
875.322	844.62
875.503	869.19
875.685	1248.07
875.866	697.16
876.048	799.56
876.229	742.22
876.41	1119.04
876.592	1190.72
876.773	832.33
876.954	693.07
877.136	1473.34
877.317	1094.47
877.498	688.97
877.679	977.73
877.86	1235.78
878.042	1110.85
878.223	889.67
878.404	1149.76
878.585	1375.04
878.766	1600.32
878.947	1211.2
879.128	1090.37
879.309	1413.95
879.49	1459.01
879.672	1000.26
879.853	971.59
880.034	969.54
880.215	1108.8
880.396	1094.47
880.576	938.82
880.757	848.71
880.938	1506.11
881.119	910.15
881.3	881.48
881.481	1030.98
881.662	1983.29
881.843	826.18
882.023	811.85
882.204	1332.03
882.385	1200.96
882.566	826.18
882.747	930.63
882.927	1153.86
883.108	1186.63
883.289	858.95
883.469	1090.37
883.65	1041.22
883.831	1069.89
884.011	1217.35
884.192	971.59
884.373	1399.62
884.553	1323.84
884.734	1104.71
884.914	1266.5
885.095	1901.37
885.275	1594.17
885.456	1223.49
885.636	713.55
885.817	1192.77
885.997	1198.92
886.178	887.62
886.358	955.21
886.538	1360.7
886.719	2181.94
886.899	1026.89
887.08	1006.41
887.26	1487.68
887.44	1168.2
887.621	836.42
887.801	1188.68
887.981	1880.89
888.161	1504.06
888.342	1049.41
888.522	1020.74
888.702	1524.54
888.882	1573.69
889.062	1203.01
889.242	815.94
889.423	1614.65
889.603	1545.02
889.783	1121.09
889.963	1028.93
890.143	1518.4
890.323	1563.45
890.503	1043.27
890.683	1055.56
890.863	1377.09
891.043	1344.32
891.223	1237.83
891.403	1307.46
891.583	1323.84
891.763	1313.6
891.943	1090.37
892.122	1084.23
892.302	1360.7
892.482	1356.61
892.662	1198.92
892.842	1104.71
893.022	1418.05
893.201	1325.89
893.381	1336.13
893.561	1022.79
893.741	1561.41
893.92	1463.1
894.1	1114.95
894.28	1225.54
894.459	1659.71
894.639	1379.14
894.819	1049.41
894.998	1256.26
895.178	1454.91
895.357	1418.05
895.537	1133.38
895.716	1008.45
895.896	1432.38
896.075	1731.39
896.255	1227.59
896.434	981.83
896.614	1682.24
896.793	1637.18
896.973	1334.08
897.152	1223.49
897.331	1538.88
897.511	1706.81
897.69	996.17
897.87	1157.96
898.049	1481.53
898.228	1350.46
898.407	1329.99
898.587	1278.79
898.766	1250.11
898.945	1610.56
899.124	1270.59
899.304	1254.21
899.483	1561.41
899.662	1844.03
899.841	1205.06
900.02	1090.37
900.199	1833.79
900.378	1461.06
900.557	1078.08
900.737	1084.23
900.916	1528.64
901.095	1602.36
901.274	1389.38
901.453	1053.51
901.632	1235.78
901.811	1350.46
901.989	1055.56
902.168	1051.46
902.347	1585.98
902.526	1315.65
902.705	1178.44
902.884	1375.04
903.063	1682.24
903.242	1631.04
903.42	1022.79
903.599	1233.73
903.778	1667.9
903.957	1874.74
904.135	1137.48
904.314	1200.96
904.493	1413.95
904.672	1594.17
904.85	1200.96
905.029	1139.52
905.207	1416
905.386	2134.84
905.565	942.92
905.743	1061.7
905.922	1315.65
906.1	1512.25
906.279	1080.13
906.457	1112.9
906.636	1243.97
906.814	1360.7
906.993	1110.85
907.171	942.92
907.35	1549.12
907.528	1667.9
907.707	1389.38
907.885	1028.93
908.063	1868.6
908.242	1223.49
908.42	1092.42
908.598	848.71
908.777	1485.63
908.955	1336.13
909.133	1241.92
909.311	1080.13
909.49	1354.56
909.668	1381.18
909.846	1110.85
910.024	877.38
910.202	1354.56
910.38	1532.73
910.559	1004.36
910.737	1000.26
910.915	1510.21
911.093	1407.81
911.271	1139.52
911.449	1282.88
911.627	1540.93
911.805	1858.36
911.983	1061.7
912.161	1090.37
912.339	1459.01
912.517	1737.53
912.695	1207.11
912.872	1143.62
913.05	1284.93
913.228	1491.77
913.406	1184.58
913.584	1055.56
913.762	1499.97
913.939	1160
914.117	992.07
914.295	922.44
914.473	1452.86
914.65	1463.1
914.828	1037.13
915.006	1078.08
915.184	1098.56
915.361	1403.71
915.539	1391.42
915.716	1487.68
915.894	1440.58
916.072	1520.45
916.249	1321.79
916.427	1280.83
916.604	1114.95
916.782	1499.97
916.959	1004.36
917.137	1155.91
917.314	1387.33
917.492	1475.39
917.669	1225.54
917.847	1221.44
918.024	1528.64
918.201	1092.42
918.379	1125.19
918.556	1110.85
918.733	1631.04
918.911	1241.92
919.088	1307.46
919.265	1096.52
919.442	1393.47
919.62	1284.93
919.797	967.49
919.974	869.19
920.151	1385.28
920.328	1356.61
920.506	940.87
920.683	1264.45
920.86	1117
921.037	1215.3
921.214	1147.72
921.391	1000.26
921.568	1532.73
921.745	1043.27
921.922	1141.57
922.099	944.97
922.276	1524.54
922.453	1381.18
922.63	889.67
922.807	1336.13
922.984	1372.99
923.161	1168.2
923.338	979.78
923.514	981.83
923.691	1336.13
923.868	1336.13
924.045	916.3
924.222	891.72
924.399	1401.66
924.575	1465.15
924.752	1123.14
924.929	1098.56
925.105	1344.32
925.282	1024.84
925.459	975.69
925.635	1104.71
925.812	1178.44
925.989	1082.18
926.165	1188.68
926.342	887.62
926.518	910.15
926.695	1278.79
926.871	885.58
927.048	813.9
927.224	1348.42
927.401	1065.8
927.577	951.11
927.754	832.33
927.93	1442.62
928.107	1280.83
928.283	822.09
928.459	987.97
928.636	1282.88
928.812	1192.77
928.988	887.62
929.165	852.81
929.341	1256.26
929.517	1157.96
929.693	1133.38
929.87	693.07
930.046	1209.15
930.222	1010.5
930.398	889.67
930.574	1024.84
930.751	1172.29
930.927	979.78
931.103	973.64
931.279	932.68
931.455	901.96
931.631	1211.2
931.807	656.2
931.983	721.74
932.159	815.94
932.335	1155.91
932.511	895.82
932.687	879.43
932.863	1135.43
933.039	1176.39
933.215	641.87
933.391	721.74
933.566	1092.42
933.742	1090.37
933.918	742.22
934.094	643.92
934.27	1045.32
934.445	1047.37
934.621	785.23
934.797	744.27
934.973	1194.82
935.148	1053.51
935.324	691.02
935.5	459.6
935.675	1200.96
935.851	1055.56
936.027	832.33
936.202	852.81
936.378	1168.2
936.553	969.54
936.729	1010.5
936.904	586.57
937.08	602.96
937.255	768.84
937.431	639.82
937.606	596.81
937.782	752.46
937.957	783.18
938.133	731.98
938.308	562
938.483	916.3
938.659	568.14
938.834	703.31
939.009	402.26
939.185	781.13
939.36	658.25
939.535	215.89
939.71	654.16
939.886	951.11
940.061	928.58
940.236	701.26
940.411	553.8
940.586	783.18
940.761	883.53
940.937	449.36
941.112	349.01
941.287	781.13
941.462	742.22
941.637	361.3
941.812	404.3
941.987	858.95
942.162	697.16
942.337	553.8
942.512	402.26
942.687	779.08
942.862	815.94
943.037	316.24
943.212	25.43
943.386	576.33
943.561	707.4
943.736	699.21
943.911	774.99
944.086	762.7
944.26	736.07
944.435	482.13
944.61	594.76
944.785	906.06
944.959	1049.41
945.134	512.85
945.309	340.82
945.483	496.46
945.658	895.82
945.833	113.49
946.007	316.24
946.182	977.73
946.357	416.59
946.531	355.15
946.706	285.52
946.88	258.9
947.055	701.26
947.229	398.16
947.404	285.52
947.578	795.47
947.752	551.76
947.927	254.8
948.101	224.08
948.276	578.38
948.45	635.72
948.624	568.14
948.799	365.39
948.973	721.74
949.147	418.64
949.321	418.64
949.496	324.43
949.67	861
949.844	590.67
950.018	387.92
950.193	416.59
950.367	1170.24
950.541	590.67
950.715	492.37
950.889	586.57
951.063	568.14
951.237	832.33
951.411	105.3
951.585	162.64
951.759	672.59
951.933	670.54
952.107	392.02
952.281	557.9
952.455	904.01
952.629	762.7
952.803	316.24
952.977	400.21
953.151	795.47
953.325	734.03
953.499	586.57
953.672	283.47
953.846	396.11
954.02	602.96
954.194	308.05
954.368	355.15
954.541	734.03
954.715	428.88
954.889	408.4
955.062	232.27
955.236	523.09
955.41	492.37
955.583	473.93
955.757	236.37
955.93	541.52
956.104	312.14
956.278	373.58
956.451	269.14
956.625	709.45
956.798	1065.8
956.972	656.2
957.145	291.66
957.319	607.05
957.492	525.13
957.665	564.04
957.839	332.62
958.012	736.07
958.185	527.18
958.359	363.34
958.532	531.28
958.705	824.14
958.879	754.51
959.052	484.17
959.225	232.27
959.398	611.15
959.572	594.76
959.745	314.19
959.918	365.39
960.091	547.66
960.264	709.45
960.438	219.99
960.611	316.24
960.784	840.52
960.957	367.44
961.13	725.83
961.303	271.19
961.476	635.72
961.649	914.25
961.822	289.62
961.995	371.54
962.168	654.16
962.341	580.43
962.514	338.77
962.686	344.91
962.859	574.28
963.032	734.03
963.205	351.06
963.378	107.35
963.551	662.35
963.723	621.39
963.896	496.46
964.069	475.98
964.242	559.95
964.414	740.17
964.587	445.26
964.76	496.46
964.932	680.78
965.105	541.52
965.278	418.64
965.45	336.72
965.623	635.72
965.795	734.03
965.968	482.13
966.14	310.1
966.313	471.89
966.485	693.07
966.658	318.29
966.83	336.72
967.003	926.54
967.175	801.61
967.348	375.63
967.52	420.69
967.692	891.72
967.865	697.16
968.037	447.31
968.209	623.44
968.382	631.63
968.554	846.66
968.726	365.39
968.898	351.06
969.071	617.29
969.243	772.94
969.415	267.09
969.587	383.82
969.759	1078.08
969.932	764.75
970.104	383.82
970.276	140.12
970.448	504.65
970.62	455.5
970.792	518.99
970.964	451.41
971.136	1086.28
971.308	746.31
971.48	328.53
971.652	455.5
971.824	1008.45
971.996	430.93
972.168	430.93
972.339	355.15
972.511	797.51
972.683	586.57
972.855	586.57
973.027	365.39
973.199	617.29
973.37	711.5
973.542	590.67
973.714	496.46
973.886	627.53
974.057	779.08
974.229	279.38
974.401	334.67
974.572	285.52
974.744	136.02
974.915	262.99
975.087	285.52
975.259	930.63
975.43	457.55
975.602	308.05
975.773	336.72
975.945	344.91
976.116	822.09
976.288	273.23
976.459	500.56
976.63	426.83
976.802	652.11
976.973	308.05
977.145	439.12
977.316	996.17
977.487	901.96
977.659	420.69
977.83	373.58
978.001	983.88
978.172	701.26
978.344	267.09
978.515	363.34
978.686	463.69
978.857	879.43
979.028	414.54
979.2	244.56
979.371	848.71
979.542	574.28
979.713	469.84
979.884	74.58
980.055	379.73
980.226	551.76
980.397	285.52
980.568	258.9
980.739	725.83
980.91	473.93
981.081	549.71
981.252	213.84
981.423	734.03
981.594	766.79
981.765	113.49
981.936	500.56
982.106	551.76
982.277	844.62
982.448	215.89
982.619	529.23
982.79	410.45
982.96	832.33
983.131	430.93
983.302	154.45
983.472	406.35
983.643	617.29
983.814	416.59
983.984	338.77
984.155	441.17
984.326	803.66
984.496	496.46
984.667	312.14
984.837	371.54
985.008	662.35
985.178	504.65
985.349	398.16
985.519	430.93
985.69	381.78
985.86	402.26
986.031	244.56
986.201	633.68
986.371	590.67
986.542	179.03
986.712	0.85
986.882	660.3
987.053	680.78
987.223	193.36
987.393	424.78
987.563	439.12
987.734	717.64
987.904	627.53
988.074	287.57
988.244	574.28
988.414	279.38
988.585	213.84
988.755	381.78
988.925	500.56
989.095	875.34
989.265	222.03
989.435	281.43
989.605	680.78
989.775	621.39
989.945	598.86
990.115	74.58
990.285	484.17
990.455	531.28
990.625	371.54
990.795	211.79
990.965	854.86
991.134	349.01
991.304	222.03
991.474	295.76
991.644	584.52
991.814	861
991.984	80.72
992.153	228.18
992.323	447.31
992.493	527.18
992.662	27.48
992.832	430.93
993.002	508.75
993.171	473.93
993.341	66.39
993.511	355.15
993.68	332.62
993.85	674.64
994.019	123.73
994.189	111.44
994.358	564.04
994.528	453.45
994.697	-97.45
994.867	78.68
995.036	699.21
995.206	422.73
995.375	82.77
995.544	336.72
995.714	525.13
995.883	340.82
996.052	424.78
996.222	-13.48
996.391	949.06
996.56	535.37
996.73	105.3
996.899	33.62
997.068	815.94
997.237	435.02
997.406	129.88
997.576	7
997.745	555.85
997.914	488.27
998.083	2.9
998.252	219.99
998.421	531.28
998.59	248.66
998.759	62.29
998.928	-40.11
999.097	815.94
999.266	484.17
999.435	295.76
999.604	-23.72
999.773	815.94
999.942	406.35
1000.111	4.95
1000.28	15.19
1000.448	181.07
1000.617	211.79
1000.786	277.33
1000.955	-27.82
1001.124	414.54
1001.292	1045.32
1001.461	50
1001.63	19.29
1001.798	828.23
1001.967	779.08
1002.136	-56.49
1002.304	21.33
1002.473	498.51
1002.642	410.45
1002.81	185.17
1002.979	29.52
1003.147	611.15
1003.316	990.02
1003.484	146.26
1003.653	64.34
1003.821	699.21
1003.99	346.96
1004.158	254.8
1004.327	228.18
1004.495	514.89
1004.663	213.84
1004.832	224.08
1005	-89.26
1005.168	584.52
1005.337	471.89
1005.505	-79.02
1005.673	320.34
1005.842	494.41
1006.01	396.11
1006.178	29.52
1006.346	74.58
1006.514	551.76
1006.683	713.55
1006.851	50
1007.019	-97.45
1007.187	123.73
1007.355	-1.19
1007.523	-74.92
1007.691	-19.63
1007.859	29.52
1008.027	684.87
1008.195	37.72
1008.363	-113.83
1008.531	619.34
1008.699	230.23
1008.867	-81.07
1009.035	101.2
1009.203	803.66
1009.37	346.96
1009.538	119.64
1009.706	551.76
1009.874	478.03
1010.042	295.76
1010.209	50
1010.377	76.63
1010.545	586.57
1010.713	392.02
1010.88	9.05
1011.048	86.87
1011.216	236.37
1011.383	750.41
1011.551	-7.34
1011.718	-1.19
1011.886	598.86
1012.054	365.39
1012.221	-5.29
1012.389	-27.82
1012.556	295.76
1012.724	783.18
1012.891	41.81
1013.058	-117.93
1013.226	514.89
1013.393	633.68
1013.561	-132.26
1013.728	-167.08
1013.895	574.28
1014.063	537.42
1014.23	-119.98
1014.397	-97.45
1014.565	627.53
1014.732	271.19
1014.899	-17.58
1015.066	-109.74
1015.233	408.4
1015.401	574.28
1015.568	62.29
1015.735	168.79
1015.902	332.62
1016.069	441.17
1016.236	21.33
1016.403	-48.3
1016.57	129.88
1016.737	588.62
1016.904	66.39
1017.071	-109.74
1017.238	168.79
1017.405	562
1017.572	-25.77
1017.739	156.5
1017.906	521.04
1018.073	656.2
1018.24	-113.83
1018.407	101.2
1018.573	582.48
1018.74	303.95
1018.907	17.24
1019.074	-130.22
1019.241	557.9
1019.407	359.25
1019.574	-58.54
1019.741	-109.74
1019.907	385.87
1020.074	426.83
1020.241	-242.85
1020.407	-60.59
1020.574	445.26
1020.74	457.55
1020.907	93.01
1021.073	-101.55
1021.24	899.91
1021.406	703.31
1021.573	-87.21
1021.739	-56.49
1021.906	588.62
1022.072	246.61
1022.239	-64.68
1022.405	15.19
1022.571	289.62
1022.738	101.2
1022.904	-42.15
1023.07	-1.19
1023.237	330.58
1023.403	652.11
1023.569	-48.3
1023.735	64.34
1023.902	402.26
1024.068	389.97
1024.234	-218.28
1024.4	-68.78
1024.566	455.5
1024.732	525.13
1024.898	-165.03
1025.065	-191.66
1025.231	416.59
1025.397	217.94
1025.563	-42.15
1025.729	-150.7
1025.895	-117.93
1026.061	109.4
1026.227	-203.94
1026.392	-3.24
1026.558	648.01
1026.724	461.65
1026.89	-66.73
1027.056	-19.63
1027.222	463.69
1027.388	162.64
1027.553	-105.64
1027.719	-17.58
1027.885	602.96
1028.051	424.78
1028.216	-316.58
1028.382	-40.11
1028.548	564.04
1028.713	133.97
1028.879	-132.26
1029.045	39.76
1029.21	627.53
1029.376	521.04
1029.541	41.81
1029.707	-79.02
1029.873	555.85
1030.038	559.95
1030.204	-58.54
1030.369	-76.97
1030.534	473.93
1030.7	252.75
1030.865	-42.15
1031.031	-76.97
1031.196	447.31
1031.361	326.48
1031.527	-124.07
1031.692	-93.35
1031.857	-21.67
1032.023	469.84
1032.188	-212.14
1032.353	-58.54
1032.518	629.58
1032.684	422.73
1032.849	-179.37
1033.014	-27.82
1033.179	455.5
1033.344	361.3
1033.509	-9.39
1033.674	-97.45
1033.839	459.6
1034.004	471.89
1034.17	-74.92
1034.335	-210.09
1034.5	234.32
1034.664	125.78
1034.829	-189.61
1034.994	-68.78
1035.159	275.28
1035.324	392.02
1035.489	-54.44
1035.654	-150.7
1035.819	576.33
1035.984	326.48
1036.148	-72.87
1036.313	-126.12
1036.478	414.54
1036.643	217.94
1036.807	-140.46
1036.972	-142.5
1037.137	613.2
1037.301	295.76
1037.466	-246.95
1037.631	21.33
1037.795	615.24
1037.96	353.1
1038.124	43.86
1038.289	-285.86
1038.454	469.84
1038.618	349.01
1038.783	-79.02
1038.947	29.52
1039.111	353.1
1039.276	224.08
1039.44	-148.65
1039.605	369.49
1039.769	236.37
1039.933	213.84
1040.098	19.29
1040.262	136.02
1040.426	510.8
1040.591	416.59
1040.755	-173.22
1040.919	-58.54
1041.083	455.5
1041.248	201.55
1041.412	-310.44
1041.576	-222.38
1041.74	242.51
1041.904	486.22
1042.068	-181.42
1042.232	-56.49
1042.397	508.75
1042.561	398.16
1042.725	-292.01
1042.889	115.54
1043.053	506.7
1043.217	387.92
1043.381	-5.29
1043.544	-124.07
1043.708	572.24
1043.872	9.05
1044.036	-341.16
1044.2	-224.42
1044.364	529.23
1044.528	650.06
1044.691	3207.97
1044.855	-265.38
1045.019	521.04
1045.183	428.88
1045.346	-126.12
1045.51	-191.66
1045.674	381.78
1045.837	430.93
1046.001	-142.5
1046.165	-146.6
1046.328	836.42
1046.492	373.58
1046.655	-21.67
1046.819	-38.06
1046.983	189.27
1047.146	449.36
1047.31	-83.11
1047.473	-273.57
1047.636	310.1
1047.8	82.77
1047.963	-52.39
1048.127	-134.31
1048.29	113.49
