Data from Ink_Intensity_USB4F045381__177__00177.txt Node

Date: Mon Jul 17 11:41:06 EDT 2023
User: mmckonesweet
Spectrometer: USB4F04538
Trigger mode: 4
Integration Time (sec): 9.000000E-1
Scans to average: 1
Electric dark correction enabled: true
Nonlinearity correction enabled: false
Boxcar width: 0
XAxis mode: Wavelengths
Number of Pixels in Spectrum: 3648
>>>>>Begin Spectral Data<<<<<
345.52	-1069.38
345.736	-1069.38
345.952	-1069.38
346.168	-1083.72
346.384	-979.27
346.6	-110.93
346.816	-268.63
347.032	-188.75
347.248	251.56
347.464	-203.09
347.68	-141.65
347.896	106.15
348.112	446.12
348.328	-65.88
348.544	-119.12
348.76	87.72
348.975	206.5
349.191	-196.95
349.407	-254.29
349.623	20.14
349.839	-72.02
350.055	-106.84
350.27	-41.3
350.486	116.39
350.702	294.57
350.918	163.5
351.133	-176.47
351.349	183.98
351.565	394.92
351.781	-213.33
351.996	-35.16
352.212	237.22
352.428	-194.9
352.644	-194.9
352.859	-291.15
353.075	237.22
353.291	126.63
353.506	-176.47
353.722	-289.1
353.938	-80.21
354.153	489.12
354.369	57
354.584	-229.71
354.8	208.55
355.016	-389.46
355.231	-303.44
355.447	-47.44
355.662	140.97
355.878	777.89
356.093	-325.97
356.309	-92.5
356.524	-196.95
356.74	198.31
356.955	-168.27
357.171	-82.26
357.386	77.48
357.602	-297.3
357.817	-76.12
358.033	-242
358.248	360.1
358.464	81.58
358.679	-198.99
358.895	-383.31
359.11	-49.49
359.325	249.51
359.541	46.76
359.756	36.52
359.972	-272.72
360.187	220.84
360.402	-270.67
360.618	-119.12
360.833	1007.26
361.048	122.54
361.264	-223.57
361.479	3.75
361.694	-45.4
361.909	140.97
362.125	-266.58
362.34	-153.94
362.555	245.41
362.77	81.58
362.986	-334.16
363.201	-233.81
363.416	181.93
363.631	-57.68
363.847	-237.91
364.062	-188.75
364.277	196.26
364.492	18.09
364.707	-215.38
364.922	-481.61
365.138	218.79
365.353	304.81
365.568	-362.83
365.783	-188.75
365.998	30.38
366.213	544.42
366.428	-276.82
366.643	26.28
366.858	167.59
367.073	235.18
367.288	-153.94
367.503	-311.63
367.718	89.77
367.933	294.57
368.148	-297.3
368.363	-49.49
368.578	-80.21
368.793	448.16
369.008	-194.9
369.223	-268.63
369.438	149.16
369.653	300.71
369.868	-325.97
370.083	-317.78
370.298	42.67
370.513	401.06
370.728	-0.34
370.943	-250.19
371.157	-102.74
371.372	556.71
371.587	-332.11
371.802	-262.48
372.017	16.04
372.232	446.12
372.446	-158.03
372.661	-272.72
372.876	212.65
373.091	130.73
373.306	-104.79
373.52	-295.25
373.735	-194.9
373.95	368.29
374.165	-198.99
374.379	-217.43
374.594	-184.66
374.809	126.63
375.023	-39.25
375.238	-309.58
375.453	231.08
375.667	-225.62
375.882	-221.52
376.097	-289.1
376.311	-0.34
376.526	-43.35
376.741	-186.71
376.955	65.19
377.17	550.56
377.384	511.65
377.599	-115.03
377.813	-348.5
378.028	589.47
378.242	153.26
378.457	-133.46
378.672	-278.87
378.886	-0.34
379.101	-37.2
379.315	-399.7
379.53	-155.99
379.744	165.54
379.958	143.02
380.173	-176.47
380.387	-244.05
380.602	167.59
380.816	-225.62
381.031	-192.85
381.245	-110.93
381.459	167.59
381.674	2676.35
381.888	-201.04
382.103	-57.68
382.317	-229.71
382.531	468.64
382.746	-106.84
382.96	-215.38
383.174	-117.08
383.388	482.98
383.603	122.54
383.817	-287.06
384.031	93.87
384.246	458.4
384.46	-98.64
384.674	294.57
384.888	-35.16
385.103	-0.34
385.317	-395.6
385.531	-72.02
385.745	403.11
385.959	286.37
386.174	-184.66
386.388	-358.74
386.602	-6.49
386.816	-166.23
387.03	-201.04
387.244	-209.23
387.458	67.24
387.672	235.18
387.887	-321.87
388.101	-352.59
388.315	257.7
388.529	165.54
388.743	-188.75
388.957	-276.82
389.171	261.8
389.385	-192.85
389.599	-162.13
389.813	34.47
390.027	136.87
390.241	657.06
390.455	-176.47
390.669	-190.8
390.883	-88.4
391.097	329.38
391.311	-10.58
391.525	-295.25
391.738	155.3
391.952	147.11
392.166	-143.7
392.38	-250.19
392.594	159.4
392.808	272.04
393.022	-92.5
393.236	-151.89
393.449	251.56
393.663	108.2
393.877	-317.78
394.091	-94.55
394.305	-29.01
394.518	-186.71
394.732	-319.82
394.946	-164.18
395.16	435.88
395.373	-0.34
395.587	-215.38
395.801	-235.86
396.015	220.84
396.228	155.3
396.442	-295.25
396.656	-405.84
396.869	298.66
397.083	458.4
397.297	-90.45
397.51	-76.12
397.724	358.05
397.938	165.54
398.151	-344.4
398.365	-323.92
398.578	126.63
398.792	419.49
399.005	-88.4
399.219	-119.12
399.433	118.44
399.646	241.32
399.86	-84.31
400.073	-12.63
400.287	212.65
400.5	-115.03
400.714	-49.49
400.927	-184.66
401.141	212.65
401.354	1056.41
401.567	206.5
401.781	-317.78
401.994	247.46
402.208	581.28
402.421	-106.84
402.635	-168.27
402.848	-0.34
403.061	284.33
403.275	-90.45
403.488	-287.06
403.701	452.26
403.915	237.22
404.128	61.1
404.341	-223.57
404.555	165.54
404.768	-53.59
404.981	-119.12
405.195	-266.58
405.408	403.11
405.621	263.85
405.834	-37.2
406.048	-266.58
406.261	302.76
406.474	380.58
406.687	-233.81
406.9	30.38
407.114	9.9
407.327	128.68
407.54	-276.82
407.753	-328.02
407.966	-166.23
408.179	214.7
408.392	-280.91
408.605	-328.02
408.819	126.63
409.032	91.82
409.245	-217.43
409.458	-16.73
409.671	233.13
409.884	216.74
410.097	-323.92
410.31	-37.2
410.523	202.41
410.736	-78.16
410.949	-102.74
411.162	-135.51
411.375	358.05
411.588	313
411.801	-65.88
412.014	-221.52
412.227	34.47
412.44	-162.13
412.653	-153.94
412.865	-20.82
413.078	179.88
413.291	143.02
413.504	-115.03
413.717	-237.91
413.93	198.31
414.143	-229.71
414.356	-131.41
414.568	-387.41
414.781	173.74
414.994	85.67
415.207	-117.08
415.42	-78.16
415.632	190.12
415.845	548.51
416.058	-317.78
416.271	-311.63
416.483	26.28
416.696	452.26
416.909	-182.61
417.121	-270.67
417.334	175.78
417.547	485.03
417.759	-188.75
417.972	-260.43
418.185	-88.4
418.397	313
418.61	-227.67
418.823	-182.61
419.035	356.01
419.248	26.28
419.46	-86.36
419.673	-160.08
419.885	85.67
420.098	7.85
420.311	-166.23
420.523	-407.89
420.736	181.93
420.948	63.15
421.161	-94.55
421.373	-438.61
421.586	106.15
421.798	-155.99
422.01	-352.59
422.223	-106.84
422.435	-207.19
422.648	231.08
422.86	-182.61
423.073	-301.39
423.285	235.18
423.497	-311.63
423.71	-278.87
423.922	-151.89
424.134	77.48
424.347	333.48
424.559	-45.4
424.771	32.43
424.984	-16.73
425.196	163.5
425.408	-354.64
425.621	-252.24
425.833	249.51
426.045	313
426.257	-282.96
426.47	-155.99
426.682	40.62
426.894	106.15
427.106	-215.38
427.318	-235.86
427.531	-69.97
427.743	218.79
427.955	-229.71
428.167	255.65
428.379	87.72
428.591	-121.17
428.804	-106.84
429.016	-352.59
429.228	-65.88
429.44	95.91
429.652	-94.55
429.864	-373.07
430.076	-37.2
430.288	-61.78
430.5	-155.99
430.712	-94.55
430.924	333.48
431.136	124.58
431.348	-420.17
431.56	-262.48
431.772	-4.44
431.984	-164.18
432.196	-340.3
432.408	-190.8
432.62	-104.79
432.832	163.5
433.044	69.29
433.256	-102.74
433.468	81.58
433.679	-272.72
433.891	-323.92
434.103	3.75
434.315	380.58
434.527	61.1
434.739	-96.6
434.95	-229.71
435.162	173.74
435.374	-168.27
435.586	-162.13
435.798	-186.71
436.009	-246.1
436.221	-12.63
436.433	-244.05
436.645	-182.61
436.856	-82.26
437.068	233.13
437.28	-276.82
437.491	85.67
437.703	67.24
437.915	7.85
438.126	-196.95
438.338	61.1
438.55	-26.96
438.761	95.91
438.973	-221.52
439.184	-201.04
439.396	-72.02
439.608	157.35
439.819	-323.92
440.031	-160.08
440.242	138.92
440.454	183.98
440.665	-213.33
440.877	-133.46
441.088	97.96
441.3	-76.12
441.511	-319.82
441.723	-246.1
441.934	26.28
442.146	-67.92
442.357	-102.74
442.569	50.86
442.78	42.67
442.991	358.05
443.203	110.25
443.414	-330.06
443.626	278.18
443.837	-170.32
444.048	-342.35
444.26	-338.26
444.471	100.01
444.682	210.6
444.894	-397.65
445.105	-391.5
445.316	202.41
445.528	122.54
445.739	-135.51
445.95	-186.71
446.161	87.72
446.373	245.41
446.584	-309.58
446.795	-235.86
447.006	145.06
447.217	421.54
447.429	-334.16
447.64	-350.54
447.851	319.14
448.062	42.67
448.273	-422.22
448.484	-221.52
448.695	151.21
448.907	-96.6
449.118	-110.93
449.329	-43.35
449.54	-125.27
449.751	-209.23
449.962	-303.44
450.173	-248.15
450.384	198.31
450.595	315.05
450.806	-178.51
451.017	-250.19
451.228	325.29
451.439	290.47
451.65	-217.43
451.861	-475.47
452.072	-225.62
452.283	-35.16
452.494	-53.59
452.705	-260.43
452.915	364.2
453.126	159.4
453.337	-129.36
453.548	-186.71
453.759	257.7
453.97	530.08
454.181	-35.16
454.391	-180.56
454.602	30.38
454.813	114.34
455.024	-162.13
455.235	-221.52
455.445	91.82
455.656	122.54
455.867	-61.78
456.078	-285.01
456.288	38.57
456.499	110.25
456.71	-315.73
456.921	59.05
457.131	134.82
457.342	104.11
457.553	-170.32
457.763	-215.38
457.974	126.63
458.184	167.59
458.395	-368.98
458.606	-334.16
458.816	335.53
459.027	411.3
459.237	-127.32
459.448	-424.27
459.659	356.01
459.869	589.47
460.08	-414.03
460.29	-147.8
460.501	474.79
460.711	-39.25
460.922	-389.46
461.132	-338.26
461.343	695.97
461.553	-336.21
461.764	-246.1
461.974	-229.71
462.184	214.7
462.395	202.41
462.605	-180.56
462.816	-254.29
463.026	42.67
463.236	321.19
463.447	-289.1
463.657	-340.3
463.867	272.04
464.078	-53.59
464.288	-203.09
464.498	-287.06
464.709	38.57
464.919	-4.44
465.129	-166.23
465.339	-330.06
465.55	75.43
465.76	179.88
465.97	-258.39
466.18	-270.67
466.391	286.37
466.601	122.54
466.811	-170.32
467.021	-391.5
467.231	89.77
467.441	370.34
467.651	-160.08
467.862	-493.9
468.072	-55.64
468.282	265.89
468.492	-305.49
468.702	-184.66
468.912	-26.96
469.122	593.57
469.332	16.04
469.542	-332.11
469.752	226.98
469.962	34.47
470.172	-352.59
470.382	-274.77
470.592	253.61
470.802	294.57
471.012	-80.21
471.222	-266.58
471.432	231.08
471.642	147.11
471.852	-96.6
472.062	-414.03
472.272	-29.01
472.482	-242
472.691	-352.59
472.901	-356.69
473.111	69.29
473.321	566.95
473.531	-285.01
473.741	-153.94
473.95	102.06
474.16	169.64
474.37	-135.51
474.58	-366.93
474.79	507.55
474.999	143.02
475.209	-319.82
475.419	-209.23
475.628	-162.13
475.838	274.09
476.048	-229.71
476.258	-336.21
476.467	233.13
476.677	-123.22
476.886	-129.36
477.096	-217.43
477.306	-188.75
477.515	229.03
477.725	-178.51
477.935	-287.06
478.144	341.67
478.354	-149.84
478.563	-219.47
478.773	-254.29
478.982	229.03
479.192	290.47
479.401	-209.23
479.611	-323.92
479.82	-135.51
480.03	151.21
480.239	-403.79
480.449	-395.6
480.658	433.83
480.868	-135.51
481.077	-151.89
481.287	-254.29
481.496	157.35
481.705	259.75
481.915	11.95
482.124	3.75
482.333	91.82
482.543	405.16
482.752	-172.37
482.961	-299.34
483.171	237.22
483.38	40.62
483.589	-258.39
483.799	-291.15
484.008	-65.88
484.217	210.6
484.426	-196.95
484.636	-323.92
484.845	69.29
485.054	-303.44
485.263	79.53
485.472	-229.71
485.682	423.59
485.891	-6.49
486.1	-454.99
486.309	-319.82
486.518	122.54
486.727	292.52
486.936	-307.54
487.146	-205.14
487.355	353.96
487.564	-168.27
487.773	-242
487.982	-336.21
488.191	-76.12
488.4	-57.68
488.609	-287.06
488.818	-196.95
489.027	507.55
489.236	302.76
489.445	-225.62
489.654	-317.78
489.863	323.24
490.072	9.9
490.281	102.06
490.49	-213.33
490.698	313
490.907	368.29
491.116	-209.23
491.325	-457.04
491.534	292.52
491.743	32.43
491.952	-225.62
492.16	-287.06
492.369	157.35
492.578	241.32
492.787	-242
492.996	-350.54
493.204	-188.75
493.413	489.12
493.622	-506.19
493.831	-393.55
494.039	347.81
494.248	-242
494.457	-334.16
494.665	-373.07
494.874	190.12
495.083	540.32
495.291	-176.47
495.5	-336.21
495.709	237.22
495.917	38.57
496.126	-117.08
496.335	-291.15
496.543	-49.49
496.752	110.25
496.96	-16.73
497.169	-383.31
497.377	36.52
497.586	294.57
497.794	-182.61
498.003	-508.24
498.211	-12.63
498.42	450.21
498.628	-115.03
498.837	-352.59
499.045	91.82
499.254	-4.44
499.462	-307.54
499.671	-315.73
499.879	392.87
500.087	183.98
500.296	-239.95
500.504	-264.53
500.713	30.38
500.921	521.89
501.129	-246.1
501.338	-293.2
501.546	100.01
501.754	28.33
501.962	-223.57
502.171	-338.26
502.379	77.48
502.587	487.08
502.795	-221.52
503.004	-223.57
503.212	42.67
503.42	177.83
503.628	-280.91
503.837	-186.71
504.045	200.36
504.253	431.78
504.461	-256.34
504.669	-405.84
504.877	140.97
505.085	345.77
505.294	-436.56
505.502	-78.16
505.71	44.71
505.918	237.22
506.126	-411.98
506.334	-293.2
506.542	-51.54
506.75	57
506.958	-178.51
507.166	-213.33
507.374	-67.92
507.582	472.74
507.79	-198.99
507.998	-362.83
508.206	73.39
508.414	44.71
508.622	-285.01
508.83	-217.43
509.037	433.83
509.245	-98.64
509.453	-311.63
509.661	-379.22
509.869	245.41
510.077	-43.35
510.285	-137.56
510.492	-518.48
510.7	583.33
510.908	-69.97
511.116	-295.25
511.324	-244.05
511.531	-115.03
511.739	-45.4
511.947	-131.41
512.155	-31.06
512.362	44.71
512.57	-344.4
512.778	-387.41
512.985	-411.98
513.193	276.13
513.401	327.33
513.608	-229.71
513.816	-319.82
514.024	134.82
514.231	306.85
514.439	-299.34
514.646	-325.97
514.854	161.45
515.061	313
515.269	-272.72
515.477	-221.52
515.684	-227.67
515.892	245.41
516.099	-352.59
516.307	-438.61
516.514	235.18
516.722	409.25
516.929	-287.06
517.136	-319.82
517.344	460.45
517.551	128.68
517.759	-321.87
517.966	-291.15
518.173	-147.8
518.381	-37.2
518.588	-180.56
518.796	-338.26
519.003	163.5
519.21	3.75
519.418	-262.48
519.625	3.75
519.832	-12.63
520.039	42.67
520.247	-471.37
520.454	-262.48
520.661	194.22
520.868	169.64
521.076	-221.52
521.283	-194.9
521.49	558.75
521.697	122.54
521.904	-254.29
522.112	-285.01
522.319	224.94
522.526	190.12
522.733	-364.88
522.94	-346.45
523.147	81.58
523.354	229.03
523.561	-454.99
523.768	-198.99
523.975	231.08
524.183	57
524.39	-217.43
524.597	-422.22
524.804	40.62
525.011	-196.95
525.218	-280.91
525.425	-385.36
525.632	343.72
525.838	-198.99
526.045	-287.06
526.252	-422.22
526.459	1117.85
526.666	845.47
526.873	-330.06
527.08	-285.01
527.287	384.68
527.494	247.46
527.701	-377.17
527.907	-336.21
528.114	147.11
528.321	79.53
528.528	-244.05
528.735	-307.54
528.941	-160.08
529.148	-117.08
529.355	-215.38
529.562	-303.44
529.768	396.96
529.975	-102.74
530.182	-262.48
530.388	-377.17
530.595	319.14
530.802	-328.02
531.008	-104.79
531.215	-180.56
531.422	405.16
531.628	763.55
531.835	-203.09
532.042	-180.56
532.248	-129.36
532.455	7.85
532.661	-209.23
532.868	-258.39
533.074	3.75
533.281	294.57
533.487	-235.86
533.694	-309.58
533.9	-246.1
534.107	173.74
534.313	-385.36
534.52	-424.27
534.726	233.13
534.933	456.36
535.139	-393.55
535.345	-399.7
535.552	73.39
535.758	-102.74
535.965	-164.18
536.171	-295.25
536.377	261.8
536.584	339.62
536.79	-364.88
536.996	-196.95
537.203	91.82
537.409	157.35
537.615	-233.81
537.821	-67.92
538.028	204.46
538.234	136.87
538.44	-264.53
538.646	-217.43
538.853	124.58
539.059	-92.5
539.265	91.82
539.471	-530.77
539.677	233.13
539.883	-14.68
540.09	-244.05
540.296	155.3
540.502	16.04
540.708	-190.8
540.914	-143.7
541.12	-246.1
541.326	171.69
541.532	16.04
541.738	-164.18
541.944	-270.67
542.15	188.07
542.356	-84.31
542.562	-350.54
542.768	-231.76
542.974	628.39
543.18	556.71
543.386	-346.45
543.592	-512.33
543.798	392.87
544.004	269.99
544.21	-377.17
544.415	-164.18
544.621	52.91
544.827	286.37
545.033	-356.69
545.239	3.75
545.445	-262.48
545.651	7.85
545.856	-299.34
546.062	-293.2
546.268	-41.3
546.474	85.67
546.679	-254.29
546.885	-192.85
547.091	-125.27
547.297	493.22
547.502	-182.61
547.708	-426.32
547.914	-155.99
548.119	161.45
548.325	-332.11
548.531	-381.26
548.736	343.72
548.942	-147.8
549.147	-297.3
549.353	-63.83
549.559	226.98
549.764	59.05
549.97	-205.14
550.175	-328.02
550.381	138.92
550.586	-61.78
550.792	-188.75
550.997	-242
551.203	196.26
551.408	204.46
551.614	-422.22
551.819	-373.07
552.025	392.87
552.23	482.98
552.435	-364.88
552.641	-186.71
552.846	-168.27
553.052	263.85
553.257	-225.62
553.462	-328.02
553.668	-192.85
553.873	229.03
554.078	-358.74
554.283	-334.16
554.489	97.96
554.694	7.85
554.899	-385.36
555.105	-33.11
555.31	122.54
555.515	224.94
555.72	-196.95
555.925	-360.78
556.131	200.36
556.336	-194.9
556.541	-401.74
556.746	-346.45
556.951	349.86
557.156	413.35
557.361	-143.7
557.567	-160.08
557.772	532.13
557.977	192.17
558.182	-242
558.387	-317.78
558.592	-139.6
558.797	319.14
559.002	-160.08
559.207	-188.75
559.412	28.33
559.617	433.83
559.822	-242
560.027	-330.06
560.232	65.19
560.437	253.61
560.642	-434.51
560.847	-360.78
561.051	-10.58
561.256	54.95
561.461	-291.15
561.666	-407.89
561.871	20.14
562.076	218.79
562.281	-235.86
562.485	-346.45
562.69	200.36
562.895	222.89
563.1	-266.58
563.305	-385.36
563.509	343.72
563.714	573.09
563.919	-250.19
564.123	-344.4
564.328	67.24
564.533	331.43
564.737	-258.39
564.942	-188.75
565.147	364.2
565.351	474.79
565.556	-119.12
565.761	-151.89
565.965	171.69
566.17	-147.8
566.374	-287.06
566.579	-442.7
566.784	48.81
566.988	-61.78
567.193	-409.94
567.397	-258.39
567.602	-233.81
567.806	-10.58
568.011	-278.87
568.215	-282.96
568.42	-49.49
568.624	-110.93
568.828	-381.26
569.033	-45.4
569.237	85.67
569.442	61.1
569.646	-385.36
569.85	-291.15
570.055	-147.8
570.259	63.15
570.463	-29.01
570.668	-192.85
570.872	13.99
571.076	-12.63
571.281	-158.03
571.485	-198.99
571.689	83.63
571.893	265.89
572.098	-69.97
572.302	-250.19
572.506	134.82
572.71	-6.49
572.914	-266.58
573.119	-215.38
573.323	313
573.527	356.01
573.731	-274.77
573.935	-336.21
574.139	71.34
574.343	-176.47
574.547	-242
574.751	-262.48
574.955	396.96
575.159	251.56
575.364	-291.15
575.568	-305.49
575.772	69.29
575.976	345.77
576.18	-313.68
576.383	-446.8
576.587	331.43
576.791	198.31
576.995	-471.37
577.199	-409.94
577.403	206.5
577.607	237.22
577.811	-409.94
578.015	-176.47
578.219	136.87
578.422	138.92
578.626	-209.23
578.83	-162.13
579.034	308.9
579.238	42.67
579.442	-350.54
579.645	196.26
579.849	-59.73
580.053	3.75
580.257	-231.76
580.46	-268.63
580.664	198.31
580.868	175.78
581.071	-108.88
581.275	-186.71
581.479	-248.15
581.682	210.6
581.886	-344.4
582.09	-176.47
582.293	163.5
582.497	253.61
582.7	-26.96
582.904	-383.31
583.107	77.48
583.311	-14.68
583.515	-215.38
583.718	-217.43
583.922	204.46
584.125	407.2
584.329	-295.25
584.532	-143.7
584.735	427.68
584.939	206.5
585.142	-418.13
585.346	-323.92
585.549	69.29
585.753	-76.12
585.956	-278.87
586.159	-88.4
586.363	417.44
586.566	134.82
586.769	-360.78
586.973	-330.06
587.176	245.41
587.379	265.89
587.582	63.15
587.786	32.43
587.989	-22.87
588.192	638.62
588.395	-135.51
588.599	54.95
588.802	149.16
589.005	231.08
589.208	-244.05
589.411	-194.9
589.615	321.19
589.818	442.02
590.021	24.23
590.224	-176.47
590.427	153.26
590.63	134.82
590.833	-397.65
591.036	-334.16
591.239	-26.96
591.442	-76.12
591.645	-2.39
591.848	-235.86
592.051	54.95
592.254	179.88
592.457	-168.27
592.66	-211.28
592.863	16.04
593.066	97.96
593.269	-229.71
593.472	-117.08
593.675	-104.79
593.878	237.22
594.081	-76.12
594.284	-336.21
594.486	161.45
594.689	-14.68
594.892	-188.75
595.095	-151.89
595.298	214.7
595.5	-29.01
595.703	-104.79
595.906	-143.7
596.109	356.01
596.311	306.85
596.514	-436.56
596.717	-147.8
596.92	347.81
597.122	83.63
597.325	-471.37
597.528	-287.06
597.73	403.11
597.933	110.25
598.136	-260.43
598.338	-393.55
598.541	167.59
598.743	253.61
598.946	-217.43
599.148	-162.13
599.351	255.65
599.554	229.03
599.756	-22.87
599.959	-155.99
600.161	310.95
600.363	616.1
600.566	-47.44
600.768	-207.19
600.971	466.6
601.173	136.87
601.376	-276.82
601.578	-262.48
601.78	261.8
601.983	648.86
602.185	-305.49
602.388	-8.53
602.59	116.39
602.792	-53.59
602.995	-14.68
603.197	-203.09
603.399	237.22
603.601	167.59
603.804	-246.1
604.006	-223.57
604.208	36.52
604.41	-336.21
604.613	-45.4
604.815	-219.47
605.017	593.57
605.219	-110.93
605.421	188.07
605.623	-135.51
605.826	372.39
606.028	433.83
606.23	-205.14
606.432	-102.74
606.634	405.16
606.836	368.29
607.038	-350.54
607.24	-49.49
607.442	54.95
607.644	97.96
607.846	-135.51
608.048	-287.06
608.25	319.14
608.452	-115.03
608.654	-213.33
608.856	-430.41
609.058	-16.73
609.26	132.78
609.462	-18.77
609.664	-147.8
609.866	521.89
610.067	229.03
610.269	48.81
610.471	-174.42
610.673	48.81
610.875	329.38
611.077	-362.83
611.278	-102.74
611.48	130.73
611.682	466.6
611.884	-151.89
612.085	-137.56
612.287	-119.12
612.489	130.73
612.69	-330.06
612.892	-98.64
613.094	253.61
613.295	28.33
613.497	-395.6
613.699	-188.75
613.9	495.27
614.102	253.61
614.304	-213.33
614.505	-319.82
614.707	71.34
614.908	95.91
615.11	-285.01
615.311	-96.6
615.513	278.18
615.714	284.33
615.916	-321.87
616.117	-137.56
616.319	28.33
616.52	409.25
616.722	-117.08
616.923	-237.91
617.124	341.67
617.326	169.64
617.527	-59.73
617.729	32.43
617.93	216.74
618.131	302.76
618.333	-131.41
618.534	-69.97
618.735	-41.3
618.937	468.64
619.138	-268.63
619.339	-254.29
619.54	169.64
619.742	-45.4
619.943	-16.73
620.144	-102.74
620.345	274.09
620.546	356.01
620.748	-237.91
620.949	-178.51
621.15	93.87
621.351	136.87
621.552	-223.57
621.753	-303.44
621.954	-237.91
622.155	644.77
622.356	-332.11
622.558	-139.6
622.759	26.28
622.96	583.33
623.161	-168.27
623.362	-129.36
623.563	63.15
623.764	122.54
623.965	-237.91
624.166	-39.25
624.366	59.05
624.567	163.5
624.768	-393.55
624.969	-196.95
625.17	89.77
625.371	237.22
625.572	-43.35
625.773	-280.91
625.973	351.91
626.174	265.89
626.375	-121.17
626.576	-84.31
626.777	192.17
626.977	669.34
627.178	-123.22
627.379	-10.58
627.58	24.23
627.78	108.2
627.981	-65.88
628.182	-41.3
628.382	368.29
628.583	-221.52
628.784	-274.77
628.984	7.85
629.185	296.61
629.386	413.35
629.586	-153.94
629.787	-315.73
629.987	231.08
630.188	118.44
630.388	-168.27
630.589	1.71
630.79	669.34
630.99	171.69
631.191	-117.08
631.391	-4.44
631.591	253.61
631.792	521.89
631.992	-24.92
632.193	-104.79
632.393	540.32
632.594	52.91
632.794	-129.36
632.994	-39.25
633.195	120.49
633.395	102.06
633.595	-217.43
633.796	59.05
633.996	1.71
634.196	378.53
634.397	-385.36
634.597	-29.01
634.797	-61.78
634.997	435.88
635.198	183.98
635.398	-192.85
635.598	163.5
635.798	427.68
635.998	206.5
636.199	-182.61
636.399	-16.73
636.599	-115.03
636.799	-119.12
636.999	188.07
637.199	265.89
637.399	327.33
637.599	-205.14
637.799	-47.44
637.999	-45.4
638.199	499.36
638.399	-239.95
638.599	-155.99
638.799	265.89
638.999	655.01
639.199	67.24
639.399	-69.97
639.599	515.75
639.799	-2.39
639.999	-186.71
640.199	-223.57
640.399	315.05
640.599	263.85
640.799	-26.96
640.998	36.52
641.198	425.64
641.398	259.75
641.598	-53.59
641.798	-98.64
641.997	1074.84
642.197	155.3
642.397	65.19
642.597	-104.79
642.796	272.04
642.996	534.18
643.196	40.62
643.395	-264.53
643.595	278.18
643.795	-250.19
643.994	-178.51
644.194	-67.92
644.394	290.47
644.593	282.28
644.793	-229.71
644.992	89.77
645.192	253.61
645.392	-262.48
645.591	20.14
645.791	-37.2
645.99	257.7
646.19	200.36
646.389	-22.87
646.589	-14.68
646.788	327.33
646.987	317.09
647.187	136.87
647.386	108.2
647.586	153.26
647.785	364.2
647.984	-82.26
648.184	-4.44
648.383	38.57
648.582	118.44
648.782	-121.17
648.981	-10.58
649.18	65.19
649.38	188.07
649.579	-112.98
649.778	-135.51
649.977	200.36
650.177	304.81
650.376	-143.7
650.575	-180.56
650.774	593.57
650.973	-8.53
651.173	-203.09
651.372	44.71
651.571	222.89
651.77	442.02
651.969	-160.08
652.168	-29.01
652.367	-24.92
652.566	128.68
652.765	-143.7
652.964	261.8
653.163	640.67
653.362	112.3
653.561	-106.84
653.76	-96.6
653.959	73.39
654.158	351.91
654.357	167.59
654.556	-12.63
654.755	347.81
654.954	423.59
655.153	44.71
655.352	5.8
655.551	468.64
655.749	44.71
655.948	11.95
656.147	65.19
656.346	220.84
656.545	124.58
656.743	38.57
656.942	-41.3
657.141	212.65
657.34	69.29
657.538	-51.54
657.737	-22.87
657.936	57
658.135	382.63
658.333	-8.53
658.532	-59.73
658.731	698.02
658.929	421.54
659.128	278.18
659.326	-61.78
659.525	571.04
659.724	163.5
659.922	-254.29
660.121	-145.75
660.319	335.53
660.518	-26.96
660.716	-184.66
660.915	-149.84
661.113	534.18
661.312	-86.36
661.51	134.82
661.709	-192.85
661.907	407.2
662.105	542.37
662.304	-43.35
662.502	-39.25
662.701	519.84
662.899	106.15
663.097	210.6
663.296	-246.1
663.494	474.79
663.692	599.71
663.891	-102.74
664.089	-129.36
664.287	347.81
664.485	528.03
664.684	-100.69
664.882	50.86
665.08	253.61
665.278	229.03
665.476	-143.7
665.675	282.28
665.873	683.68
666.071	439.97
666.269	59.05
666.467	188.07
666.665	308.9
666.863	192.17
667.061	118.44
667.259	-33.11
667.457	220.84
667.655	325.29
667.853	-184.66
668.051	-0.34
668.249	42.67
668.447	364.2
668.645	-112.98
668.843	114.34
669.041	388.77
669.239	171.69
669.437	67.24
669.635	183.98
669.833	198.31
670.031	380.58
670.229	36.52
670.426	87.72
670.624	167.59
670.822	104.11
671.02	-12.63
671.218	5.8
671.415	-55.64
671.613	263.85
671.811	106.15
672.009	11.95
672.206	405.16
672.404	233.13
672.602	157.35
672.799	24.23
672.997	319.14
673.195	454.31
673.392	126.63
673.59	-131.41
673.788	458.4
673.985	-252.24
674.183	26.28
674.38	1.71
674.578	413.35
674.775	71.34
674.973	-74.07
675.17	-108.88
675.368	581.28
675.565	343.72
675.763	-43.35
675.96	-59.73
676.158	480.93
676.355	222.89
676.553	73.39
676.75	83.63
676.947	151.21
677.145	241.32
677.342	59.05
677.539	155.3
677.737	261.8
677.934	720.54
678.131	106.15
678.329	48.81
678.526	700.06
678.723	478.88
678.92	149.16
679.118	-10.58
679.315	-45.4
679.512	571.04
679.709	143.02
679.906	155.3
680.104	630.43
680.301	206.5
680.498	-80.21
680.695	-29.01
680.892	171.69
681.089	102.06
681.286	128.68
681.483	-92.5
681.68	446.12
681.877	485.03
682.075	24.23
682.272	274.09
682.469	245.41
682.665	167.59
682.862	-12.63
683.059	-24.92
683.256	310.95
683.453	288.42
683.65	181.93
683.847	106.15
684.044	237.22
684.241	77.48
684.438	226.98
684.635	9.9
684.831	757.41
685.028	777.89
685.225	-6.49
685.422	126.63
685.619	257.7
685.815	286.37
686.012	147.11
686.209	114.34
686.405	32.43
686.602	525.99
686.799	-76.12
686.996	-57.68
687.192	-20.82
687.389	847.52
687.586	36.52
687.782	110.25
687.979	724.64
688.175	607.91
688.372	147.11
688.568	138.92
688.765	247.46
688.962	665.25
689.158	183.98
689.355	-53.59
689.551	462.5
689.748	122.54
689.944	192.17
690.14	-135.51
690.337	597.67
690.533	179.88
690.73	284.33
690.926	167.59
691.123	450.21
691.319	358.05
691.515	20.14
691.712	272.04
691.908	497.32
692.104	399.01
692.301	200.36
692.497	-129.36
692.693	540.32
692.889	528.03
693.086	294.57
693.282	-39.25
693.478	335.53
693.674	689.82
693.87	216.74
694.067	-35.16
694.263	341.67
694.459	274.09
694.655	188.07
694.851	171.69
695.047	425.64
695.243	427.68
695.439	294.57
695.635	71.34
695.831	499.36
696.027	351.91
696.224	48.81
696.42	433.83
696.615	638.62
696.811	532.13
697.007	13.99
697.203	106.15
697.399	409.25
697.595	661.15
697.791	24.23
697.987	276.13
698.183	116.39
698.379	149.16
698.575	122.54
698.77	126.63
698.966	511.65
699.162	614.05
699.358	116.39
699.554	114.34
699.749	458.4
699.945	558.75
700.141	224.94
700.337	282.28
700.532	370.34
700.728	216.74
700.924	85.67
701.119	-20.82
701.315	487.08
701.511	255.65
701.706	267.94
701.902	28.33
702.097	433.83
702.293	419.49
702.489	132.78
702.684	118.44
702.88	380.58
703.075	292.52
703.271	114.34
703.466	36.52
703.662	368.29
703.857	548.51
704.053	79.53
704.248	128.68
704.443	626.34
704.639	499.36
704.834	190.12
705.03	100.01
705.225	491.17
705.42	626.34
705.616	224.94
705.811	54.95
706.006	278.18
706.202	245.41
706.397	292.52
706.592	85.67
706.787	431.78
706.983	399.01
707.178	482.98
707.373	229.03
707.568	511.65
707.763	577.19
707.959	140.97
708.154	222.89
708.349	399.01
708.544	519.84
708.739	462.5
708.934	11.95
709.129	575.14
709.324	616.1
709.519	71.34
709.714	97.96
709.909	726.69
710.104	425.64
710.299	200.36
710.494	188.07
710.689	552.61
710.884	411.3
711.079	300.71
711.274	482.98
711.469	579.23
711.664	478.88
711.859	169.64
712.054	296.61
712.249	566.95
712.443	695.97
712.638	24.23
712.833	91.82
713.028	376.48
713.223	396.96
713.417	491.17
713.612	110.25
713.807	675.49
714.002	962.2
714.196	370.34
714.391	179.88
714.586	628.39
714.78	382.63
714.975	190.12
715.17	229.03
715.364	431.78
715.559	655.01
715.754	-57.68
715.948	77.48
716.143	917.15
716.337	564.9
716.532	487.08
716.726	175.78
716.921	595.62
717.115	888.48
717.31	102.06
717.504	730.78
717.699	358.05
717.893	655.01
718.088	102.06
718.282	97.96
718.476	556.71
718.671	534.18
718.865	235.18
719.059	122.54
719.254	501.41
719.448	831.13
719.642	1549.97
719.837	54.95
720.031	632.48
720.225	728.74
720.419	282.28
720.614	167.59
720.808	622.24
721.002	356.01
721.196	196.26
721.39	179.88
721.585	757.41
721.779	597.67
721.973	257.7
722.167	18.09
722.361	550.56
722.555	716.45
722.749	269.99
722.943	212.65
723.137	145.06
723.331	534.18
723.525	198.31
723.719	122.54
723.913	642.72
724.107	824.99
724.301	28.33
724.495	261.8
724.689	925.34
724.883	765.6
725.077	233.13
725.271	134.82
725.465	736.93
725.659	396.96
725.853	450.21
726.046	83.63
726.24	237.22
726.434	693.92
726.628	220.84
726.822	276.13
727.015	765.6
727.209	857.76
727.403	134.82
727.596	120.49
727.79	650.91
727.984	712.35
728.177	247.46
728.371	319.14
728.565	732.83
728.758	261.8
728.952	179.88
729.146	222.89
729.339	714.4
729.533	433.83
729.726	280.23
729.92	128.68
730.113	786.08
730.307	470.69
730.5	292.52
730.694	171.69
730.887	382.63
731.081	581.28
731.274	153.26
731.468	251.56
731.661	540.32
731.854	343.72
732.048	298.66
732.241	97.96
732.435	351.91
732.628	507.55
732.821	339.62
733.014	136.87
733.208	132.78
733.401	634.53
733.594	222.89
733.788	327.33
733.981	835.23
734.174	657.06
734.367	214.7
734.56	370.34
734.754	810.65
734.947	505.51
735.14	145.06
735.333	302.76
735.526	685.73
735.719	261.8
735.912	145.06
736.105	147.11
736.298	556.71
736.491	427.68
736.684	171.69
736.877	220.84
737.07	601.76
737.263	771.74
737.456	329.38
737.649	206.5
737.842	331.43
738.035	540.32
738.228	325.29
738.421	495.27
738.614	822.94
738.807	714.4
739	95.91
739.192	198.31
739.385	679.58
739.578	708.26
739.771	603.81
739.964	296.61
740.156	540.32
740.349	491.17
740.542	425.64
740.735	163.5
740.927	231.08
741.12	425.64
741.313	198.31
741.505	388.77
741.698	507.55
741.891	628.39
742.083	433.83
742.276	274.09
742.468	523.94
742.661	442.02
742.854	298.66
743.046	241.32
743.239	988.83
743.431	491.17
743.624	278.18
743.816	114.34
744.009	482.98
744.201	591.52
744.393	497.32
744.586	106.15
744.778	806.56
744.971	437.92
745.163	351.91
745.355	394.92
745.548	515.75
745.74	560.8
745.932	378.53
746.125	333.48
746.317	1154.71
746.509	501.41
746.702	374.44
746.894	366.25
747.086	624.29
747.278	802.46
747.471	482.98
747.663	437.92
747.855	439.97
748.047	958.11
748.239	267.94
748.431	233.13
748.623	956.06
748.815	876.19
749.008	229.03
749.2	257.7
749.392	759.46
749.584	718.5
749.776	487.08
749.968	448.16
750.16	978.59
750.352	507.55
750.544	376.48
750.736	245.41
750.928	726.69
751.12	589.47
751.311	315.05
751.503	472.74
751.695	681.63
751.887	542.37
752.079	122.54
752.271	292.52
752.463	1298.07
752.654	773.79
752.846	411.3
753.038	310.95
753.23	458.4
753.421	712.35
753.613	425.64
753.805	593.57
753.997	810.65
754.188	917.15
754.38	323.24
754.572	327.33
754.763	528.03
754.955	812.7
755.146	466.6
755.338	466.6
755.53	702.11
755.721	534.18
755.913	245.41
756.104	257.7
756.296	462.5
756.487	718.5
756.679	278.18
756.87	339.62
757.062	450.21
757.253	822.94
757.445	253.61
757.636	366.25
757.827	542.37
758.019	1210.01
758.21	249.51
758.401	290.47
758.593	1167
758.784	929.44
758.975	222.89
759.167	298.66
759.358	700.06
759.549	818.85
759.74	394.92
759.932	319.14
760.123	941.72
760.314	519.84
760.505	507.55
760.696	450.21
760.888	1035.93
761.079	544.42
761.27	263.85
761.461	126.63
761.652	999.07
761.843	446.12
762.034	442.02
762.225	745.12
762.416	558.75
762.607	634.53
762.798	472.74
762.989	433.83
763.18	1384.09
763.371	497.32
763.562	294.57
763.753	364.2
763.944	835.23
764.135	835.23
764.326	433.83
764.517	433.83
764.708	597.67
764.899	777.89
765.089	370.34
765.28	226.98
765.471	695.97
765.662	761.5
765.853	378.53
766.043	241.32
766.234	892.57
766.425	913.05
766.615	372.39
766.806	171.69
766.997	945.82
767.187	657.06
767.378	380.58
767.569	251.56
767.759	822.94
767.95	681.63
768.141	595.62
768.331	294.57
768.522	810.65
768.712	769.69
768.903	360.1
769.093	210.6
769.284	970.4
769.474	724.64
769.665	212.65
769.855	183.98
770.046	726.69
770.236	509.6
770.426	540.32
770.617	265.89
770.807	732.83
770.998	655.01
771.188	589.47
771.378	364.2
771.569	851.61
771.759	831.13
771.949	265.89
772.139	147.11
772.33	691.87
772.52	1035.93
772.71	345.77
772.9	233.13
773.09	935.58
773.281	1025.69
773.471	327.33
773.661	337.57
773.851	898.72
774.041	560.8
774.231	292.52
774.421	401.06
774.611	1048.22
774.802	722.59
774.992	413.35
775.182	274.09
775.372	650.91
775.562	896.67
775.752	470.69
775.942	345.77
776.131	1040.03
776.321	755.36
776.511	315.05
776.701	300.71
776.891	908.96
777.081	433.83
777.271	427.68
777.461	372.39
777.651	931.48
777.84	1031.83
778.03	538.27
778.22	427.68
778.41	976.54
778.599	454.31
778.789	515.75
778.979	253.61
779.169	695.97
779.358	589.47
779.548	677.54
779.738	196.26
779.927	773.79
780.117	542.37
780.307	372.39
780.496	190.12
780.686	695.97
780.875	1052.31
781.065	394.92
781.254	308.9
781.444	743.07
781.633	741.02
781.823	458.4
782.012	345.77
782.202	585.38
782.391	675.49
782.581	327.33
782.77	556.71
782.96	732.83
783.149	605.86
783.338	409.25
783.528	218.79
783.717	992.92
783.906	1019.55
784.096	540.32
784.285	388.77
784.474	597.67
784.663	515.75
784.853	390.82
785.042	470.69
785.231	546.47
785.42	925.34
785.61	552.61
785.799	317.09
785.988	618.15
786.177	583.33
786.366	464.55
786.555	591.52
786.744	874.14
786.933	612
787.122	298.66
787.312	300.71
787.501	544.42
787.69	777.89
787.879	466.6
788.068	394.92
788.257	517.79
788.445	616.1
788.634	472.74
788.823	251.56
789.012	1277.59
789.201	1089.18
789.39	501.41
789.579	335.53
789.768	665.25
789.957	632.48
790.145	351.91
790.334	157.35
790.523	564.9
790.712	607.91
790.9	403.11
791.089	317.09
791.278	917.15
791.467	757.41
791.655	657.06
791.844	835.23
792.033	462.5
792.221	638.62
792.41	456.36
792.599	366.25
792.787	753.31
792.976	927.39
793.164	204.46
793.353	470.69
793.541	818.85
793.73	843.42
793.918	478.88
794.107	427.68
794.295	630.43
794.484	667.3
794.672	491.17
794.861	437.92
795.049	902.81
795.238	1167
795.426	372.39
795.614	556.71
795.803	792.22
795.991	1060.51
796.179	474.79
796.368	396.96
796.556	925.34
796.744	345.77
796.932	376.48
797.121	306.85
797.309	640.67
797.497	835.23
797.685	478.88
797.874	382.63
798.062	589.47
798.25	937.63
798.438	327.33
798.626	327.33
798.814	921.24
799.002	1269.4
799.19	657.06
799.378	564.9
799.566	966.3
799.755	986.78
799.943	642.72
800.131	413.35
800.318	765.6
800.506	894.62
800.694	474.79
800.882	609.95
801.07	1091.23
801.258	708.26
801.446	409.25
801.634	478.88
801.822	646.82
802.01	726.69
802.197	442.02
802.385	618.15
802.573	765.6
802.761	573.09
802.949	525.99
803.136	333.48
803.324	962.2
803.512	732.83
803.699	646.82
803.887	267.94
804.075	1089.18
804.262	622.24
804.45	419.49
804.638	556.71
804.825	450.21
805.013	601.76
805.201	472.74
805.388	374.44
805.576	769.69
805.763	1177.24
805.951	464.55
806.138	597.67
806.326	1173.14
806.513	894.62
806.701	593.57
806.888	401.06
807.075	812.7
807.263	1175.19
807.45	300.71
807.638	679.58
807.825	1144.47
808.012	1183.38
808.2	626.34
808.387	761.5
808.574	902.81
808.761	1244.82
808.949	429.73
809.136	583.33
809.323	804.51
809.51	626.34
809.698	802.46
809.885	769.69
810.072	894.62
810.259	1031.83
810.446	618.15
810.633	501.41
810.82	1033.88
811.008	1091.23
811.195	765.6
811.382	614.05
811.569	876.19
811.756	478.88
811.943	532.13
812.13	532.13
812.317	738.98
812.504	763.55
812.691	591.52
812.878	683.68
813.064	1060.51
813.251	937.63
813.438	454.31
813.625	704.16
813.812	679.58
813.999	767.65
814.186	579.23
814.372	571.04
814.559	833.18
814.746	1113.75
814.933	607.91
815.12	827.04
815.306	689.82
815.493	601.76
815.68	550.56
815.866	632.48
816.053	1085.08
816.24	1377.94
816.426	640.67
816.613	464.55
816.799	1115.8
816.986	1074.84
817.173	616.1
817.359	509.6
817.546	954.01
817.732	505.51
817.919	376.48
818.105	786.08
818.292	775.84
818.478	958.11
818.665	810.65
818.851	542.37
819.037	1392.28
819.224	837.28
819.41	499.36
819.597	493.22
819.783	1318.55
819.969	984.73
820.156	681.63
820.342	489.12
820.528	1572.5
820.714	843.42
820.901	886.43
821.087	605.86
821.273	1265.3
821.459	806.56
821.646	491.17
821.832	585.38
822.018	859.81
822.204	802.46
822.39	663.2
822.576	544.42
822.762	949.92
822.948	988.83
823.134	765.6
823.32	648.86
823.507	655.01
823.693	843.42
823.879	1056.41
824.065	528.03
824.25	925.34
824.436	657.06
824.622	562.85
824.808	517.79
824.994	700.06
825.18	648.86
825.366	493.22
825.552	568.99
825.738	868
825.923	1177.24
826.109	839.33
826.295	601.76
826.481	716.45
826.667	812.7
826.852	734.88
827.038	573.09
827.224	1072.79
827.409	1285.78
827.595	485.03
827.781	843.42
827.966	1080.99
828.152	1179.29
828.338	708.26
828.523	505.51
828.709	657.06
828.894	1261.21
829.08	648.86
829.266	650.91
829.451	700.06
829.637	1042.07
829.822	722.59
830.008	589.47
830.193	1179.29
830.378	1226.39
830.564	698.02
830.749	538.27
830.935	1064.6
831.12	1111.71
831.305	562.85
831.491	693.92
831.676	628.39
831.861	1097.37
832.047	624.29
832.232	540.32
832.417	1205.91
832.602	892.57
832.788	573.09
832.973	640.67
833.158	913.05
833.343	931.48
833.528	759.46
833.714	732.83
833.899	1101.47
834.084	1347.22
834.269	870.05
834.454	650.91
834.639	1218.2
834.824	1023.64
835.009	720.54
835.194	718.5
835.379	1140.38
835.564	1437.33
835.749	794.27
835.934	575.14
836.119	1171.1
836.304	970.4
836.489	556.71
836.674	960.16
836.859	839.33
837.044	1236.63
837.228	857.76
837.413	536.23
837.598	1072.79
837.783	1156.76
837.968	589.47
838.152	540.32
838.337	568.99
838.522	1152.67
838.707	1080.99
838.891	831.13
839.076	1005.21
839.261	1179.29
839.445	648.86
839.63	868
839.815	1396.37
839.999	886.43
840.184	636.58
840.368	751.26
840.553	1183.38
840.737	1146.52
840.922	593.57
841.106	605.86
841.291	663.2
841.475	958.11
841.66	620.19
841.844	691.87
842.029	1623.7
842.213	718.5
842.397	704.16
842.582	548.51
842.766	1121.95
842.951	1121.95
843.135	698.02
843.319	755.36
843.504	945.82
843.688	1154.71
843.872	528.03
844.056	581.28
844.241	1042.07
844.425	892.57
844.609	794.27
844.793	466.6
844.977	1154.71
845.161	1101.47
845.346	589.47
845.53	554.66
845.714	839.33
845.898	1291.93
846.082	616.1
846.266	646.82
846.45	962.2
846.634	1021.6
846.818	659.1
847.002	810.65
847.186	1054.36
847.37	747.17
847.554	589.47
847.738	902.81
847.922	1042.07
848.106	1064.6
848.29	675.49
848.473	597.67
848.657	1089.18
848.841	964.25
849.025	779.93
849.209	446.12
849.392	1103.51
849.576	849.57
849.76	446.12
849.944	781.98
850.127	1349.27
850.311	771.74
850.495	497.32
850.678	493.22
850.862	1265.3
851.046	1154.71
851.229	980.64
851.413	568.99
851.596	986.78
851.78	913.05
851.964	769.69
852.147	632.48
852.331	1740.43
852.514	1253.02
852.698	667.3
852.881	566.95
853.065	1150.62
853.248	847.52
853.431	802.46
853.615	781.98
853.798	1494.68
853.982	982.68
854.165	896.67
854.348	716.45
854.532	704.16
854.715	773.79
854.898	775.84
855.081	630.43
855.265	1349.27
855.448	1390.23
855.631	775.84
855.814	671.39
855.997	1189.53
856.181	835.23
856.364	728.74
856.547	548.51
856.73	1013.4
856.913	1042.07
857.096	607.91
857.279	847.52
857.462	814.75
857.645	1216.15
857.828	941.72
858.011	792.22
858.194	786.08
858.377	1089.18
858.56	640.67
858.743	718.5
858.926	767.65
859.109	1183.38
859.292	659.1
859.475	581.28
859.658	1207.96
859.841	1105.56
860.023	558.75
860.206	652.96
860.389	945.82
860.572	1248.92
860.755	712.35
860.937	738.98
861.12	982.68
861.303	896.67
861.486	835.23
861.668	564.9
861.851	1107.61
862.034	1083.03
862.216	845.47
862.399	433.83
862.581	1058.46
862.764	1339.03
862.947	855.71
863.129	523.94
863.312	706.21
863.494	1277.59
863.677	954.01
863.859	538.27
864.042	1132.19
864.224	1359.51
864.406	841.37
864.589	638.62
864.771	1074.84
864.954	777.89
865.136	689.82
865.318	470.69
865.501	1193.62
865.683	437.92
865.865	720.54
866.048	575.14
866.23	970.4
866.412	884.38
866.594	603.81
866.777	693.92
866.959	1156.76
867.141	777.89
867.323	904.86
867.505	829.09
867.687	855.71
867.869	1052.31
868.052	650.91
868.234	634.53
868.416	988.83
868.598	1162.9
868.78	679.58
868.962	560.8
869.144	1201.82
869.326	1136.28
869.508	650.91
869.69	558.75
869.872	794.27
870.054	1246.87
870.236	581.28
870.417	642.72
870.599	888.48
870.781	1345.17
870.963	863.9
871.145	575.14
871.327	726.69
871.508	1255.06
871.69	714.4
871.872	712.35
872.054	968.35
872.235	1083.03
872.417	786.08
872.599	622.24
872.78	1304.21
872.962	1019.55
873.144	474.79
873.325	792.22
873.507	1238.68
873.689	1017.5
873.87	597.67
874.052	849.57
874.233	904.86
874.415	1285.78
874.596	781.98
874.778	566.95
874.959	1009.31
875.141	1226.39
875.322	771.74
875.503	597.67
875.685	1015.45
875.866	642.72
876.048	648.86
876.229	652.96
876.41	931.48
876.592	1177.24
876.773	655.01
876.954	525.99
877.136	1330.84
877.317	956.06
877.498	548.51
877.679	902.81
877.86	1154.71
878.042	908.96
878.223	755.36
878.404	1140.38
878.585	1224.34
878.766	1359.51
878.947	994.97
879.128	876.19
879.309	1138.33
879.49	1343.13
879.672	730.78
879.853	951.96
880.034	794.27
880.215	900.76
880.396	859.81
880.576	745.12
880.757	818.85
880.938	1433.24
881.119	669.34
881.3	706.21
881.481	884.38
881.662	1816.21
881.843	700.06
882.023	605.86
882.204	1121.95
882.385	964.25
882.566	691.87
882.747	634.53
882.927	1015.45
883.108	1146.52
883.289	652.96
883.469	931.48
883.65	874.14
883.831	990.88
884.011	1009.31
884.192	855.71
884.373	1330.84
884.553	1083.03
884.734	945.82
884.914	1056.41
885.095	1640.08
885.275	1429.14
885.456	1101.47
885.636	724.64
885.817	1115.8
885.997	994.97
886.178	685.73
886.358	806.56
886.538	1130.14
886.719	2141.83
886.899	812.7
887.08	896.67
887.26	1263.26
887.44	949.92
887.621	693.92
887.801	900.76
887.981	1642.13
888.161	1236.63
888.342	845.47
888.522	849.57
888.702	1302.17
888.882	1412.76
889.062	1007.26
889.242	634.53
889.423	1523.35
889.603	1322.65
889.783	884.38
889.963	794.27
890.143	1281.69
890.323	1425.04
890.503	806.56
890.683	859.81
890.863	1105.56
891.043	1236.63
891.223	988.83
891.403	994.97
891.583	1212.06
891.763	1089.18
891.943	843.42
892.122	757.41
892.302	1148.57
892.482	1105.56
892.662	1109.66
892.842	931.48
893.022	1175.19
893.201	999.07
893.381	1042.07
893.561	933.53
893.741	1332.89
893.92	1308.31
894.1	980.64
894.28	1035.93
894.459	1277.59
894.639	1271.45
894.819	863.9
894.998	1027.74
895.178	1216.15
895.357	1281.69
895.537	874.14
895.716	779.93
895.896	1035.93
896.075	1535.64
896.255	884.38
896.434	749.22
896.614	1457.81
896.793	1410.71
896.973	1062.55
897.152	1003.16
897.331	1289.88
897.511	1363.61
897.69	708.26
897.87	1044.12
898.049	1359.51
898.228	1201.82
898.407	1093.27
898.587	1066.65
898.766	972.44
898.945	1334.93
899.124	1230.49
899.304	1107.61
899.483	1402.52
899.662	1715.86
899.841	833.18
900.02	978.59
900.199	1435.28
900.378	1339.03
900.557	831.13
900.737	855.71
900.916	1271.45
901.095	1388.18
901.274	1244.82
901.453	835.23
901.632	1040.03
901.811	994.97
901.989	949.92
902.168	908.96
902.347	1443.48
902.526	1033.88
902.705	974.49
902.884	1072.79
903.063	1592.98
903.242	1560.21
903.42	851.61
903.599	1042.07
903.778	1394.33
903.957	1547.92
904.135	1107.61
904.314	1099.42
904.493	1265.3
904.672	1293.97
904.85	978.59
905.029	933.53
905.207	1308.31
905.386	1941.13
905.565	806.56
905.743	951.96
905.922	1089.18
906.1	1302.17
906.279	841.37
906.457	841.37
906.636	1078.94
906.814	1123.99
906.993	917.15
907.171	929.44
907.35	1486.48
907.528	1511.06
907.707	1179.29
907.885	902.81
908.063	1580.69
908.242	919.2
908.42	878.24
908.598	673.44
908.777	1396.37
908.955	1056.41
909.133	1130.14
909.311	863.9
909.49	1099.42
909.668	1230.49
909.846	945.82
910.024	722.59
910.202	1150.62
910.38	1318.55
910.559	765.6
910.737	798.37
910.915	1265.3
911.093	1363.61
911.271	947.87
911.449	1091.23
911.627	1384.09
911.805	1695.38
911.983	935.58
912.161	872.09
912.339	1289.88
912.517	1494.68
912.695	947.87
912.872	984.73
913.05	968.35
913.228	1279.64
913.406	904.86
913.584	837.28
913.762	1339.03
913.939	1070.75
914.117	831.13
914.295	800.41
914.473	1273.5
914.65	1314.45
914.828	888.48
915.006	958.11
915.184	917.15
915.361	1304.21
915.539	960.16
915.716	1050.27
915.894	1216.15
916.072	1296.02
916.249	1111.71
916.427	1154.71
916.604	992.92
916.782	1271.45
916.959	698.02
917.137	911
917.314	1212.06
917.492	1306.26
917.669	1048.22
917.847	960.16
918.024	1212.06
918.201	956.06
918.379	970.4
918.556	966.3
918.733	1427.09
918.911	1085.08
919.088	1023.64
919.265	831.13
919.442	1171.1
919.62	1099.42
919.797	845.47
919.974	730.78
920.151	1162.9
920.328	1238.68
920.506	857.76
920.683	1083.03
920.86	962.2
921.037	1019.55
921.214	943.77
921.391	835.23
921.568	1334.93
921.745	835.23
921.922	933.53
922.099	943.77
922.276	1388.18
922.453	1197.72
922.63	753.31
922.807	1167
922.984	1146.52
923.161	933.53
923.338	833.18
923.514	781.98
923.691	1072.79
923.868	1248.92
924.045	878.24
924.222	755.36
924.399	1173.14
924.575	1343.13
924.752	835.23
924.929	1027.74
925.105	1046.17
925.282	769.69
925.459	962.2
925.635	917.15
925.812	1080.99
925.989	1015.45
926.165	886.43
926.342	659.1
926.518	786.08
926.695	1095.32
926.871	812.7
927.048	716.45
927.224	1314.45
927.401	1015.45
927.577	962.2
927.754	657.06
927.93	1238.68
928.107	1281.69
928.283	786.08
928.459	964.25
928.636	1162.9
928.812	902.81
928.988	689.82
929.165	693.92
929.341	876.19
929.517	1056.41
929.693	1009.31
929.87	552.61
930.046	1076.89
930.222	818.85
930.398	769.69
930.574	929.44
930.751	958.11
930.927	849.57
931.103	786.08
931.279	781.98
931.455	868
931.631	1052.31
931.807	648.86
931.983	591.52
932.159	655.01
932.335	1060.51
932.511	792.22
932.687	753.31
932.863	1007.26
933.039	1111.71
933.215	530.08
933.391	568.99
933.566	802.46
933.742	945.82
933.918	753.31
934.094	485.03
934.27	886.43
934.445	882.33
934.621	747.17
934.797	634.53
934.973	1068.7
935.148	992.92
935.324	579.23
935.5	411.3
935.675	1027.74
935.851	954.01
936.027	657.06
936.202	685.73
936.378	777.89
936.553	820.89
936.729	1025.69
936.904	593.57
937.08	503.46
937.255	652.96
937.431	501.41
937.606	411.3
937.782	540.32
937.957	679.58
938.133	571.04
938.308	360.1
938.483	779.93
938.659	509.6
938.834	530.08
939.009	358.05
939.185	632.48
939.36	538.27
939.535	171.69
939.71	636.58
939.886	917.15
940.061	781.98
940.236	609.95
940.411	396.96
940.586	781.98
940.761	777.89
940.937	372.39
941.112	272.04
941.287	683.68
941.462	642.72
941.637	253.61
941.812	421.54
941.987	827.04
942.162	585.38
942.337	468.64
942.512	386.72
942.687	851.61
942.862	777.89
943.037	210.6
943.212	38.57
943.386	556.71
943.561	624.29
943.736	601.76
943.911	618.15
944.086	597.67
944.26	722.59
944.435	431.78
944.61	392.87
944.785	827.04
944.959	1035.93
945.134	339.62
945.309	259.75
945.483	310.95
945.658	736.93
945.833	38.57
946.007	253.61
946.182	943.77
946.357	351.91
946.531	286.37
946.706	263.85
946.88	85.67
947.055	718.5
947.229	282.28
947.404	335.53
947.578	761.5
947.752	505.51
947.927	204.46
948.101	138.92
948.276	597.67
948.45	675.49
948.624	532.13
948.799	206.5
948.973	622.24
949.147	333.48
949.321	356.01
949.496	261.8
949.67	761.5
949.844	560.8
950.018	276.13
950.193	304.81
950.367	1005.21
950.541	509.6
950.715	427.68
950.889	503.46
951.063	485.03
951.237	687.78
951.411	81.58
951.585	143.02
951.759	642.72
951.933	534.18
952.107	229.03
952.281	482.98
952.455	972.44
952.629	710.3
952.803	298.66
952.977	208.55
953.151	741.02
953.325	597.67
953.499	419.49
953.672	183.98
953.846	327.33
954.02	472.74
954.194	253.61
954.368	261.8
954.541	665.25
954.715	368.29
954.889	325.29
955.062	212.65
955.236	468.64
955.41	360.1
955.583	460.45
955.757	147.11
955.93	450.21
956.104	261.8
956.278	267.94
956.451	263.85
956.625	624.29
956.798	954.01
956.972	523.94
957.145	140.97
957.319	499.36
957.492	507.55
957.665	384.68
957.839	153.26
958.012	626.34
958.185	401.06
958.359	366.25
958.532	499.36
958.705	675.49
958.879	505.51
959.052	364.2
959.225	194.22
959.398	470.69
959.572	607.91
959.745	198.31
959.918	333.48
960.091	466.6
960.264	607.91
960.438	173.74
960.611	169.64
960.784	698.02
960.957	468.64
961.13	695.97
961.303	233.13
961.476	593.57
961.649	704.16
961.822	132.78
961.995	388.77
962.168	601.76
962.341	587.43
962.514	294.57
962.686	216.74
962.859	587.43
963.032	650.91
963.205	300.71
963.378	116.39
963.551	700.06
963.723	528.03
963.896	317.09
964.069	429.73
964.242	525.99
964.414	747.17
964.587	444.07
964.76	448.16
964.932	517.79
965.105	470.69
965.278	343.72
965.45	173.74
965.623	515.75
965.795	681.63
965.968	280.23
966.14	290.47
966.313	466.6
966.485	601.76
966.658	269.99
966.83	261.8
967.003	788.13
967.175	794.27
967.348	306.85
967.52	394.92
967.692	827.04
967.865	599.71
968.037	419.49
968.209	542.37
968.382	525.99
968.554	749.22
968.726	222.89
968.898	286.37
969.071	593.57
969.243	657.06
969.415	351.91
969.587	323.24
969.759	974.49
969.932	695.97
970.104	196.26
970.276	-8.53
970.448	505.51
970.62	417.44
970.792	386.72
970.964	335.53
971.136	892.57
971.308	671.39
971.48	288.42
971.652	255.65
971.824	933.53
971.996	442.02
972.168	368.29
972.339	290.47
972.511	757.41
972.683	495.27
972.855	532.13
973.027	278.18
973.199	538.27
973.37	685.73
973.542	439.97
973.714	491.17
973.886	485.03
974.057	835.23
974.229	134.82
974.401	243.37
974.572	310.95
974.744	122.54
974.915	210.6
975.087	280.23
975.259	876.19
975.43	304.81
975.602	290.47
975.773	237.22
975.945	269.99
976.116	704.16
976.288	229.03
976.459	407.2
976.63	386.72
976.802	601.76
976.973	159.4
977.145	474.79
977.316	870.05
977.487	837.28
977.659	415.4
977.83	257.7
978.001	925.34
978.172	474.79
978.344	114.34
978.515	212.65
978.686	378.53
978.857	802.46
979.028	261.8
979.2	218.79
979.371	767.65
979.542	581.28
979.713	366.25
979.884	-8.53
980.055	272.04
980.226	456.36
980.397	224.94
980.568	130.73
980.739	757.41
980.91	405.16
981.081	493.22
981.252	249.51
981.423	693.92
981.594	675.49
981.765	65.19
981.936	423.59
982.106	470.69
982.277	732.83
982.448	212.65
982.619	456.36
982.79	380.58
982.96	628.39
983.131	366.25
983.302	34.47
983.472	306.85
983.643	487.08
983.814	313
983.984	183.98
984.155	423.59
984.326	691.87
984.496	366.25
984.667	282.28
984.837	347.81
985.008	667.3
985.178	384.68
985.349	235.18
985.519	466.6
985.69	341.67
985.86	204.46
986.031	190.12
986.201	521.89
986.371	603.81
986.542	91.82
986.712	108.2
986.882	528.03
987.053	601.76
987.223	167.59
987.393	319.14
987.563	462.5
987.734	548.51
987.904	509.6
988.074	239.27
988.244	523.94
988.414	343.72
988.585	71.34
988.755	343.72
988.925	511.65
989.095	868
989.265	194.22
989.435	263.85
989.605	554.66
989.775	593.57
989.945	458.4
990.115	124.58
990.285	487.08
990.455	468.64
990.625	290.47
990.795	167.59
990.965	736.93
991.134	278.18
991.304	106.15
991.474	261.8
991.644	568.99
991.814	773.79
991.984	69.29
992.153	118.44
992.323	394.92
992.493	423.59
992.662	-16.73
992.832	335.53
993.002	413.35
993.171	505.51
993.341	36.52
993.511	364.2
993.68	231.08
993.85	601.76
994.019	18.09
994.189	75.43
994.358	421.54
994.528	335.53
994.697	-67.92
994.867	81.58
995.036	614.05
995.206	343.72
995.375	124.58
995.544	282.28
995.714	528.03
995.883	421.54
996.052	267.94
996.222	-8.53
996.391	894.62
996.56	442.02
996.73	22.19
996.899	63.15
997.068	798.37
997.237	448.16
997.406	93.87
997.576	-24.92
997.745	485.03
997.914	439.97
998.083	-47.44
998.252	65.19
998.421	466.6
998.59	214.7
998.759	-35.16
998.928	-98.64
999.097	702.11
999.266	450.21
999.435	253.61
999.604	-123.22
999.773	786.08
999.942	341.67
1000.111	-188.75
1000.28	-61.78
1000.448	116.39
1000.617	204.46
1000.786	327.33
1000.955	79.53
1001.124	384.68
1001.292	1031.83
1001.461	73.39
1001.63	-59.73
1001.798	679.58
1001.967	687.78
1002.136	-26.96
1002.304	-10.58
1002.473	466.6
1002.642	376.48
1002.81	-24.92
1002.979	73.39
1003.147	671.39
1003.316	933.53
1003.484	20.14
1003.653	-37.2
1003.821	634.53
1003.99	310.95
1004.158	173.74
1004.327	81.58
1004.495	509.6
1004.663	255.65
1004.832	126.63
1005	-67.92
1005.168	415.4
1005.337	446.12
1005.505	-55.64
1005.673	179.88
1005.842	528.03
1006.01	511.65
1006.178	-8.53
1006.346	-14.68
1006.514	462.5
1006.683	650.91
1006.851	9.9
1007.019	-102.74
1007.187	161.45
1007.355	-104.79
1007.523	-117.08
1007.691	-147.8
1007.859	81.58
1008.027	601.76
1008.195	11.95
1008.363	-82.26
1008.531	589.47
1008.699	233.13
1008.867	-88.4
1009.035	61.1
1009.203	632.48
1009.37	304.81
1009.538	38.57
1009.706	353.96
1009.874	356.01
1010.042	257.7
1010.209	-41.3
1010.377	42.67
1010.545	571.04
1010.713	319.14
1010.88	-82.26
1011.048	-16.73
1011.216	272.04
1011.383	646.82
1011.551	-53.59
1011.718	-135.51
1011.886	546.47
1012.054	384.68
1012.221	-88.4
1012.389	9.9
1012.556	253.61
1012.724	724.64
1012.891	114.34
1013.058	-164.18
1013.226	435.88
1013.393	489.12
1013.561	-168.27
1013.728	-162.13
1013.895	528.03
1014.063	435.88
1014.23	-188.75
1014.397	-112.98
1014.565	515.75
1014.732	233.13
1014.899	-74.07
1015.066	-213.33
1015.233	327.33
1015.401	415.4
1015.568	16.04
1015.735	63.15
1015.902	317.09
1016.069	409.25
1016.236	11.95
1016.403	-84.31
1016.57	134.82
1016.737	564.9
1016.904	-49.49
1017.071	-96.6
1017.238	122.54
1017.405	485.03
1017.572	-74.07
1017.739	173.74
1017.906	452.26
1018.073	585.38
1018.24	-141.65
1018.407	59.05
1018.573	450.21
1018.74	304.81
1018.907	-69.97
1019.074	-211.28
1019.241	530.08
1019.407	257.7
1019.574	-160.08
1019.741	-213.33
1019.907	409.25
1020.074	468.64
1020.241	-299.34
1020.407	-147.8
1020.574	417.44
1020.74	347.81
1020.907	-18.77
1021.073	-129.36
1021.24	794.27
1021.406	620.19
1021.573	-123.22
1021.739	-74.07
1021.906	544.42
1022.072	265.89
1022.239	-115.03
1022.405	-49.49
1022.571	300.71
1022.738	44.71
1022.904	-108.88
1023.07	7.85
1023.237	286.37
1023.403	560.8
1023.569	-102.74
1023.735	-12.63
1023.902	356.01
1024.068	347.81
1024.234	-139.6
1024.4	-158.03
1024.566	347.81
1024.732	478.88
1024.898	-80.21
1025.065	-90.45
1025.231	487.08
1025.397	206.5
1025.563	-39.25
1025.729	-188.75
1025.895	-98.64
1026.061	69.29
1026.227	-262.48
1026.392	-67.92
1026.558	495.27
1026.724	382.63
1026.89	-110.93
1027.056	-47.44
1027.222	499.36
1027.388	286.37
1027.553	-123.22
1027.719	-131.41
1027.885	720.54
1028.051	450.21
1028.216	-252.24
1028.382	-20.82
1028.548	519.84
1028.713	196.26
1028.879	-201.04
1029.045	57
1029.21	657.06
1029.376	505.51
1029.541	-63.83
1029.707	-53.59
1029.873	482.98
1030.038	433.83
1030.204	-143.7
1030.369	-80.21
1030.534	517.79
1030.7	204.46
1030.865	-88.4
1031.031	-192.85
1031.196	337.57
1031.361	396.96
1031.527	-143.7
1031.692	-92.5
1031.857	-141.65
1032.023	433.83
1032.188	-246.1
1032.353	-96.6
1032.518	648.86
1032.684	229.03
1032.849	-246.1
1033.014	-80.21
1033.179	339.62
1033.344	442.02
1033.509	-41.3
1033.674	-131.41
1033.839	454.31
1034.004	413.35
1034.17	-108.88
1034.335	-172.37
1034.5	269.99
1034.664	89.77
1034.829	-127.32
1034.994	-135.51
1035.159	341.67
1035.324	278.18
1035.489	-176.47
1035.654	-162.13
1035.819	558.75
1035.984	302.76
1036.148	-90.45
1036.313	-211.28
1036.478	532.13
1036.643	229.03
1036.807	-176.47
1036.972	-145.75
1037.137	528.03
1037.301	220.84
1037.466	-231.76
1037.631	-65.88
1037.795	505.51
1037.96	261.8
1038.124	138.92
1038.289	-209.23
1038.454	485.03
1038.618	298.66
1038.783	-98.64
1038.947	13.99
1039.111	325.29
1039.276	214.7
1039.44	-192.85
1039.605	368.29
1039.769	173.74
1039.933	247.46
1040.098	-119.12
1040.262	48.81
1040.426	513.7
1040.591	366.25
1040.755	-158.03
1040.919	-162.13
1041.083	333.48
1041.248	194.22
1041.412	-192.85
1041.576	-203.09
1041.74	190.12
1041.904	460.45
1042.068	-198.99
1042.232	-61.78
1042.397	474.79
1042.561	362.15
1042.725	-319.82
1042.889	-14.68
1043.053	417.44
1043.217	364.2
1043.381	-0.34
1043.544	-221.52
1043.708	503.46
1043.872	20.14
1044.036	-330.06
1044.2	-303.44
1044.364	587.43
1044.528	642.72
1044.691	4877.92
1044.855	-221.52
1045.019	485.03
1045.183	472.74
1045.346	-112.98
1045.51	-176.47
1045.674	313
1045.837	364.2
1046.001	-61.78
1046.165	-176.47
1046.328	763.55
1046.492	356.01
1046.655	13.99
1046.819	-49.49
1046.983	157.35
1047.146	384.68
1047.31	-69.97
1047.473	-383.31
1047.636	208.55
1047.8	97.96
1047.963	-24.92
1048.127	-153.94
1048.29	163.5
