Data from Ink_Intensity_USB4F045381__51__00051.txt Node

Date: Mon Jul 17 10:15:08 EDT 2023
User: mmckonesweet
Spectrometer: USB4F04538
Trigger mode: 4
Integration Time (sec): 9.000000E-1
Scans to average: 1
Electric dark correction enabled: true
Nonlinearity correction enabled: false
Boxcar width: 0
XAxis mode: Wavelengths
Number of Pixels in Spectrum: 3648
>>>>>Begin Spectral Data<<<<<
345.52	-953.67
345.736	-953.67
345.952	-953.67
346.168	-1006.92
346.384	-1084.74
346.6	-142.68
346.816	-167.25
347.032	-245.07
347.248	258.73
347.464	-206.16
347.68	-126.29
347.896	107.18
348.112	443.04
348.328	-138.58
348.544	-68.95
348.76	27.31
348.975	258.73
349.191	-296.27
349.407	-177.49
349.623	4.78
349.839	-75.09
350.055	-111.96
350.27	23.21
350.486	98.99
350.702	303.78
350.918	283.3
351.133	-175.44
351.349	139.94
351.565	375.46
351.781	-140.63
351.996	-7.51
352.212	262.82
352.428	-179.54
352.644	-167.25
352.859	-245.07
353.075	246.44
353.291	39.59
353.506	-210.26
353.722	-214.35
353.938	-103.76
354.153	451.24
354.369	92.84
354.584	-230.74
354.8	242.34
355.016	-281.94
355.231	-240.98
355.447	-71
355.662	133.8
355.878	832.16
356.093	-292.18
356.309	-19.8
356.524	-249.17
356.74	318.12
356.955	-206.16
357.171	-77.14
357.386	84.65
357.602	-269.65
357.817	-124.24
358.033	-150.87
358.248	365.22
358.464	66.22
358.679	-66.9
358.895	-286.03
359.11	33.45
359.325	254.63
359.541	72.36
359.756	-77.14
359.972	-400.72
360.187	213.67
360.402	-173.39
360.618	-122.2
360.833	928.41
361.048	158.38
361.264	-126.29
361.479	-54.61
361.694	-52.56
361.909	217.77
362.125	-185.68
362.34	-73.04
362.555	201.38
362.77	76.46
362.986	-257.36
363.201	-157.01
363.416	164.52
363.631	29.35
363.847	-249.17
364.062	-163.15
364.277	144.04
364.492	78.51
364.707	-163.15
364.922	-408.91
365.138	250.53
365.353	332.45
365.568	-183.63
365.783	-138.58
365.998	60.07
366.213	588.45
366.428	-271.7
366.643	139.94
366.858	262.82
367.073	197.29
367.288	-109.91
367.503	-267.6
367.718	148.14
367.933	275.11
368.148	-310.61
368.363	-101.72
368.578	-101.72
368.793	449.19
369.008	-114
369.223	-265.55
369.438	201.38
369.653	400.04
369.868	-269.65
370.083	-279.89
370.298	92.84
370.513	332.45
370.728	-11.61
370.943	-148.82
371.157	-212.31
371.372	414.37
371.587	-296.27
371.802	-206.16
372.017	58.03
372.232	445.09
372.446	-81.24
372.661	-304.46
372.876	230.06
373.091	41.64
373.306	-122.2
373.52	-257.36
373.735	-165.2
373.95	377.51
374.165	-195.92
374.379	-118.1
374.594	-183.63
374.809	76.46
375.023	60.07
375.238	-234.83
375.453	238.25
375.667	-150.87
375.882	-101.72
376.097	-179.54
376.311	-3.41
376.526	-50.52
376.741	-249.17
376.955	64.17
377.17	588.45
377.384	467.62
377.599	-75.09
377.813	-265.55
378.028	619.17
378.242	96.94
378.457	-159.06
378.672	-298.32
378.886	17.07
379.101	-44.37
379.315	-359.76
379.53	-128.34
379.744	31.4
379.958	232.1
380.173	-202.07
380.387	-183.63
380.602	121.51
380.816	-122.2
381.031	-206.16
381.245	-161.11
381.459	205.48
381.674	2503.3
381.888	-177.49
382.103	88.75
382.317	-230.74
382.531	443.04
382.746	-130.39
382.96	-152.91
383.174	-105.81
383.388	375.46
383.603	49.83
383.817	-245.07
384.031	160.42
384.246	400.04
384.46	-97.62
384.674	283.3
384.888	-58.71
385.103	-83.28
385.317	-300.37
385.531	-68.95
385.745	314.02
385.959	330.41
386.174	-261.46
386.388	-273.75
386.602	-79.19
386.816	-101.72
387.03	-126.29
387.244	-187.73
387.458	0.68
387.672	283.3
387.887	-306.51
388.101	-247.12
388.315	344.74
388.529	55.98
388.743	-140.63
388.957	-191.83
389.171	295.59
389.385	-230.74
389.599	-146.77
389.813	17.07
390.027	156.33
390.241	594.59
390.455	-83.28
390.669	-183.63
390.883	-85.33
391.097	338.6
391.311	53.93
391.525	-226.64
391.738	213.67
391.952	127.66
392.166	-152.91
392.38	-163.15
392.594	348.84
392.808	305.83
393.022	-167.25
393.236	-134.48
393.449	174.76
393.663	168.62
393.877	-339.28
394.091	-124.24
394.305	-114
394.518	-124.24
394.732	-271.7
394.946	-101.72
395.16	463.52
395.373	141.99
395.587	-267.6
395.801	-214.35
396.015	240.3
396.228	139.94
396.442	-281.94
396.656	-326.99
396.869	381.6
397.083	361.13
397.297	-138.58
397.51	-206.16
397.724	393.89
397.938	137.9
398.151	-329.04
398.365	-306.51
398.578	234.15
398.792	340.65
399.005	-79.19
399.219	-114
399.433	53.93
399.646	182.95
399.86	-15.7
400.073	-30.04
400.287	193.19
400.5	6.83
400.714	25.26
400.927	-19.8
401.141	230.06
401.354	983.71
401.567	178.86
401.781	-300.37
401.994	254.63
402.208	588.45
402.421	-171.35
402.635	-15.7
402.848	66.22
403.061	350.89
403.275	-128.34
403.488	-181.59
403.701	420.52
403.915	260.77
404.128	27.31
404.341	-179.54
404.555	219.82
404.768	-19.8
404.981	23.21
405.195	-261.46
405.408	514.72
405.621	164.52
405.834	15.02
406.048	-232.79
406.261	301.73
406.474	400.04
406.687	-208.21
406.9	-3.41
407.114	-50.52
407.327	144.04
407.54	-197.97
407.753	-167.25
407.966	-126.29
408.179	299.69
408.392	-200.02
408.605	-232.79
408.819	176.81
409.032	172.71
409.245	-290.13
409.458	37.55
409.671	174.76
409.884	254.63
410.097	-331.09
410.31	-3.41
410.523	193.19
410.736	82.6
410.949	-40.28
411.162	-183.63
411.375	406.18
411.588	424.61
411.801	23.21
412.014	-238.93
412.227	8.87
412.44	4.78
412.653	-204.11
412.865	8.87
413.078	299.69
413.291	168.62
413.504	-85.33
413.717	-144.72
413.93	139.94
414.143	-179.54
414.356	-56.66
414.568	-181.59
414.781	244.39
414.994	123.56
415.207	-62.8
415.42	-68.95
415.632	328.36
415.845	369.32
416.058	-238.93
416.271	-277.84
416.483	29.35
416.696	434.85
416.909	-183.63
417.121	-175.44
417.334	242.34
417.547	508.58
417.759	-154.96
417.972	-249.17
418.185	-183.63
418.397	225.96
418.61	-265.55
418.823	-66.9
419.035	428.71
419.248	23.21
419.46	-114
419.673	-103.76
419.885	217.77
420.098	37.55
420.311	-232.79
420.523	-279.89
420.736	164.52
420.948	135.85
421.161	-218.45
421.373	-275.79
421.586	148.14
421.798	-27.99
422.01	-310.61
422.223	-1.37
422.435	-124.24
422.648	266.92
422.86	-197.97
423.073	-134.48
423.285	391.84
423.497	-359.76
423.71	-224.59
423.922	-249.17
424.134	58.03
424.347	377.51
424.559	74.41
424.771	135.85
424.984	-89.43
425.196	150.18
425.408	-337.23
425.621	-306.51
425.833	324.26
426.045	301.73
426.257	-261.46
426.47	-177.49
426.682	109.23
426.894	162.47
427.106	-150.87
427.318	-87.38
427.531	-122.2
427.743	215.72
427.955	-206.16
428.167	228.01
428.379	230.06
428.591	-77.14
428.804	-62.8
429.016	-191.83
429.228	-179.54
429.44	137.9
429.652	-15.7
429.864	-380.24
430.076	-56.66
430.288	-116.05
430.5	-99.67
430.712	-73.04
430.924	338.6
431.136	8.87
431.348	-392.53
431.56	-179.54
431.772	-11.61
431.984	-73.04
432.196	-288.08
432.408	-79.19
432.62	-93.52
432.832	131.75
433.044	109.23
433.256	-120.15
433.468	172.71
433.679	-230.74
433.891	-236.88
434.103	31.4
434.315	393.89
434.527	180.9
434.739	-179.54
434.95	-226.64
435.162	271.01
435.374	-66.9
435.586	-101.72
435.798	-193.87
436.009	-179.54
436.221	-107.86
436.433	-224.59
436.645	-159.06
436.856	-60.76
437.068	279.21
437.28	-296.27
437.491	127.66
437.703	156.33
437.915	82.6
438.126	-152.91
438.338	80.55
438.55	-79.19
438.761	225.96
438.973	-216.4
439.184	-161.11
439.396	49.83
439.608	187.05
439.819	-292.18
440.031	-79.19
440.242	152.23
440.454	166.57
440.665	-200.02
440.877	-1.37
441.088	133.8
441.3	-19.8
441.511	-290.13
441.723	-210.26
441.934	127.66
442.146	23.21
442.357	4.78
442.569	55.98
442.78	31.4
442.991	332.45
443.203	90.79
443.414	-290.13
443.626	354.98
443.837	-87.38
444.048	-279.89
444.26	-322.9
444.471	37.55
444.682	213.67
444.894	-376.14
445.105	-345.42
445.316	258.73
445.528	160.42
445.739	-60.76
445.95	-130.39
446.161	168.62
446.373	234.15
446.584	-142.68
446.795	-152.91
447.006	213.67
447.217	438.95
447.429	-288.08
447.64	-212.31
447.851	285.35
448.062	25.26
448.273	-351.57
448.484	-210.26
448.695	189.1
448.907	-93.52
449.118	-36.18
449.329	21.16
449.54	-124.24
449.751	-245.07
449.962	-157.01
450.173	-126.29
450.384	242.34
450.595	377.51
450.806	-204.11
451.017	-152.91
451.228	357.03
451.439	254.63
451.65	-173.39
451.861	-398.67
452.072	-171.35
452.283	53.93
452.494	-21.84
452.705	-281.94
452.915	340.65
453.126	94.89
453.337	-189.78
453.548	-333.14
453.759	213.67
453.97	576.16
454.181	72.36
454.391	-206.16
454.602	23.21
454.813	131.75
455.024	-148.82
455.235	-243.03
455.445	86.7
455.656	121.51
455.867	45.74
456.078	-255.31
456.288	-64.85
456.499	60.07
456.71	-247.12
456.921	103.08
457.131	213.67
457.342	105.13
457.553	-126.29
457.763	-171.35
457.974	234.15
458.184	236.2
458.395	-312.66
458.606	-290.13
458.816	340.65
459.027	455.33
459.237	-32.08
459.448	-453.97
459.659	338.6
459.869	500.39
460.08	-326.99
460.29	-34.13
460.501	414.37
460.711	-60.76
460.922	-281.94
461.132	-247.12
461.343	582.31
461.553	-331.09
461.764	-230.74
461.974	-240.98
462.184	217.77
462.395	141.99
462.605	-159.06
462.816	-206.16
463.026	2.73
463.236	291.49
463.447	-216.4
463.657	-306.51
463.867	193.19
464.078	-15.7
464.288	-181.59
464.498	-300.37
464.709	51.88
464.919	27.31
465.129	-150.87
465.339	-195.92
465.55	133.8
465.76	197.29
465.97	-171.35
466.18	-271.7
466.391	240.3
466.601	160.42
466.811	-124.24
467.021	-263.51
467.231	119.46
467.441	299.69
467.651	-120.15
467.862	-398.67
468.072	8.87
468.282	326.31
468.492	-204.11
468.702	-263.51
468.912	55.98
469.122	627.36
469.332	148.14
469.542	-257.36
469.752	182.95
469.962	119.46
470.172	-283.98
470.382	-183.63
470.592	191.14
470.802	275.11
471.012	-50.52
471.222	-232.79
471.432	266.92
471.642	217.77
471.852	-50.52
472.062	-247.12
472.272	-40.28
472.482	-228.69
472.691	-306.51
472.901	-286.03
473.111	72.36
473.321	653.98
473.531	-326.99
473.741	-114
473.95	2.73
474.16	129.7
474.37	-114
474.58	-316.75
474.79	498.34
474.999	242.34
475.209	-251.22
475.419	-249.17
475.628	-83.28
475.838	279.21
476.048	-218.45
476.258	-302.42
476.467	316.07
476.677	-132.44
476.886	-163.15
477.096	-179.54
477.306	-99.67
477.515	455.33
477.725	-77.14
477.935	-144.72
478.144	332.45
478.354	-179.54
478.563	-126.29
478.773	-195.92
478.982	166.57
479.192	256.68
479.401	-114
479.611	-259.41
479.82	-167.25
480.03	19.11
480.239	-202.07
480.449	-290.13
480.658	432.8
480.868	-152.91
481.077	-146.77
481.287	-171.35
481.496	185
481.705	379.56
481.915	74.41
482.124	-17.75
482.333	98.99
482.543	385.7
482.752	-179.54
482.961	-304.46
483.171	281.25
483.38	41.64
483.589	-42.32
483.799	-191.83
484.008	4.78
484.217	314.02
484.426	-167.25
484.636	-298.32
484.845	135.85
485.054	-144.72
485.263	115.37
485.472	-216.4
485.682	463.52
485.891	170.66
486.1	-320.85
486.309	-177.49
486.518	205.48
486.727	352.93
486.936	-247.12
487.146	-126.29
487.355	344.74
487.564	-175.44
487.773	-208.21
487.982	-226.64
488.191	-15.7
488.4	21.16
488.609	-175.44
488.818	-62.8
489.027	533.15
489.236	334.5
489.445	-197.97
489.654	-195.92
489.863	266.92
490.072	72.36
490.281	166.57
490.49	-175.44
490.698	465.57
490.907	416.42
491.116	-191.83
491.325	-361.81
491.534	379.56
491.743	98.99
491.952	-40.28
492.16	-132.44
492.369	203.43
492.578	211.62
492.787	-93.52
492.996	-269.65
493.204	-56.66
493.413	533.15
493.622	-406.86
493.831	-310.61
494.039	432.8
494.248	-118.1
494.457	-232.79
494.665	-388.43
494.874	189.1
495.083	494.24
495.291	-173.39
495.5	-261.46
495.709	225.96
495.917	133.8
496.126	-118.1
496.335	-243.03
496.543	-66.9
496.752	105.13
496.96	49.83
497.169	-365.9
497.377	82.6
497.586	369.32
497.794	-77.14
498.003	-415.05
498.211	41.64
498.42	467.62
498.628	-56.66
498.837	-206.16
499.045	170.66
499.254	127.66
499.462	-185.68
499.671	-251.22
499.879	418.47
500.087	342.69
500.296	-210.26
500.504	-132.44
500.713	146.09
500.921	488.1
501.129	-314.7
501.338	-132.44
501.546	88.75
501.754	187.05
501.962	-216.4
502.171	-265.55
502.379	148.14
502.587	492.2
502.795	-181.59
503.004	-150.87
503.212	21.16
503.42	381.6
503.628	-204.11
503.837	-111.96
504.045	242.34
504.253	486.05
504.461	-206.16
504.669	-294.22
504.877	225.96
505.085	461.48
505.294	-326.99
505.502	-64.85
505.71	74.41
505.918	264.87
506.126	-210.26
506.334	-179.54
506.542	90.79
506.75	98.99
506.958	-163.15
507.166	-169.3
507.374	-68.95
507.582	557.73
507.79	-138.58
507.998	-322.9
508.206	221.86
508.414	211.62
508.622	-200.02
508.83	-187.73
509.037	455.33
509.245	4.78
509.453	-208.21
509.661	-288.08
509.869	238.25
510.077	86.7
510.285	-15.7
510.492	-404.82
510.7	610.98
510.908	4.78
511.116	-122.2
511.324	-193.87
511.531	-101.72
511.739	141.99
511.947	-15.7
512.155	98.99
512.362	162.47
512.57	-175.44
512.778	-167.25
512.985	-298.32
513.193	369.32
513.401	438.95
513.608	-175.44
513.816	-165.2
514.024	262.82
514.231	367.27
514.439	-220.5
514.646	-212.31
514.854	174.76
515.061	320.17
515.269	-195.92
515.477	-161.11
515.684	-163.15
515.892	281.25
516.099	-326.99
516.307	-380.24
516.514	242.34
516.722	537.25
516.929	-111.96
517.136	-200.02
517.344	422.56
517.551	182.95
517.759	-206.16
517.966	-97.62
518.173	12.97
518.381	27.31
518.588	-111.96
518.796	-208.21
519.003	238.25
519.21	66.22
519.418	-202.07
519.625	150.18
519.832	103.08
520.039	107.18
520.247	-324.94
520.454	-175.44
520.661	250.53
520.868	215.72
521.076	-9.56
521.283	-97.62
521.49	627.36
521.697	223.91
521.904	-148.82
522.112	-77.14
522.319	391.84
522.526	199.34
522.733	-304.46
522.94	-257.36
523.147	121.51
523.354	322.21
523.561	-253.27
523.768	-93.52
523.975	342.69
524.183	133.8
524.39	-140.63
524.597	-275.79
524.804	164.52
525.011	-36.18
525.218	-134.48
525.425	-165.2
525.632	451.24
525.838	-81.24
526.045	-208.21
526.252	-204.11
526.459	1204.89
526.666	971.42
526.873	-181.59
527.08	-185.68
527.287	488.1
527.494	295.59
527.701	-249.17
527.907	-249.17
528.114	244.39
528.321	123.56
528.528	-126.29
528.735	-85.33
528.941	29.35
529.148	-19.8
529.355	-75.09
529.562	-216.4
529.768	559.78
529.975	31.4
530.182	-93.52
530.388	-191.83
530.595	346.79
530.802	-124.24
531.008	8.87
531.215	-136.53
531.422	778.91
531.628	840.35
531.835	-58.71
532.042	-66.9
532.248	23.21
532.455	199.34
532.661	-73.04
532.868	-206.16
533.074	199.34
533.281	373.41
533.487	-95.57
533.694	-208.21
533.9	-19.8
534.107	283.3
534.313	-216.4
534.52	-218.45
534.726	438.95
534.933	584.35
535.139	-191.83
535.345	-298.32
535.552	223.91
535.758	76.46
535.965	-85.33
536.171	-132.44
536.377	318.12
536.584	508.58
536.79	-122.2
536.996	-50.52
537.203	223.91
537.409	244.39
537.615	-62.8
537.821	2.73
538.028	307.88
538.234	373.41
538.44	-175.44
538.646	-91.48
538.853	217.77
539.059	101.03
539.265	324.26
539.471	-322.9
539.677	381.6
539.883	-89.43
540.09	-169.3
540.296	279.21
540.502	103.08
540.708	-50.52
540.914	35.5
541.12	-58.71
541.326	307.88
541.532	4.78
541.738	-97.62
541.944	-87.38
542.15	416.42
542.356	78.51
542.562	-232.79
542.768	-13.65
542.974	746.14
543.18	668.32
543.386	-140.63
543.592	-232.79
543.798	447.14
544.004	365.22
544.21	-120.15
544.415	-27.99
544.621	178.86
544.827	311.97
545.033	-208.21
545.239	139.94
545.445	-146.77
545.651	211.62
545.856	-179.54
546.062	-89.43
546.268	70.31
546.474	271.01
546.679	-140.63
546.885	-42.32
547.091	49.83
547.297	629.41
547.502	-36.18
547.708	-200.02
547.914	-21.84
548.119	268.97
548.325	-163.15
548.531	-197.97
548.736	574.11
548.942	58.03
549.147	-128.34
549.353	125.61
549.559	502.44
549.764	318.12
549.97	-13.65
550.175	-21.84
550.381	299.69
550.586	37.55
550.792	-85.33
550.997	-101.72
551.203	291.49
551.408	262.82
551.614	-216.4
551.819	-210.26
552.025	608.93
552.23	592.55
552.435	-197.97
552.641	-9.56
552.846	-34.13
553.052	504.48
553.257	62.12
553.462	-126.29
553.668	12.97
553.873	475.81
554.078	-118.1
554.283	-154.96
554.489	299.69
554.694	137.9
554.899	-222.55
555.105	68.27
555.31	330.41
555.515	361.13
555.72	-5.46
555.925	-165.2
556.131	387.75
556.336	27.31
556.541	-89.43
556.746	-271.7
556.951	494.24
557.156	555.68
557.361	43.69
557.567	60.07
557.772	733.86
557.977	340.65
558.182	-101.72
558.387	-109.91
558.592	23.21
558.797	492.2
559.002	33.45
559.207	60.07
559.412	193.19
559.617	588.45
559.822	-101.72
560.027	-167.25
560.232	309.93
560.437	400.04
560.642	-214.35
560.847	-154.96
561.051	166.57
561.256	228.01
561.461	-3.41
561.666	-114
561.871	277.16
562.076	391.84
562.281	-32.08
562.485	-107.86
562.69	424.61
562.895	393.89
563.1	21.16
563.305	-122.2
563.509	434.85
563.714	752.29
563.919	-130.39
564.123	-68.95
564.328	197.29
564.533	457.38
564.737	74.41
564.942	-83.28
565.147	684.7
565.351	641.7
565.556	39.59
565.761	53.93
565.965	213.67
566.17	27.31
566.374	-34.13
566.579	-185.68
566.784	359.08
566.988	88.75
567.193	-200.02
567.397	-48.47
567.602	-40.28
567.806	170.66
568.011	-150.87
568.215	15.02
568.42	185
568.624	193.19
568.828	-73.04
569.033	41.64
569.237	359.08
569.442	303.78
569.646	-216.4
569.85	-9.56
570.055	207.53
570.259	424.61
570.463	205.48
570.668	39.59
570.872	250.53
571.076	225.96
571.281	125.61
571.485	152.23
571.689	207.53
571.893	422.56
572.098	80.55
572.302	-25.94
572.506	486.05
572.71	262.82
572.914	-46.42
573.119	-21.84
573.323	590.5
573.527	586.4
573.731	29.35
573.935	-44.37
574.139	365.22
574.343	180.9
574.547	-19.8
574.751	72.36
574.955	590.5
575.159	484
575.364	35.5
575.568	-101.72
575.772	234.15
575.976	514.72
576.18	-11.61
576.383	-189.78
576.587	604.83
576.791	393.89
576.995	-105.81
577.199	-200.02
577.403	488.1
577.607	545.44
577.811	12.97
578.015	60.07
578.219	285.35
578.422	416.42
578.626	82.6
578.83	115.37
579.034	557.73
579.238	316.07
579.442	-54.61
579.645	465.57
579.849	365.22
580.053	322.21
580.257	35.5
580.46	-3.41
580.664	529.06
580.868	375.46
581.071	205.48
581.275	221.86
581.479	12.97
581.682	481.96
581.886	-93.52
582.09	84.65
582.293	434.85
582.497	588.45
582.7	230.06
582.904	-62.8
583.107	277.16
583.311	180.9
583.515	131.75
583.718	4.78
583.922	434.85
584.125	737.95
584.329	-38.23
584.532	187.05
584.735	545.44
584.939	408.23
585.142	-79.19
585.346	43.69
585.549	406.18
585.753	228.01
585.956	29.35
586.159	115.37
586.363	649.89
586.566	357.03
586.769	-1.37
586.973	-126.29
587.176	449.19
587.379	582.31
587.582	414.37
587.786	283.3
587.989	291.49
588.192	955.04
588.395	111.27
588.599	426.66
588.802	293.54
589.005	490.15
589.208	-1.37
589.411	84.65
589.615	524.96
589.818	737.95
590.021	369.32
590.224	209.58
590.427	561.83
590.63	563.87
590.833	-50.52
591.036	4.78
591.239	262.82
591.442	260.77
591.645	234.15
591.848	39.59
592.051	424.61
592.254	545.44
592.457	113.32
592.66	199.34
592.863	266.92
593.066	414.37
593.269	119.46
593.472	213.67
593.675	135.85
593.878	520.87
594.081	160.42
594.284	-11.61
594.486	504.48
594.689	422.56
594.892	135.85
595.095	139.94
595.298	459.43
595.5	260.77
595.703	193.19
595.906	195.24
596.109	606.88
596.311	586.4
596.514	-179.54
596.717	180.9
596.92	645.79
597.122	451.24
597.325	-107.86
597.528	-7.51
597.73	686.75
597.933	447.14
598.136	119.46
598.338	-140.63
598.541	541.35
598.743	709.28
598.946	125.61
599.148	172.71
599.351	701.09
599.554	656.03
599.756	215.72
599.959	144.04
600.161	694.94
600.363	866.97
600.566	389.8
600.768	70.31
600.971	793.25
601.173	537.25
601.376	119.46
601.578	232.1
601.78	471.72
601.983	942.75
602.185	60.07
602.388	328.36
602.59	547.49
602.792	223.91
602.995	432.8
603.197	158.38
603.399	658.08
603.601	541.35
603.804	135.85
604.006	164.52
604.208	332.45
604.41	66.22
604.613	316.07
604.815	74.41
605.017	983.71
605.219	217.77
605.421	504.48
605.623	156.33
605.826	676.51
606.028	768.67
606.23	203.43
606.432	144.04
606.634	805.53
606.836	668.32
607.038	101.03
607.24	342.69
607.442	475.81
607.644	367.27
607.846	346.79
608.048	29.35
608.25	719.52
608.452	314.02
608.654	268.97
608.856	-1.37
609.058	424.61
609.26	602.79
609.462	273.06
609.664	158.38
609.866	848.54
610.067	625.31
610.269	377.51
610.471	213.67
610.673	357.03
610.875	604.83
611.077	41.64
611.278	342.69
611.48	510.63
611.682	944.8
611.884	426.66
612.085	254.63
612.287	318.12
612.489	590.5
612.69	17.07
612.892	258.73
613.094	651.94
613.295	586.4
613.497	139.94
613.699	185
613.9	807.58
614.102	635.55
614.304	221.86
614.505	84.65
614.707	492.2
614.908	467.62
615.11	55.98
615.311	275.11
615.513	610.98
615.714	719.52
615.916	117.42
616.117	299.69
616.319	471.72
616.52	641.7
616.722	213.67
616.923	154.28
617.124	803.49
617.326	596.64
617.527	375.46
617.729	479.91
617.93	678.56
618.131	709.28
618.333	230.06
618.534	225.96
618.735	320.17
618.937	828.06
619.138	43.69
619.339	217.77
619.54	629.41
619.742	436.9
619.943	412.32
620.144	217.77
620.345	703.14
620.546	750.24
620.748	141.99
620.949	271.01
621.15	520.87
621.351	553.63
621.552	164.52
621.753	146.09
621.954	197.29
622.155	1016.48
622.356	158.38
622.558	389.8
622.759	557.73
622.96	860.83
623.161	316.07
623.362	217.77
623.563	469.67
623.764	641.7
623.965	215.72
624.166	385.7
624.366	430.76
624.567	514.72
624.768	0.68
624.969	258.73
625.17	416.42
625.371	623.27
625.572	346.79
625.773	262.82
625.973	744.1
626.174	656.03
626.375	377.51
626.576	352.93
626.777	647.84
626.977	1110.68
627.178	189.1
627.379	414.37
627.58	512.67
627.78	531.11
627.981	393.89
628.182	438.95
628.382	713.38
628.583	197.29
628.784	199.34
628.984	533.15
629.185	750.24
629.386	635.55
629.586	359.08
629.787	258.73
629.987	723.62
630.188	498.34
630.388	363.17
630.589	397.99
630.79	1135.26
630.99	668.32
631.191	467.62
631.391	418.47
631.591	656.03
631.792	897.69
631.992	410.28
632.193	375.46
632.393	967.32
632.594	512.67
632.794	262.82
632.994	393.89
633.195	508.58
633.395	567.97
633.595	365.22
633.796	518.82
633.996	395.94
634.196	866.97
634.397	150.18
634.597	492.2
634.797	301.73
634.997	981.66
635.198	567.97
635.398	264.87
635.598	537.25
635.798	944.8
635.998	731.81
636.199	172.71
636.399	410.28
636.599	404.13
636.799	416.42
636.999	561.83
637.199	639.65
637.399	901.79
637.599	406.18
637.799	408.23
637.999	430.76
638.199	938.65
638.399	248.49
638.599	340.65
638.799	750.24
638.999	1161.88
639.199	434.85
639.399	555.68
639.599	1047.19
639.799	473.76
639.999	316.07
640.199	254.63
640.399	621.22
640.599	764.58
640.799	430.76
640.998	508.58
641.198	897.69
641.398	727.71
641.598	459.43
641.798	535.2
641.997	1538.71
642.197	666.27
642.397	551.59
642.597	365.22
642.796	707.23
642.996	932.51
643.196	492.2
643.395	246.44
643.595	785.05
643.795	246.44
643.994	369.32
644.194	422.56
644.394	852.64
644.593	694.94
644.793	236.2
644.992	537.25
645.192	899.74
645.392	295.59
645.591	404.13
645.791	438.95
645.99	801.44
646.19	539.3
646.389	447.14
646.589	484
646.788	826.01
646.987	764.58
647.187	653.98
647.386	600.74
647.586	574.11
647.785	893.6
647.984	479.91
648.184	484
648.383	606.88
648.582	567.97
648.782	486.05
648.981	522.91
649.18	504.48
649.38	742.05
649.579	381.6
649.778	332.45
649.977	823.97
650.177	746.14
650.376	361.13
650.575	395.94
650.774	1094.3
650.973	508.58
651.173	211.62
651.372	610.98
651.571	770.72
651.77	946.84
651.969	494.24
652.168	668.32
652.367	432.8
652.566	703.14
652.765	451.24
652.964	735.9
653.163	1161.88
653.362	645.79
653.561	508.58
653.76	406.18
653.959	629.41
654.158	803.49
654.357	672.42
654.556	553.63
654.755	823.97
654.954	996
655.153	518.82
655.352	543.39
655.551	989.85
655.749	559.78
655.948	537.25
656.147	627.36
656.346	864.93
656.545	750.24
656.743	488.1
656.942	574.11
657.141	705.18
657.34	545.44
657.538	596.64
657.737	457.38
657.936	748.19
658.135	842.4
658.333	348.84
658.532	731.81
658.731	1178.26
658.929	993.95
659.128	842.4
659.326	463.52
659.525	1000.09
659.724	721.57
659.922	363.17
660.121	418.47
660.319	852.64
660.518	547.49
660.716	479.91
660.915	420.52
661.113	1127.07
661.312	455.33
661.51	633.51
661.709	271.01
661.907	858.78
662.105	1137.31
662.304	455.33
662.502	598.69
662.701	1084.06
662.899	658.08
663.097	803.49
663.296	357.03
663.494	1069.72
663.692	1102.49
663.891	397.99
664.089	434.85
664.287	897.69
664.485	1079.96
664.684	430.76
664.882	686.75
665.08	819.87
665.278	787.1
665.476	393.89
665.675	830.11
665.873	1219.22
666.071	1059.48
666.269	461.48
666.467	627.36
666.665	801.44
666.863	711.33
667.061	740
667.259	504.48
667.457	807.58
667.655	1020.57
667.853	369.32
668.051	660.13
668.249	543.39
668.447	989.85
668.645	475.81
668.843	737.95
669.041	901.79
669.239	623.27
669.437	699.04
669.635	838.3
669.833	674.46
670.031	1024.67
670.229	703.14
670.426	713.38
670.624	623.27
670.822	584.35
671.02	529.06
671.218	598.69
671.415	582.31
671.613	866.97
671.811	834.21
672.009	576.16
672.206	998.04
672.404	785.05
672.602	801.44
672.799	643.74
672.997	877.21
673.195	1053.34
673.392	766.62
673.59	406.18
673.788	989.85
673.985	336.55
674.183	725.66
674.38	682.66
674.578	993.95
674.775	645.79
674.973	469.67
675.17	561.83
675.368	1178.26
675.565	864.93
675.763	576.16
675.96	488.1
676.158	1155.74
676.355	703.14
676.553	643.74
676.75	529.06
676.947	807.58
677.145	783.01
677.342	721.57
677.539	680.61
677.737	991.9
677.934	1407.64
678.131	823.97
678.329	527.01
678.526	1163.93
678.723	1020.57
678.92	684.7
679.118	670.37
679.315	559.78
679.512	1104.54
679.709	674.46
679.906	633.51
680.104	1053.34
680.301	1008.28
680.498	447.14
680.695	500.39
680.892	629.41
681.089	727.71
681.286	672.42
681.483	459.43
681.68	965.28
681.877	1039
682.075	680.61
682.272	832.16
682.469	907.93
682.665	719.52
682.862	512.67
683.059	414.37
683.256	916.12
683.453	881.31
683.65	690.85
683.847	625.31
684.044	832.16
684.241	699.04
684.438	756.38
684.635	615.07
684.831	1346.2
685.028	1237.66
685.225	610.98
685.422	813.73
685.619	821.92
685.815	826.01
686.012	686.75
686.209	653.98
686.405	651.94
686.602	1041.05
686.799	496.29
686.996	586.4
687.192	508.58
687.389	1249.94
687.586	606.88
687.782	625.31
687.979	1131.16
688.175	1065.63
688.372	690.85
688.568	676.51
688.765	709.28
688.962	1202.84
689.158	778.91
689.355	463.52
689.551	998.04
689.748	748.19
689.944	803.49
690.14	469.67
690.337	1098.39
690.533	709.28
690.73	754.34
690.926	727.71
691.123	957.08
691.319	848.54
691.515	608.93
691.712	801.44
691.908	1057.43
692.104	926.36
692.301	891.55
692.497	502.44
692.693	1079.96
692.889	1137.31
693.086	889.5
693.282	441
693.478	846.49
693.674	1274.52
693.87	733.86
694.067	557.73
694.263	930.46
694.459	819.87
694.655	834.21
694.851	727.71
695.047	1004.19
695.243	1100.44
695.439	832.16
695.635	635.55
695.831	1012.38
696.027	869.02
696.224	660.13
696.42	1059.48
696.615	1104.54
696.811	998.04
697.007	520.87
697.203	688.8
697.399	1067.67
697.595	1055.39
697.791	633.51
697.987	895.65
698.183	688.8
698.379	791.2
698.575	832.16
698.77	666.27
698.966	1118.87
699.162	1127.07
699.358	754.34
699.554	660.13
699.749	1067.67
699.945	1217.18
700.141	819.87
700.337	836.25
700.532	846.49
700.728	692.9
700.924	588.45
701.119	553.63
701.315	993.95
701.511	856.73
701.706	815.77
701.902	541.35
702.097	801.44
702.293	1065.63
702.489	711.33
702.684	651.94
702.88	809.63
703.075	799.39
703.271	754.34
703.466	594.59
703.662	895.65
703.857	1088.15
704.053	699.04
704.248	690.85
704.443	1098.39
704.639	1229.46
704.834	703.14
705.03	766.62
705.225	1063.58
705.42	1094.3
705.616	840.35
705.811	625.31
706.006	819.87
706.202	924.32
706.397	733.86
706.592	541.35
706.787	989.85
706.983	977.56
707.178	963.23
707.373	866.97
707.568	1094.3
707.763	1184.41
707.959	754.34
708.154	692.9
708.349	918.17
708.544	1082.01
708.739	897.69
708.934	660.13
709.129	1098.39
709.324	1100.44
709.519	639.65
709.714	709.28
709.909	1188.5
710.104	1061.53
710.299	723.62
710.494	737.95
710.689	975.52
710.884	957.08
711.079	821.92
711.274	1069.72
711.469	1004.19
711.664	1020.57
711.859	590.5
712.054	860.83
712.249	1110.68
712.443	1141.4
712.638	580.26
712.833	735.9
713.028	885.41
713.223	948.89
713.417	885.41
713.612	651.94
713.807	1192.6
714.002	1483.41
714.196	926.36
714.391	678.56
714.586	1139.35
714.78	1002.14
714.975	823.97
715.17	717.47
715.364	930.46
715.559	1202.84
715.754	438.95
715.948	668.32
716.143	1434.26
716.337	1008.28
716.532	938.65
716.726	737.95
716.921	1172.12
717.115	1348.25
717.31	647.84
717.504	1231.51
717.699	885.41
717.893	1159.83
718.088	737.95
718.282	561.83
718.476	944.8
718.671	1084.06
718.865	758.43
719.059	727.71
719.254	1026.72
719.448	1268.38
719.642	2069.13
719.837	610.98
720.031	1268.38
720.225	1139.35
720.419	809.63
720.614	688.8
720.808	1221.27
721.002	975.52
721.196	615.07
721.39	768.67
721.585	1231.51
721.779	1092.25
721.973	692.9
722.167	594.59
722.361	1077.91
722.555	1311.38
722.749	680.61
722.943	647.84
723.137	742.05
723.331	955.04
723.525	756.38
723.719	742.05
723.913	1059.48
724.107	1383.06
724.301	549.54
724.495	725.66
724.689	1362.58
724.883	1342.1
725.077	705.18
725.271	750.24
725.465	1206.94
725.659	989.85
725.853	883.36
726.046	565.92
726.24	889.5
726.434	1266.33
726.628	686.75
726.822	783.01
727.015	1251.99
727.209	1385.11
727.403	727.71
727.596	572.07
727.79	1215.13
727.984	1331.86
728.177	701.09
728.371	836.25
728.565	1217.18
728.758	746.14
728.952	707.23
729.146	690.85
729.339	1233.56
729.533	909.98
729.726	811.68
729.92	682.66
730.113	1372.82
730.307	1030.81
730.5	793.25
730.694	637.6
730.887	909.98
731.081	1165.98
731.274	651.94
731.468	778.91
731.661	985.76
731.854	875.17
732.048	778.91
732.241	664.22
732.435	807.58
732.628	1039
732.821	842.4
733.014	662.18
733.208	707.23
733.401	1198.74
733.594	694.94
733.788	756.38
733.981	1284.76
734.174	1077.91
734.367	758.43
734.56	977.56
734.754	1219.22
734.947	928.41
735.14	731.81
735.333	883.36
735.526	1153.69
735.719	934.56
735.912	590.5
736.105	701.09
736.298	1088.15
736.491	907.93
736.684	840.35
736.877	676.51
737.07	1088.15
737.263	1317.53
737.456	789.15
737.649	563.87
737.842	891.55
738.035	998.04
738.228	918.17
738.421	836.25
738.614	1256.09
738.807	1233.56
739	590.5
739.192	643.74
739.385	1030.81
739.578	1069.72
739.771	948.89
739.964	686.75
740.156	1135.26
740.349	973.47
740.542	936.6
740.735	641.7
740.927	764.58
741.12	828.06
741.313	666.27
741.505	873.12
741.698	1008.28
741.891	1159.83
742.083	942.75
742.276	719.52
742.468	977.56
742.661	1049.24
742.854	803.49
743.046	778.91
743.239	1440.4
743.431	1018.52
743.624	733.86
743.816	635.55
744.009	942.75
744.201	1145.5
744.393	989.85
744.586	709.28
744.778	1290.9
744.971	1073.82
745.163	869.02
745.355	834.21
745.548	1053.34
745.74	965.28
745.932	967.32
746.125	803.49
746.317	1526.42
746.509	1073.82
746.702	789.15
746.894	787.1
747.086	1145.5
747.278	1346.2
747.471	924.32
747.663	830.11
747.855	946.84
748.047	1268.38
748.239	678.56
748.431	840.35
748.623	1331.86
748.815	1391.25
749.008	737.95
749.2	674.46
749.392	1170.07
749.584	1264.28
749.776	885.41
749.968	922.27
750.16	1471.12
750.352	1032.86
750.544	879.26
750.736	717.47
750.928	1256.09
751.12	1008.28
751.311	811.68
751.503	897.69
751.695	1096.35
751.887	1051.29
752.079	680.61
752.271	858.78
752.463	1831.57
752.654	1251.99
752.846	895.65
753.038	830.11
753.23	815.77
753.421	1276.57
753.613	758.43
753.805	1069.72
753.997	1346.2
754.188	1313.43
754.38	731.81
754.572	901.79
754.763	993.95
754.955	1135.26
755.146	877.21
755.338	879.26
755.53	1176.22
755.721	1022.62
755.913	627.36
756.104	752.29
756.296	1067.67
756.487	1268.38
756.679	635.55
756.87	723.62
757.062	903.84
757.253	1155.74
757.445	852.64
757.636	1024.67
757.827	1004.19
758.019	1598.1
758.21	672.42
758.401	776.86
758.593	1546.9
758.784	1432.21
758.975	715.42
759.167	588.45
759.358	1047.19
759.549	1299.09
759.74	823.97
759.932	780.96
760.123	1368.73
760.314	854.69
760.505	893.6
760.696	783.01
760.888	1528.47
761.079	1041.05
761.27	721.57
761.461	668.32
761.652	1407.64
761.843	963.23
762.034	836.25
762.225	1104.54
762.416	1032.86
762.607	983.71
762.798	811.68
762.989	840.35
763.18	1696.4
763.371	971.42
763.562	815.77
763.753	737.95
763.944	1180.31
764.135	1127.07
764.326	895.65
764.517	813.73
764.708	1114.78
764.899	1151.64
765.089	750.24
765.28	760.48
765.471	1215.13
765.662	1243.8
765.853	877.21
766.043	627.36
766.234	1360.53
766.425	1073.82
766.615	848.54
766.806	752.29
766.997	1340.05
767.187	1137.31
767.378	783.01
767.569	721.57
767.759	1233.56
767.95	1000.09
768.141	922.27
768.331	727.71
768.522	926.36
768.712	1176.22
768.903	680.61
769.093	725.66
769.284	1462.93
769.474	1034.91
769.665	750.24
769.855	565.92
770.046	1217.18
770.236	924.32
770.426	981.66
770.617	580.26
770.807	1159.83
770.998	989.85
771.188	1061.53
771.378	768.67
771.569	1149.59
771.759	1116.83
771.949	670.37
772.139	506.53
772.33	1168.02
772.52	1421.97
772.71	748.19
772.9	701.09
773.09	1507.99
773.281	1315.48
773.471	815.77
773.661	758.43
773.851	1221.27
774.041	885.41
774.231	713.38
774.421	938.65
774.611	1421.97
774.802	977.56
774.992	832.16
775.182	727.71
775.372	1055.39
775.562	1295
775.752	809.63
775.942	737.95
776.131	1329.81
776.321	1229.46
776.511	725.66
776.701	670.37
776.891	1309.33
777.081	801.44
777.271	856.73
777.461	742.05
777.651	1163.93
777.84	1338.01
778.03	877.21
778.22	791.2
778.41	1378.97
778.599	805.53
778.789	914.08
778.979	785.05
779.169	1092.25
779.358	1039
779.548	1077.91
779.738	561.83
779.927	1127.07
780.117	711.33
780.307	750.24
780.496	524.96
780.686	942.75
780.875	1436.31
781.065	809.63
781.254	858.78
781.444	1079.96
781.633	1100.44
781.823	703.14
782.012	713.38
782.202	930.46
782.391	946.84
782.581	707.23
782.77	989.85
782.96	1110.68
783.149	967.32
783.338	709.28
783.528	555.68
783.717	1239.7
783.906	1282.71
784.096	799.39
784.285	662.18
784.474	946.84
784.663	860.83
784.853	864.93
785.042	819.87
785.231	961.18
785.42	1178.26
785.61	832.16
785.799	498.34
785.988	881.31
786.177	932.51
786.366	805.53
786.555	909.98
786.744	1170.07
786.933	963.23
787.122	578.21
787.312	580.26
787.501	819.87
787.69	1057.43
787.879	725.66
788.068	742.05
788.257	752.29
788.445	877.21
788.634	813.73
788.823	649.89
789.012	1575.57
789.201	1319.57
789.39	778.91
789.579	649.89
789.768	934.56
789.957	983.71
790.145	705.18
790.334	400.04
790.523	877.21
790.712	938.65
790.9	832.16
791.089	527.01
791.278	1163.93
791.467	1127.07
791.655	996
791.844	1133.21
792.033	916.12
792.221	1047.19
792.41	873.12
792.599	494.24
792.787	1061.53
792.976	1159.83
793.164	692.9
793.353	746.14
793.541	1186.46
793.73	1073.82
793.918	848.54
794.107	832.16
794.295	1014.43
794.484	1000.09
794.672	783.01
794.861	717.47
795.049	1151.64
795.238	1444.5
795.426	545.44
795.614	895.65
795.803	1000.09
795.991	1340.05
796.179	721.57
796.368	660.13
796.556	1196.7
796.744	819.87
796.932	713.38
797.121	635.55
797.309	963.23
797.497	1157.79
797.685	766.62
797.874	715.42
798.062	942.75
798.25	1374.87
798.438	572.07
798.626	742.05
798.814	1168.02
799.002	1483.41
799.19	889.5
799.378	842.4
799.566	1153.69
799.755	1360.53
799.943	899.74
800.131	696.99
800.318	1100.44
800.506	1211.03
800.694	828.06
800.882	887.45
801.07	1198.74
801.258	869.02
801.446	670.37
801.634	672.42
801.822	991.9
802.01	940.7
802.197	651.94
802.385	797.34
802.573	934.56
802.761	725.66
802.949	803.49
803.136	570.02
803.324	1213.08
803.512	914.08
803.699	848.54
803.887	602.79
804.075	1387.16
804.262	875.17
804.45	604.83
804.638	840.35
804.825	885.41
805.013	926.36
805.201	750.24
805.388	639.65
805.576	895.65
805.763	1323.67
805.951	819.87
806.138	873.12
806.326	1464.98
806.513	1151.64
806.701	879.26
806.888	770.72
807.075	1176.22
807.263	1512.08
807.45	651.94
807.638	848.54
807.825	1481.36
808.012	1262.23
808.2	856.73
808.387	1012.38
808.574	1088.15
808.761	1323.67
808.949	742.05
809.136	887.45
809.323	930.46
809.51	979.61
809.698	1186.46
809.885	922.27
810.072	1163.93
810.259	1309.33
810.446	926.36
810.633	701.09
810.82	1208.98
811.008	1315.48
811.195	944.8
811.382	895.65
811.569	1039
811.756	701.09
811.943	809.63
812.13	846.49
812.317	891.55
812.504	901.79
812.691	885.41
812.878	836.25
813.064	1444.5
813.251	1053.34
813.438	772.77
813.625	979.61
813.812	1036.95
813.999	942.75
814.186	801.44
814.372	918.17
814.559	1030.81
814.746	1440.4
814.933	750.24
815.12	1022.62
815.306	905.88
815.493	783.01
815.68	733.86
815.866	838.3
816.053	1286.81
816.24	1686.16
816.426	858.78
816.613	750.24
816.799	1157.79
816.986	1305.24
817.173	770.72
817.359	737.95
817.546	1110.68
817.732	850.59
817.919	680.61
818.105	836.25
818.292	889.5
818.478	1217.18
818.665	985.76
818.851	709.28
819.037	1626.77
819.224	1178.26
819.41	752.29
819.597	731.81
819.783	1477.27
819.969	1086.11
820.156	819.87
820.342	801.44
820.528	1802.9
820.714	1069.72
820.901	985.76
821.087	873.12
821.273	1483.41
821.459	981.66
821.646	770.72
821.832	754.34
822.018	1114.78
822.204	1043.1
822.39	834.21
822.576	727.71
822.762	1305.24
822.948	1208.98
823.134	957.08
823.32	809.63
823.507	705.18
823.693	1239.7
823.879	1223.32
824.065	897.69
824.25	1086.11
824.436	848.54
824.622	795.29
824.808	688.8
824.994	891.55
825.18	922.27
825.366	725.66
825.552	889.5
825.738	1018.52
825.923	1217.18
826.109	1032.86
826.295	770.72
826.481	961.18
826.667	987.8
826.852	891.55
827.038	756.38
827.224	1262.23
827.409	1426.07
827.595	545.44
827.781	1014.43
827.966	1268.38
828.152	1313.43
828.338	815.77
828.523	674.46
828.709	885.41
828.894	1530.52
829.08	770.72
829.266	801.44
829.451	866.97
829.637	1280.66
829.822	985.76
830.008	746.14
830.193	1284.76
830.378	1421.97
830.564	852.64
830.749	623.27
830.935	1237.66
831.12	1178.26
831.305	682.66
831.491	924.32
831.676	811.68
831.861	1290.9
832.047	864.93
832.232	656.03
832.417	1325.72
832.602	1088.15
832.788	742.05
832.973	721.57
833.158	1028.76
833.343	1086.11
833.528	952.99
833.714	799.39
833.899	1206.94
834.084	1495.7
834.269	961.18
834.454	809.63
834.639	1270.42
834.824	1018.52
835.009	1010.33
835.194	987.8
835.379	1206.94
835.564	1417.88
835.749	940.7
835.934	688.8
836.119	1235.61
836.304	1051.29
836.489	799.39
836.674	1082.01
836.859	899.74
837.044	1432.21
837.228	778.91
837.413	684.7
837.598	1073.82
837.783	1254.04
837.968	729.76
838.152	623.27
838.337	623.27
838.522	1383.06
838.707	1227.42
838.891	1004.19
839.076	1127.07
839.261	1319.57
839.445	873.12
839.63	887.45
839.815	1456.79
839.999	924.32
840.184	791.2
840.368	772.77
840.553	1229.46
840.737	1170.07
840.922	774.81
841.106	733.86
841.291	842.4
841.475	1036.95
841.66	869.02
841.844	877.21
842.029	1737.36
842.213	830.11
842.397	799.39
842.582	680.61
842.766	1348.25
842.951	1290.9
843.135	696.99
843.319	866.97
843.504	1096.35
843.688	1280.66
843.872	711.33
844.056	795.29
844.241	1168.02
844.425	1012.38
844.609	957.08
844.793	537.25
844.977	1280.66
845.161	1131.16
845.346	696.99
845.53	795.29
845.714	1055.39
845.898	1397.4
846.082	604.83
846.266	682.66
846.45	1018.52
846.634	1041.05
846.818	680.61
847.002	963.23
847.186	1196.7
847.37	807.58
847.554	672.42
847.738	942.75
847.922	1016.48
848.106	1082.01
848.29	701.09
848.473	750.24
848.657	1231.51
848.841	1004.19
849.025	733.86
849.209	582.31
849.392	1086.11
849.576	969.37
849.76	463.52
849.944	840.35
850.127	1301.14
850.311	760.48
850.495	563.87
850.678	578.21
850.862	1282.71
851.046	1469.08
851.229	977.56
851.413	672.42
851.596	1000.09
851.78	1024.67
851.964	866.97
852.147	823.97
852.331	1725.07
852.514	1358.49
852.698	893.6
852.881	668.32
853.065	1299.09
853.248	1151.64
853.431	768.67
853.615	846.49
853.798	1587.86
853.982	950.94
854.165	821.92
854.348	752.29
854.532	787.1
854.715	875.17
854.898	688.8
855.081	721.57
855.265	1278.62
855.448	1366.68
855.631	805.53
855.814	785.05
855.997	1268.38
856.181	864.93
856.364	873.12
856.547	545.44
856.73	1051.29
856.913	1092.25
857.096	567.97
857.279	860.83
857.462	852.64
857.645	1254.04
857.828	901.79
858.011	838.3
858.194	842.4
858.377	1231.51
858.56	619.17
858.743	729.76
858.926	774.81
859.109	1071.77
859.292	651.94
859.475	608.93
859.658	1241.75
859.841	1065.63
860.023	512.67
860.206	643.74
860.389	1004.19
860.572	1295
860.755	664.22
860.937	828.06
861.12	983.71
861.303	952.99
861.486	737.95
861.668	740
861.851	1221.27
862.034	1045.15
862.216	844.45
862.399	563.87
862.581	1065.63
862.764	1503.89
862.947	914.08
863.129	672.42
863.312	690.85
863.494	1387.16
863.677	1000.09
863.859	590.5
864.042	1120.92
864.224	1383.06
864.406	811.68
864.589	510.63
864.771	1079.96
864.954	711.33
865.136	715.42
865.318	639.65
865.501	1135.26
865.683	514.72
865.865	807.58
866.048	746.14
866.23	1059.48
866.412	983.71
866.594	590.5
866.777	717.47
866.959	1251.99
867.141	803.49
867.323	1063.58
867.505	858.78
867.687	844.45
867.869	948.89
868.052	811.68
868.234	602.79
868.416	920.22
868.598	1120.92
868.78	721.57
868.962	463.52
869.144	1274.52
869.326	1188.5
869.508	807.58
869.69	604.83
869.872	805.53
870.054	1307.29
870.236	627.36
870.417	619.17
870.599	942.75
870.781	1282.71
870.963	778.91
871.145	692.9
871.327	670.37
871.508	1227.42
871.69	688.8
871.872	721.57
872.054	893.6
872.235	1051.29
872.417	770.72
872.599	553.63
872.78	1358.49
872.962	991.9
873.144	596.64
873.325	701.09
873.507	1344.15
873.689	1004.19
873.87	494.24
874.052	815.77
874.233	938.65
874.415	1155.74
874.596	664.22
874.778	582.31
874.959	1098.39
875.141	1317.53
875.322	799.39
875.503	668.32
875.685	996
875.866	561.83
876.048	627.36
876.229	510.63
876.41	899.74
876.592	1079.96
876.773	699.04
876.954	492.2
877.136	1333.91
877.317	725.66
877.498	479.91
877.679	731.81
877.86	1168.02
878.042	856.73
878.223	647.84
878.404	932.51
878.585	1155.74
878.766	1378.97
878.947	907.93
879.128	864.93
879.309	1106.59
879.49	1215.13
879.672	821.92
879.853	869.02
880.034	789.15
880.215	955.04
880.396	762.53
880.576	713.38
880.757	807.58
880.938	1247.9
881.119	719.52
881.3	731.81
881.481	795.29
881.662	1841.81
881.843	666.27
882.023	543.39
882.204	1084.06
882.385	1018.52
882.566	764.58
882.747	688.8
882.927	1049.24
883.108	1122.97
883.289	639.65
883.469	950.94
883.65	756.38
883.831	1008.28
884.011	850.59
884.192	791.2
884.373	1196.7
884.553	1061.53
884.734	914.08
884.914	1106.59
885.095	1622.67
885.275	1366.68
885.456	1063.58
885.636	629.41
885.817	823.97
885.997	922.27
886.178	774.81
886.358	862.88
886.538	1045.15
886.719	1958.54
886.899	776.86
887.08	778.91
887.26	1276.57
887.44	746.14
887.621	670.37
887.801	760.48
887.981	1551
888.161	1196.7
888.342	918.17
888.522	696.99
888.702	1233.56
888.882	1270.42
889.062	924.32
889.242	457.38
889.423	1510.04
889.603	1139.35
889.783	885.41
889.963	711.33
890.143	1161.88
890.323	1278.62
890.503	914.08
890.683	793.25
890.863	1020.57
891.043	1127.07
891.223	834.21
891.403	1094.3
891.583	1118.87
891.763	1122.97
891.943	856.73
892.122	625.31
892.302	1073.82
892.482	1012.38
892.662	907.93
892.842	860.83
893.022	1213.08
893.201	1049.24
893.381	950.94
893.561	799.39
893.741	1206.94
893.92	1122.97
894.1	1049.24
894.28	844.45
894.459	1266.33
894.639	1039
894.819	817.82
894.998	950.94
895.178	1213.08
895.357	1264.28
895.537	778.91
895.716	670.37
895.896	1102.49
896.075	1501.84
896.255	742.05
896.434	619.17
896.614	1274.52
896.793	1405.59
896.973	940.7
897.152	942.75
897.331	1161.88
897.511	1305.24
897.69	711.33
897.87	922.27
898.049	1266.33
898.228	1039
898.407	1022.62
898.587	1014.43
898.766	873.12
898.945	1198.74
899.124	1071.77
899.304	922.27
899.483	1200.79
899.662	1573.52
899.841	774.81
900.02	893.6
900.199	1299.09
900.378	1190.55
900.557	803.49
900.737	721.57
900.916	1165.98
901.095	1360.53
901.274	1053.34
901.453	760.48
901.632	1032.86
901.811	1004.19
901.989	838.3
902.168	692.9
902.347	1249.94
902.526	952.99
902.705	866.97
902.884	930.46
903.063	1344.15
903.242	1358.49
903.42	709.28
903.599	885.41
903.778	1303.19
903.957	1381.01
904.135	938.65
904.314	885.41
904.493	1102.49
904.672	1172.12
904.85	733.86
905.029	873.12
905.207	1155.74
905.386	1841.81
905.565	703.14
905.743	852.64
905.922	942.75
906.1	1407.64
906.279	705.18
906.457	699.04
906.636	987.8
906.814	1024.67
906.993	778.91
907.171	694.94
907.35	1313.43
907.528	1295
907.707	985.76
907.885	713.38
908.063	1471.12
908.242	926.36
908.42	854.69
908.598	623.27
908.777	1180.31
908.955	1024.67
909.133	967.32
909.311	613.03
909.49	1028.76
909.668	934.56
909.846	879.26
910.024	570.02
910.202	1098.39
910.38	1135.26
910.559	694.94
910.737	758.43
910.915	1082.01
911.093	1149.59
911.271	889.5
911.449	952.99
911.627	1143.45
911.805	1460.88
911.983	785.05
912.161	852.64
912.339	1098.39
912.517	1309.33
912.695	875.17
912.872	795.29
913.05	869.02
913.228	1108.63
913.406	744.1
913.584	723.62
913.762	1157.79
913.939	852.64
914.117	766.62
914.295	725.66
914.473	1112.73
914.65	1047.19
914.828	830.11
915.006	705.18
915.184	766.62
915.361	1016.48
915.539	985.76
915.716	924.32
915.894	1022.62
916.072	1157.79
916.249	924.32
916.427	926.36
916.604	733.86
916.782	1102.49
916.959	619.17
917.137	797.34
917.314	1092.25
917.492	1190.55
917.669	869.02
917.847	860.83
918.024	1102.49
918.201	869.02
918.379	883.36
918.556	926.36
918.733	1202.84
918.911	934.56
919.088	959.13
919.265	678.56
919.442	1032.86
919.62	907.93
919.797	737.95
919.974	658.08
920.151	961.18
920.328	975.52
920.506	752.29
920.683	844.45
920.86	836.25
921.037	774.81
921.214	721.57
921.391	676.51
921.568	1198.74
921.745	731.81
921.922	672.42
922.099	672.42
922.276	1256.09
922.453	1024.67
922.63	701.09
922.807	1096.35
922.984	1067.67
923.161	735.9
923.338	701.09
923.514	664.22
923.691	993.95
923.868	975.52
924.045	629.41
924.222	572.07
924.399	918.17
924.575	1260.18
924.752	672.42
924.929	762.53
925.105	989.85
925.282	637.6
925.459	735.9
925.635	705.18
925.812	809.63
925.989	787.1
926.165	660.13
926.342	520.87
926.518	828.06
926.695	918.17
926.871	688.8
927.048	524.96
927.224	1051.29
927.401	909.98
927.577	699.04
927.754	498.34
927.93	1108.63
928.107	1059.48
928.283	641.7
928.459	795.29
928.636	1004.19
928.812	725.66
928.988	578.21
929.165	516.77
929.341	875.17
929.517	907.93
929.693	942.75
929.87	391.84
930.046	983.71
930.222	764.58
930.398	529.06
930.574	754.34
930.751	926.36
930.927	776.86
931.103	631.46
931.279	570.02
931.455	635.55
931.631	828.06
931.807	375.46
931.983	371.37
932.159	553.63
932.335	795.29
932.511	586.4
932.687	578.21
932.863	852.64
933.039	750.24
933.215	441
933.391	486.05
933.566	690.85
933.742	799.39
933.918	473.76
934.094	393.89
934.27	748.19
934.445	854.69
934.621	496.29
934.797	506.53
934.973	971.42
935.148	799.39
935.324	424.61
935.5	238.25
935.675	1002.14
935.851	731.81
936.027	436.9
936.202	541.35
936.378	807.58
936.553	692.9
936.729	852.64
936.904	348.84
937.08	412.32
937.255	555.68
937.431	291.49
937.606	254.63
937.782	547.49
937.957	672.42
938.133	426.66
938.308	316.07
938.483	553.63
938.659	291.49
938.834	434.85
939.009	221.86
939.185	510.63
939.36	375.46
939.535	35.5
939.71	451.24
939.886	805.53
940.061	664.22
940.236	410.28
940.411	307.88
940.586	664.22
940.761	705.18
940.937	305.83
941.112	246.44
941.287	586.4
941.462	529.06
941.637	250.53
941.812	283.3
941.987	596.64
942.162	500.39
942.337	402.08
942.512	185
942.687	750.24
942.862	617.12
943.037	131.75
943.212	-27.99
943.386	420.52
943.561	520.87
943.736	350.89
943.911	602.79
944.086	584.35
944.26	649.89
944.435	279.21
944.61	385.7
944.785	809.63
944.959	924.32
945.134	287.4
945.309	152.23
945.483	318.12
945.658	619.17
945.833	-34.13
946.007	150.18
946.182	895.65
946.357	238.25
946.531	107.18
946.706	189.1
946.88	47.79
947.055	479.91
947.229	221.86
947.404	49.83
947.578	600.74
947.752	383.65
947.927	92.84
948.101	94.89
948.276	418.47
948.45	406.18
948.624	383.65
948.799	197.29
948.973	563.87
949.147	115.37
949.321	170.66
949.496	201.38
949.67	696.99
949.844	287.4
950.018	201.38
950.193	209.58
950.367	907.93
950.541	406.18
950.715	295.59
950.889	465.57
951.063	354.98
951.237	459.43
951.411	19.11
951.585	6.83
951.759	459.43
951.933	367.27
952.107	74.41
952.281	311.97
952.455	729.76
952.629	578.21
952.803	193.19
952.977	103.08
953.151	527.01
953.325	443.04
953.499	324.26
953.672	98.99
953.846	225.96
954.02	412.32
954.194	162.47
954.368	182.95
954.541	537.25
954.715	268.97
954.889	307.88
955.062	70.31
955.236	457.38
955.41	254.63
955.583	289.45
955.757	78.51
955.93	295.59
956.104	185
956.278	244.39
956.451	213.67
956.625	551.59
956.798	836.25
956.972	475.81
957.145	107.18
957.319	459.43
957.492	320.17
957.665	418.47
957.839	113.32
958.012	477.86
958.185	217.77
958.359	160.42
958.532	350.89
958.705	578.21
958.879	514.72
959.052	205.48
959.225	0.68
959.398	311.97
959.572	502.44
959.745	234.15
959.918	244.39
960.091	344.74
960.264	598.69
960.438	148.14
960.611	129.7
960.784	561.83
960.957	264.87
961.13	508.58
961.303	160.42
961.476	397.99
961.649	602.79
961.822	205.48
961.995	252.58
962.168	541.35
962.341	422.56
962.514	185
962.686	111.27
962.859	330.41
963.032	578.21
963.205	43.69
963.378	60.07
963.551	488.1
963.723	514.72
963.896	301.73
964.069	418.47
964.242	432.8
964.414	586.4
964.587	193.19
964.76	277.16
964.932	488.1
965.105	369.32
965.278	189.1
965.45	129.7
965.623	402.08
965.795	586.4
965.968	35.5
966.14	160.42
966.313	287.4
966.485	418.47
966.658	150.18
966.83	195.24
967.003	574.11
967.175	565.92
967.348	189.1
967.52	277.16
967.692	639.65
967.865	496.29
968.037	248.49
968.209	420.52
968.382	363.17
968.554	563.87
968.726	242.34
968.898	123.56
969.071	412.32
969.243	500.39
969.415	271.01
969.587	232.1
969.759	844.45
969.932	623.27
970.104	228.01
970.276	-118.1
970.448	293.54
970.62	379.56
970.792	248.49
970.964	287.4
971.136	871.07
971.308	549.54
971.48	137.9
971.652	139.94
971.824	756.38
971.996	311.97
972.168	199.34
972.339	217.77
972.511	545.44
972.683	381.6
972.855	449.19
973.027	225.96
973.199	348.84
973.37	408.23
973.542	357.03
973.714	316.07
973.886	324.26
974.057	537.25
974.229	103.08
974.401	131.75
974.572	170.66
974.744	-34.13
974.915	78.51
975.087	131.75
975.259	742.05
975.43	250.53
975.602	152.23
975.773	53.93
975.945	168.62
976.116	533.15
976.288	64.17
976.459	397.99
976.63	256.68
976.802	479.91
976.973	189.1
977.145	279.21
977.316	842.4
977.487	645.79
977.659	266.92
977.83	207.53
978.001	762.53
978.172	434.85
978.344	78.51
978.515	219.82
978.686	291.49
978.857	666.27
979.028	217.77
979.2	135.85
979.371	576.16
979.542	426.66
979.713	297.64
979.884	-179.54
980.055	164.52
980.226	295.59
980.397	174.76
980.568	74.41
980.739	639.65
980.91	320.17
981.081	240.3
981.252	84.65
981.423	479.91
981.594	549.54
981.765	27.31
981.936	164.52
982.106	354.98
982.277	563.87
982.448	121.51
982.619	260.77
982.79	299.69
982.96	623.27
983.131	258.73
983.302	-81.24
983.472	146.09
983.643	461.48
983.814	279.21
983.984	70.31
984.155	338.6
984.326	578.21
984.496	225.96
984.667	70.31
984.837	250.53
985.008	633.51
985.178	338.6
985.349	180.9
985.519	283.3
985.69	185
985.86	201.38
986.031	113.32
986.201	414.37
986.371	477.86
986.542	53.93
986.712	-120.15
986.882	547.49
987.053	367.27
987.223	-64.85
987.393	252.58
987.563	258.73
987.734	461.48
987.904	348.84
988.074	129.7
988.244	426.66
988.414	213.67
988.585	103.08
988.755	256.68
988.925	340.65
989.095	752.29
989.265	39.59
989.435	238.25
989.605	488.1
989.775	496.29
989.945	397.99
990.115	-3.41
990.285	369.32
990.455	402.08
990.625	168.62
990.795	60.07
990.965	676.51
991.134	174.76
991.304	17.07
991.474	74.41
991.644	418.47
991.814	694.94
991.984	-25.94
992.153	29.35
992.323	291.49
992.493	262.82
992.662	-183.63
992.832	139.94
993.002	481.96
993.171	377.51
993.341	-128.34
993.511	275.11
993.68	203.43
993.85	494.24
994.019	-101.72
994.189	-46.42
994.358	307.88
994.528	86.7
994.697	-189.78
994.867	-46.42
995.036	449.19
995.206	111.27
995.375	-21.84
995.544	209.58
995.714	338.6
995.883	271.01
996.052	221.86
996.222	-187.73
996.391	797.34
996.56	357.03
996.73	80.55
996.899	-128.34
997.068	610.98
997.237	248.49
997.406	-50.52
997.576	-116.05
997.745	367.27
997.914	258.73
998.083	-202.07
998.252	29.35
998.421	258.73
998.59	250.53
998.759	-75.09
998.928	-154.96
999.097	522.91
999.266	393.89
999.435	166.57
999.604	-224.59
999.773	699.04
999.942	213.67
1000.111	-114
1000.28	-154.96
1000.448	8.87
1000.617	-58.71
1000.786	291.49
1000.955	-105.81
1001.124	303.78
1001.292	883.36
1001.461	-38.23
1001.63	-124.24
1001.798	592.55
1001.967	553.63
1002.136	-89.43
1002.304	-89.43
1002.473	322.21
1002.642	258.73
1002.81	121.51
1002.979	-75.09
1003.147	488.1
1003.316	877.21
1003.484	-25.94
1003.653	-163.15
1003.821	557.73
1003.99	264.87
1004.158	117.42
1004.327	55.98
1004.495	406.18
1004.663	90.79
1004.832	96.94
1005	-150.87
1005.168	426.66
1005.337	352.93
1005.505	-177.49
1005.673	94.89
1005.842	291.49
1006.01	307.88
1006.178	-130.39
1006.346	-56.66
1006.514	385.7
1006.683	463.52
1006.851	-66.9
1007.019	-167.25
1007.187	-19.8
1007.355	-220.5
1007.523	-281.94
1007.691	-177.49
1007.859	-58.71
1008.027	498.34
1008.195	-124.24
1008.363	-97.62
1008.531	377.51
1008.699	96.94
1008.867	-159.06
1009.035	-95.57
1009.203	541.35
1009.37	287.4
1009.538	-30.04
1009.706	363.17
1009.874	314.02
1010.042	176.81
1010.209	-204.11
1010.377	-165.2
1010.545	545.44
1010.713	262.82
1010.88	-159.06
1011.048	-64.85
1011.216	170.66
1011.383	463.52
1011.551	-122.2
1011.718	-220.5
1011.886	518.82
1012.054	164.52
1012.221	-105.81
1012.389	-193.87
1012.556	133.8
1012.724	559.78
1012.891	-1.37
1013.058	-263.51
1013.226	381.6
1013.393	311.97
1013.561	-216.4
1013.728	-212.31
1013.895	475.81
1014.063	406.18
1014.23	-243.03
1014.397	-200.02
1014.565	391.84
1014.732	215.72
1014.899	-154.96
1015.066	-159.06
1015.233	242.34
1015.401	375.46
1015.568	-48.47
1015.735	-85.33
1015.902	209.58
1016.069	383.65
1016.236	-144.72
1016.403	-150.87
1016.57	37.55
1016.737	359.08
1016.904	-23.89
1017.071	-161.11
1017.238	119.46
1017.405	430.76
1017.572	-140.63
1017.739	66.22
1017.906	395.94
1018.073	371.37
1018.24	-171.35
1018.407	-95.57
1018.573	447.14
1018.74	146.09
1018.907	-62.8
1019.074	-245.07
1019.241	422.56
1019.407	211.62
1019.574	-134.48
1019.741	-224.59
1019.907	275.11
1020.074	324.26
1020.241	-288.08
1020.407	-230.74
1020.574	393.89
1020.74	307.88
1020.907	-116.05
1021.073	-181.59
1021.24	742.05
1021.406	469.67
1021.573	-226.64
1021.739	-128.34
1021.906	377.51
1022.072	94.89
1022.239	-142.68
1022.405	-77.14
1022.571	242.34
1022.738	27.31
1022.904	-195.92
1023.07	-50.52
1023.237	258.73
1023.403	455.33
1023.569	-103.76
1023.735	-122.2
1023.902	213.67
1024.068	137.9
1024.234	-185.68
1024.4	-165.2
1024.566	303.78
1024.732	436.9
1024.898	-150.87
1025.065	-236.88
1025.231	451.24
1025.397	101.03
1025.563	-150.87
1025.729	-200.02
1025.895	-163.15
1026.061	19.11
1026.227	-318.8
1026.392	-103.76
1026.558	412.32
1026.724	260.77
1026.89	-202.07
1027.056	-46.42
1027.222	209.58
1027.388	107.18
1027.553	-93.52
1027.719	-167.25
1027.885	678.56
1028.051	340.65
1028.216	-261.46
1028.382	-148.82
1028.548	334.5
1028.713	111.27
1028.879	-271.7
1029.045	47.79
1029.21	520.87
1029.376	438.95
1029.541	-183.63
1029.707	-101.72
1029.873	342.69
1030.038	475.81
1030.204	-157.01
1030.369	-101.72
1030.534	402.08
1030.7	55.98
1030.865	-30.04
1031.031	-183.63
1031.196	219.82
1031.361	205.48
1031.527	-240.98
1031.692	-243.03
1031.857	-200.02
1032.023	434.85
1032.188	-224.59
1032.353	-109.91
1032.518	520.87
1032.684	256.68
1032.849	-314.7
1033.014	-187.73
1033.179	381.6
1033.344	357.03
1033.509	-130.39
1033.674	-154.96
1033.839	453.28
1034.004	328.36
1034.17	-109.91
1034.335	-212.31
1034.5	109.23
1034.664	-1.37
1034.829	-177.49
1034.994	-154.96
1035.159	242.34
1035.324	187.05
1035.489	-163.15
1035.654	-206.16
1035.819	381.6
1035.984	234.15
1036.148	-97.62
1036.313	-89.43
1036.478	445.09
1036.643	111.27
1036.807	-200.02
1036.972	-165.2
1037.137	555.68
1037.301	258.73
1037.466	-261.46
1037.631	-30.04
1037.795	422.56
1037.96	264.87
1038.124	29.35
1038.289	-230.74
1038.454	383.65
1038.618	324.26
1038.783	-118.1
1038.947	-130.39
1039.111	289.45
1039.276	166.57
1039.44	-89.43
1039.605	230.06
1039.769	74.41
1039.933	217.77
1040.098	-91.48
1040.262	53.93
1040.426	342.69
1040.591	406.18
1040.755	-255.31
1040.919	-122.2
1041.083	242.34
1041.248	213.67
1041.412	-324.94
1041.576	-277.84
1041.74	150.18
1041.904	389.8
1042.068	-169.3
1042.232	-212.31
1042.397	436.9
1042.561	264.87
1042.725	-433.49
1042.889	58.03
1043.053	359.08
1043.217	340.65
1043.381	-38.23
1043.544	-286.03
1043.708	416.42
1043.872	-71
1044.036	-367.95
1044.2	-253.27
1044.364	434.85
1044.528	615.07
1044.691	3048.06
1044.855	-281.94
1045.019	395.94
1045.183	338.6
1045.346	-179.54
1045.51	-275.79
1045.674	316.07
1045.837	348.84
1046.001	-175.44
1046.165	-150.87
1046.328	807.58
1046.492	289.45
1046.655	41.64
1046.819	-5.46
1046.983	123.56
1047.146	393.89
1047.31	6.83
1047.473	-238.93
1047.636	156.33
1047.8	60.07
1047.963	-228.69
1048.127	-216.4
1048.29	25.26
