Data from Ink_Intensity_USB4F045381__33__00033.txt Node

Date: Mon Jul 17 09:49:09 EDT 2023
User: mmckonesweet
Spectrometer: USB4F04538
Trigger mode: 4
Integration Time (sec): 9.000000E-1
Scans to average: 1
Electric dark correction enabled: true
Nonlinearity correction enabled: false
Boxcar width: 0
XAxis mode: Wavelengths
Number of Pixels in Spectrum: 3648
>>>>>Begin Spectral Data<<<<<
345.52	-921.76
345.736	-921.76
345.952	-921.76
346.168	-1009.82
346.384	-970.91
346.6	-55.47
346.816	-256.17
347.032	-114.86
347.248	218.96
347.464	-182.44
347.68	-145.58
347.896	149.33
348.112	364.37
348.328	-45.23
348.544	-127.14
348.76	-30.89
348.975	225.11
349.191	-147.62
349.407	-182.44
349.623	48.98
349.839	-59.56
350.055	-125.1
350.27	75.6
350.486	116.56
350.702	290.64
350.918	237.39
351.133	-155.82
351.349	112.47
351.565	309.07
351.781	-204.97
351.996	-12.46
352.212	315.22
352.428	-188.58
352.644	-211.11
352.859	-270.5
353.075	266.07
353.291	-30.89
353.506	-147.62
353.722	-194.73
353.938	-180.39
354.153	421.71
354.369	3.93
354.584	-178.34
354.8	196.43
355.016	-315.56
355.231	-262.31
355.447	-53.42
355.662	147.28
355.878	876.36
356.093	-340.13
356.309	-69.8
356.524	-282.79
356.74	266.07
356.955	-168.1
357.171	55.12
357.386	71.51
357.602	-333.99
357.817	-90.28
358.033	-202.92
358.248	335.7
358.464	216.91
358.679	-184.49
358.895	-342.18
359.11	-90.28
359.325	294.74
359.541	167.76
359.756	-45.23
359.972	-342.18
360.187	112.47
360.402	-211.11
360.618	-145.58
360.833	876.36
361.048	94.04
361.264	-143.53
361.479	-47.27
361.694	28.5
361.909	212.82
362.125	-217.26
362.34	-84.14
362.555	180.05
362.77	40.79
362.986	-252.07
363.201	-110.76
363.416	139.09
363.631	3.93
363.847	-135.34
364.062	-102.57
364.277	167.76
364.492	85.84
364.707	-123.05
364.922	-350.37
365.138	272.21
365.353	278.35
365.568	-295.08
365.783	-180.39
365.998	102.23
366.213	462.67
366.428	-188.58
366.643	-32.94
366.858	247.63
367.073	184.15
367.288	-39.08
367.503	-331.94
367.718	63.32
367.933	212.82
368.148	-364.71
368.363	-39.08
368.578	24.4
368.793	362.32
369.008	-186.54
369.223	-243.88
369.438	173.91
369.653	382.8
369.868	-297.13
370.083	-245.93
370.298	16.21
370.513	329.55
370.728	40.79
370.943	-164.01
371.157	-145.58
371.372	438.09
371.587	-344.23
371.802	-290.98
372.017	-67.75
372.232	388.94
372.446	-90.28
372.661	-245.93
372.876	210.77
373.091	91.99
373.306	-100.52
373.52	-217.26
373.735	-209.06
373.95	323.41
374.165	-131.24
374.379	-110.76
374.594	-151.72
374.809	30.55
375.023	57.17
375.238	-254.12
375.453	161.62
375.667	-301.22
375.882	-106.67
376.097	-202.92
376.311	-0.17
376.526	-41.13
376.741	-229.54
376.955	157.52
377.17	513.87
377.384	411.47
377.599	-135.34
377.813	-260.26
378.028	520.01
378.242	180.05
378.457	-92.33
378.672	-383.14
378.886	-16.55
379.101	-59.56
379.315	-356.52
379.53	-143.53
379.744	139.09
379.958	173.91
380.173	-69.8
380.387	-153.77
380.602	85.84
380.816	-131.24
381.031	-168.1
381.245	-118.95
381.459	188.24
381.674	2361.14
381.888	-204.97
382.103	20.31
382.317	-247.97
382.531	442.19
382.746	-84.14
382.96	-178.34
383.174	-112.81
383.388	360.27
383.603	-61.61
383.817	-247.97
384.031	114.52
384.246	407.38
384.46	-84.14
384.674	294.74
384.888	46.93
385.103	-10.41
385.317	-284.84
385.531	-30.89
385.745	233.3
385.959	264.02
386.174	-209.06
386.388	-239.78
386.602	-16.55
386.816	-190.63
387.03	-45.23
387.244	-147.62
387.458	40.79
387.672	304.98
387.887	-286.89
388.101	-276.65
388.315	274.26
388.529	91.99
388.743	-164.01
388.957	-207.02
389.171	350.03
389.385	-190.63
389.599	-96.43
389.813	75.6
390.027	188.24
390.241	606.03
390.455	-116.9
390.669	-100.52
390.883	-149.67
391.097	307.02
391.311	-16.55
391.525	-90.28
391.738	204.63
391.952	184.15
392.166	-80.04
392.38	-133.29
392.594	155.47
392.808	333.65
393.022	-135.34
393.236	-118.95
393.449	106.32
393.663	130.9
393.877	-276.65
394.091	-73.9
394.305	-114.86
394.518	-125.1
394.732	-217.26
394.946	-176.3
395.16	384.85
395.373	65.36
395.587	-282.79
395.801	-235.69
396.015	309.07
396.228	124.76
396.442	-217.26
396.656	-342.18
396.869	309.07
397.083	393.04
397.297	-6.31
397.51	-127.14
397.724	390.99
397.938	114.52
398.151	-313.51
398.365	-213.16
398.578	155.47
398.792	384.85
399.005	-57.51
399.219	-102.57
399.433	89.94
399.646	159.57
399.86	5.97
400.073	-118.95
400.287	200.53
400.5	-90.28
400.714	-67.75
400.927	-61.61
401.141	182.1
401.354	1019.72
401.567	171.86
401.781	-200.87
401.994	257.87
402.208	565.07
402.421	-168.1
402.635	-135.34
402.848	10.07
403.061	261.97
403.275	-63.66
403.488	-161.96
403.701	397.14
403.915	202.58
404.128	-4.27
404.341	-129.19
404.555	89.94
404.768	-106.67
404.981	-39.08
405.195	-147.62
405.408	397.14
405.621	85.84
405.834	-80.04
406.048	-209.06
406.261	307.02
406.474	464.72
406.687	-278.69
406.9	28.5
407.114	81.75
407.327	42.84
407.54	-315.56
407.753	-229.54
407.966	-141.48
408.179	210.77
408.392	-268.45
408.605	-280.74
408.819	266.07
409.032	145.24
409.245	-211.11
409.458	24.4
409.671	124.76
409.884	167.76
410.097	-286.89
410.31	30.55
410.523	143.19
410.736	26.45
410.949	-45.23
411.162	-151.72
411.375	374.61
411.588	182.1
411.801	46.93
412.014	-241.83
412.227	-14.51
412.44	-37.03
412.653	-202.92
412.865	32.6
413.078	208.72
413.291	167.76
413.504	-100.52
413.717	-221.35
413.93	231.25
414.143	-209.06
414.356	-188.58
414.568	-305.32
414.781	225.11
414.994	188.24
415.207	-168.1
415.42	-92.33
415.632	223.06
415.845	407.38
416.058	-270.5
416.271	-239.78
416.483	26.45
416.696	421.71
416.909	-164.01
417.121	-200.87
417.334	153.43
417.547	536.4
417.759	-147.62
417.972	-225.45
418.185	-180.39
418.397	202.58
418.61	-155.82
418.823	-170.15
419.035	376.66
419.248	36.69
419.46	-86.19
419.673	-61.61
419.885	266.07
420.098	-20.65
420.311	-176.3
420.523	-403.62
420.736	169.81
420.948	-26.79
421.161	-114.86
421.373	-182.44
421.586	42.84
421.798	-147.62
422.01	-344.23
422.223	-90.28
422.435	-102.57
422.648	137.04
422.86	-141.48
423.073	-161.96
423.285	247.63
423.497	-276.65
423.71	-215.21
423.922	-329.89
424.134	32.6
424.347	302.93
424.559	46.93
424.771	91.99
424.984	-4.27
425.196	77.65
425.408	-307.37
425.621	-301.22
425.833	270.16
426.045	319.31
426.257	-282.79
426.47	-121
426.682	96.08
426.894	141.14
427.106	-118.95
427.318	-96.43
427.531	-143.53
427.743	233.3
427.955	-211.11
428.167	255.83
428.379	241.49
428.591	-43.18
428.804	-37.03
429.016	-237.74
429.228	-168.1
429.44	157.52
429.652	-12.46
429.864	-295.08
430.076	12.12
430.288	-26.79
430.5	-41.13
430.712	-155.82
430.924	216.91
431.136	120.66
431.348	-313.51
431.56	-102.57
431.772	94.04
431.984	-84.14
432.196	-229.54
432.408	-151.72
432.62	-116.9
432.832	122.71
433.044	91.99
433.256	-75.95
433.468	141.14
433.679	-262.31
433.891	-264.36
434.103	12.12
434.315	458.57
434.527	188.24
434.739	-73.9
434.95	-135.34
435.162	229.2
435.374	-137.38
435.586	-188.58
435.798	-217.26
436.009	-116.9
436.221	-45.23
436.433	-176.3
436.645	-151.72
436.856	-73.9
437.068	210.77
437.28	-188.58
437.491	85.84
437.703	120.66
437.915	71.51
438.126	-161.96
438.338	57.17
438.55	-2.22
438.761	196.43
438.973	-233.64
439.184	-172.2
439.396	67.41
439.608	225.11
439.819	-286.89
440.031	-28.84
440.242	141.14
440.454	135
440.665	-172.2
440.877	-20.65
441.088	106.32
441.3	-151.72
441.511	-284.84
441.723	-211.11
441.934	51.03
442.146	-26.79
442.357	-34.99
442.569	16.21
442.78	8.02
442.991	374.61
443.203	171.86
443.414	-317.61
443.626	352.08
443.837	-145.58
444.048	-254.12
444.26	-280.74
444.471	32.6
444.682	171.86
444.894	-286.89
445.105	-313.51
445.316	204.63
445.528	184.15
445.739	-104.62
445.95	-188.58
446.161	100.18
446.373	288.59
446.584	-53.42
446.795	-139.43
447.006	190.29
447.217	313.17
447.429	-331.94
447.64	-313.51
447.851	231.25
448.062	-14.51
448.273	-342.18
448.484	-219.3
448.695	159.57
448.907	-82.09
449.118	-108.71
449.329	-6.31
449.54	-227.5
449.751	-174.25
449.962	-166.06
450.173	-211.11
450.384	198.48
450.595	343.89
450.806	-213.16
451.017	-188.58
451.228	329.55
451.439	300.88
451.65	-155.82
451.861	-356.52
452.072	-192.68
452.283	-57.51
452.494	20.31
452.705	-235.69
452.915	384.85
453.126	184.15
453.337	-141.48
453.548	-213.16
453.759	311.12
453.97	466.77
454.181	69.46
454.391	-211.11
454.602	87.89
454.813	22.36
455.024	-86.19
455.235	-223.4
455.445	100.18
455.656	67.41
455.867	-28.84
456.078	-202.92
456.288	-24.75
456.499	100.18
456.71	-196.78
456.921	77.65
457.131	141.14
457.342	71.51
457.553	-143.53
457.763	-209.06
457.974	114.52
458.184	196.43
458.395	-303.27
458.606	-227.5
458.816	198.48
459.027	429.9
459.237	-102.57
459.448	-338.09
459.659	290.64
459.869	450.38
460.08	-381.09
460.29	-110.76
460.501	481.1
460.711	-112.81
460.922	-264.36
461.132	-233.64
461.343	610.12
461.553	-247.97
461.764	-233.64
461.974	-231.59
462.184	192.34
462.395	102.23
462.605	-69.8
462.816	-268.45
463.026	30.55
463.236	354.13
463.447	-254.12
463.657	-245.93
463.867	151.38
464.078	-102.57
464.288	-174.25
464.498	-286.89
464.709	-6.31
464.919	-0.17
465.129	-151.72
465.339	-215.21
465.55	91.99
465.76	218.96
465.97	-241.83
466.18	-184.49
466.391	190.29
466.601	-0.17
466.811	-86.19
467.021	-254.12
467.231	65.36
467.441	251.73
467.651	-198.82
467.862	-401.57
468.072	-18.6
468.282	366.42
468.492	-190.63
468.702	-164.01
468.912	44.88
469.122	614.22
469.332	124.76
469.542	-233.64
469.752	96.08
469.962	79.7
470.172	-229.54
470.382	-207.02
470.592	161.62
470.802	321.36
471.012	-57.51
471.222	-286.89
471.432	284.5
471.642	178
471.852	-139.43
472.062	-211.11
472.272	18.26
472.482	-233.64
472.691	-235.69
472.901	-290.98
473.111	135
473.321	507.73
473.531	-233.64
473.741	-88.23
473.95	81.75
474.16	190.29
474.37	-84.14
474.58	-258.21
474.79	356.18
474.999	216.91
475.209	-264.36
475.419	-155.82
475.628	-37.03
475.838	245.59
476.048	-151.72
476.258	-198.82
476.467	366.42
476.677	-135.34
476.886	-4.27
477.096	-127.14
477.306	-141.48
477.515	282.45
477.725	-145.58
477.935	-121
478.144	356.18
478.354	-80.04
478.563	-137.38
478.773	-262.31
478.982	100.18
479.192	350.03
479.401	-39.08
479.611	-241.83
479.82	-125.1
480.03	85.84
480.239	-268.45
480.449	-266.41
480.658	425.81
480.868	-170.15
481.077	-43.18
481.287	-221.35
481.496	40.79
481.705	483.15
481.915	34.64
482.124	69.46
482.333	65.36
482.543	413.52
482.752	-180.39
482.961	-239.78
483.171	120.66
483.38	-6.31
483.589	-123.05
483.799	-225.45
484.008	-2.22
484.217	284.5
484.426	-178.34
484.636	-295.08
484.845	118.61
485.054	-303.27
485.263	61.27
485.472	-202.92
485.682	468.81
485.891	141.14
486.1	-290.98
486.309	-164.01
486.518	155.47
486.727	360.27
486.936	-274.6
487.146	-98.47
487.355	339.79
487.564	-118.95
487.773	-202.92
487.982	-188.58
488.191	-86.19
488.4	130.9
488.609	-221.35
488.818	-221.35
489.027	450.38
489.236	388.94
489.445	-123.05
489.654	-166.06
489.863	180.05
490.072	69.46
490.281	81.75
490.49	-282.79
490.698	358.22
490.907	390.99
491.116	-227.5
491.325	-282.79
491.534	380.75
491.743	167.76
491.952	-82.09
492.16	-153.77
492.369	59.22
492.578	229.2
492.787	-129.19
492.996	-90.28
493.204	-137.38
493.413	436.05
493.622	-454.82
493.831	-395.43
494.039	352.08
494.248	-104.62
494.457	-219.3
494.665	-284.84
494.874	186.19
495.083	438.09
495.291	-125.1
495.5	-202.92
495.709	249.68
495.917	208.72
496.126	-118.95
496.335	-278.69
496.543	-61.61
496.752	26.45
496.96	30.55
497.169	-311.46
497.377	100.18
497.586	311.12
497.794	-112.81
498.003	-299.17
498.211	55.12
498.42	458.57
498.628	-118.95
498.837	-264.36
499.045	130.9
499.254	126.8
499.462	-190.63
499.671	-233.64
499.879	358.22
500.087	243.54
500.296	-239.78
500.504	-110.76
500.713	124.76
500.921	579.4
501.129	-190.63
501.338	-139.43
501.546	94.04
501.754	114.52
501.962	-186.54
502.171	-284.84
502.379	100.18
502.587	450.38
502.795	-172.2
503.004	-168.1
503.212	36.69
503.42	276.31
503.628	-155.82
503.837	-84.14
504.045	192.34
504.253	431.95
504.461	-172.2
504.669	-370.85
504.877	225.11
505.085	427.85
505.294	-303.27
505.502	3.93
505.71	61.27
505.918	278.35
506.126	-241.83
506.334	-254.12
506.542	57.17
506.75	143.19
506.958	-82.09
507.166	-184.49
507.374	57.17
507.582	483.15
507.79	-53.42
507.998	-243.88
508.206	108.37
508.414	171.86
508.622	-184.49
508.83	-61.61
509.037	487.25
509.245	-16.55
509.453	-252.07
509.661	-159.91
509.869	196.43
510.077	63.32
510.285	-30.89
510.492	-405.67
510.7	575.31
510.908	22.36
511.116	-172.2
511.324	-202.92
511.531	57.17
511.739	132.95
511.947	-82.09
512.155	69.46
512.362	96.08
512.57	-188.58
512.778	-155.82
512.985	-409.76
513.193	335.7
513.401	370.51
513.608	-123.05
513.816	-133.29
514.024	278.35
514.231	350.03
514.439	-159.91
514.646	-139.43
514.854	221.01
515.061	292.69
515.269	-202.92
515.477	-188.58
515.684	-139.43
515.892	243.54
516.099	-272.55
516.307	-241.83
516.514	243.54
516.722	468.81
516.929	-135.34
517.136	-225.45
517.344	450.38
517.551	184.15
517.759	-176.3
517.966	-176.3
518.173	18.26
518.381	85.84
518.588	-88.23
518.796	-213.16
519.003	210.77
519.21	73.56
519.418	-112.81
519.625	139.09
519.832	106.32
520.039	147.28
520.247	-352.42
520.454	-131.24
520.661	292.69
520.868	130.9
521.076	-180.39
521.283	-45.23
521.49	689.99
521.697	153.43
521.904	-118.95
522.112	-141.48
522.319	204.63
522.526	286.54
522.733	-180.39
522.94	-264.36
523.147	91.99
523.354	253.78
523.561	-266.41
523.768	-100.52
523.975	350.03
524.183	28.5
524.39	-49.32
524.597	-241.83
524.804	149.33
525.011	-30.89
525.218	-233.64
525.425	-143.53
525.632	247.63
525.838	-4.27
526.045	-168.1
526.252	-209.06
526.459	1005.38
526.666	927.56
526.873	-164.01
527.08	-147.62
527.287	436.05
527.494	233.3
527.701	-190.63
527.907	-198.82
528.114	198.48
528.321	94.04
528.528	-168.1
528.735	-172.2
528.941	55.12
529.148	38.74
529.355	-51.37
529.562	-213.16
529.768	446.29
529.975	69.46
530.182	-51.37
530.388	-139.43
530.595	276.31
530.802	-112.81
531.008	8.02
531.215	-131.24
531.422	708.43
531.628	769.87
531.835	-51.37
532.042	-53.42
532.248	-0.17
532.455	130.9
532.661	-71.85
532.868	-198.82
533.074	110.42
533.281	374.61
533.487	-28.84
533.694	-178.34
533.9	-20.65
534.107	251.73
534.313	-159.91
534.52	-223.4
534.726	378.7
534.933	536.4
535.139	-225.45
535.345	-260.26
535.552	194.39
535.758	112.47
535.965	-24.75
536.171	-151.72
536.377	227.15
536.584	419.66
536.79	-159.91
536.996	-34.99
537.203	141.14
537.409	298.83
537.615	-41.13
537.821	83.8
538.028	276.31
538.234	292.69
538.44	-143.53
538.646	-34.99
538.853	245.59
539.059	40.79
539.265	294.74
539.471	-409.76
539.677	313.17
539.883	-26.79
540.09	-221.35
540.296	331.6
540.502	5.97
540.708	-63.66
540.914	-20.65
541.12	-104.62
541.326	302.93
541.532	110.42
541.738	-14.51
541.944	-16.55
542.15	417.61
542.356	102.23
542.562	-127.14
542.768	-37.03
542.974	661.32
543.18	591.69
543.386	-194.73
543.592	-323.75
543.798	499.53
544.004	370.51
544.21	-145.58
544.415	14.17
544.621	171.86
544.827	462.67
545.033	-147.62
545.239	122.71
545.445	-84.14
545.651	300.88
545.856	-137.38
546.062	-80.04
546.268	-32.94
546.474	169.81
546.679	-112.81
546.885	-63.66
547.091	22.36
547.297	597.84
547.502	-30.89
547.708	-190.63
547.914	-104.62
548.119	311.12
548.325	-139.43
548.531	-180.39
548.736	524.11
548.942	-37.03
549.147	-207.02
549.353	167.76
549.559	280.4
549.764	210.77
549.97	-32.94
550.175	-73.9
550.381	264.02
550.586	-18.6
550.792	-34.99
550.997	-92.33
551.203	284.5
551.408	315.22
551.614	-237.74
551.819	-112.81
552.025	474.96
552.23	616.27
552.435	-63.66
552.641	81.75
552.846	-69.8
553.052	450.38
553.257	59.22
553.462	-12.46
553.668	-32.94
553.873	423.76
554.078	-110.76
554.283	-37.03
554.489	259.92
554.694	126.8
554.899	-143.53
555.105	-0.17
555.31	321.36
555.515	386.9
555.72	-8.36
555.925	-139.43
556.131	386.9
556.336	51.03
556.541	-127.14
556.746	-51.37
556.951	542.54
557.156	554.83
557.361	-20.65
557.567	71.51
557.772	665.42
557.977	384.85
558.182	-20.65
558.387	-96.43
558.592	126.8
558.797	495.44
559.002	85.84
559.207	59.22
559.412	208.72
559.617	642.89
559.822	-102.57
560.027	-151.72
560.232	300.88
560.437	378.7
560.642	-131.24
560.847	-149.67
561.051	288.59
561.256	153.43
561.461	42.84
561.666	-153.77
561.871	272.21
562.076	382.8
562.281	1.88
562.485	-172.2
562.69	261.97
562.895	429.9
563.1	-80.04
563.305	-168.1
563.509	481.1
563.714	776.01
563.919	-37.03
564.123	-59.56
564.328	249.68
564.533	556.88
564.737	-0.17
564.942	28.5
565.147	610.12
565.351	741.19
565.556	104.28
565.761	57.17
565.965	239.44
566.17	81.75
566.374	-10.41
566.579	-231.59
566.784	298.83
566.988	171.86
567.193	-264.36
567.397	-82.09
567.602	-116.9
567.806	153.43
568.011	-37.03
568.215	-4.27
568.42	128.85
568.624	208.72
568.828	44.88
569.033	102.23
569.237	350.03
569.442	319.31
569.646	-147.62
569.85	5.97
570.055	227.15
570.259	280.4
570.463	223.06
570.668	30.55
570.872	229.2
571.076	272.21
571.281	178
571.485	73.56
571.689	239.44
571.893	368.46
572.098	145.24
572.302	110.42
572.506	345.94
572.71	243.54
572.914	61.27
573.119	-47.27
573.323	630.6
573.527	544.59
573.731	-18.6
573.935	-49.32
574.139	266.07
574.343	-0.17
574.547	63.32
574.751	-34.99
574.955	560.97
575.159	534.35
575.364	-51.37
575.568	-77.99
575.772	270.16
575.976	524.11
576.18	-30.89
576.383	-139.43
576.587	524.11
576.791	333.65
576.995	-182.44
577.199	-106.67
577.403	460.62
577.607	487.25
577.811	-71.85
578.015	184.15
578.219	364.37
578.422	540.49
578.626	44.88
578.83	175.95
579.034	468.81
579.238	323.41
579.442	-80.04
579.645	335.7
579.849	192.34
580.053	274.26
580.257	8.02
580.46	100.18
580.664	436.05
580.868	390.99
581.071	210.77
581.275	212.82
581.479	75.6
581.682	517.97
581.886	-53.42
582.09	135
582.293	372.56
582.497	464.72
582.7	167.76
582.904	-43.18
583.107	268.11
583.311	163.67
583.515	126.8
583.718	51.03
583.922	401.23
584.125	634.7
584.329	89.94
584.532	249.68
584.735	503.63
584.939	399.18
585.142	-106.67
585.346	-39.08
585.549	358.22
585.753	165.71
585.956	34.64
586.159	161.62
586.363	763.72
586.566	452.43
586.769	77.65
586.973	-102.57
587.176	413.52
587.379	649.04
587.582	380.75
587.786	237.39
587.989	288.59
588.192	890.7
588.395	106.32
588.599	307.02
588.802	356.18
589.005	366.42
589.208	28.5
589.411	44.88
589.615	520.01
589.818	708.43
590.021	272.21
590.224	161.62
590.427	528.21
590.63	421.71
590.833	-200.87
591.036	79.7
591.239	223.06
591.442	229.2
591.645	298.83
591.848	75.6
592.051	524.11
592.254	528.21
592.457	229.2
592.66	194.39
592.863	280.4
593.066	481.1
593.269	59.22
593.472	192.34
593.675	190.29
593.878	520.01
594.081	255.83
594.284	137.04
594.486	460.62
594.689	403.28
594.892	202.58
595.095	184.15
595.298	438.09
595.5	356.18
595.703	137.04
595.906	311.12
596.109	689.99
596.311	573.26
596.514	-102.57
596.717	216.91
596.92	669.52
597.122	474.96
597.325	-106.67
597.528	30.55
597.73	638.8
597.933	382.8
598.136	42.84
598.338	-243.88
598.541	554.83
598.743	569.16
598.946	116.56
599.148	159.57
599.351	601.93
599.554	702.28
599.756	300.88
599.959	153.43
600.161	601.93
600.363	907.08
600.566	405.33
600.768	155.47
600.971	794.44
601.173	472.91
601.376	167.76
601.578	196.43
601.78	464.72
601.983	896.84
602.185	75.6
602.388	264.02
602.59	474.96
602.792	192.34
602.995	337.74
603.197	75.6
603.399	567.12
603.601	524.11
603.804	208.72
604.006	137.04
604.208	364.37
604.41	-57.51
604.613	255.83
604.815	135
605.017	925.51
605.219	298.83
605.421	538.45
605.623	198.48
605.826	804.68
606.028	696.14
606.23	192.34
606.432	141.14
606.634	757.58
606.836	675.66
607.038	83.8
607.24	358.22
607.442	466.77
607.644	380.75
607.846	255.83
608.048	153.43
608.25	733
608.452	294.74
608.654	171.86
608.856	-8.36
609.058	384.85
609.26	577.36
609.462	366.42
609.664	231.25
609.866	933.7
610.067	503.63
610.269	429.9
610.471	245.59
610.673	311.12
610.875	520.01
611.077	26.45
611.278	327.5
611.48	479.05
611.682	962.37
611.884	302.93
612.085	274.26
612.287	231.25
612.489	507.73
612.69	-12.46
612.892	282.45
613.094	638.8
613.295	597.84
613.497	94.04
613.699	315.22
613.9	710.47
614.102	646.99
614.304	313.17
614.505	110.42
614.707	372.56
614.908	454.48
615.11	3.93
615.311	268.11
615.513	626.51
615.714	646.99
615.916	147.28
616.117	284.5
616.319	462.67
616.52	558.92
616.722	257.87
616.923	190.29
617.124	671.56
617.326	573.26
617.527	345.94
617.729	479.05
617.93	567.12
618.131	620.36
618.333	298.83
618.534	335.7
618.735	272.21
618.937	773.96
619.138	122.71
619.339	241.49
619.54	505.68
619.742	464.72
619.943	448.33
620.144	323.41
620.345	542.54
620.546	747.34
620.748	241.49
620.949	194.39
621.15	575.31
621.351	472.91
621.552	200.53
621.753	137.04
621.954	71.51
622.155	900.94
622.356	198.48
622.558	356.18
622.759	573.26
622.96	835.4
623.161	307.02
623.362	325.46
623.563	464.72
623.764	479.05
623.965	292.69
624.166	427.85
624.366	368.46
624.567	546.64
624.768	22.36
624.969	227.15
625.17	468.81
625.371	700.23
625.572	325.46
625.773	75.6
625.973	724.81
626.174	677.71
626.375	329.55
626.576	345.94
626.777	501.58
626.977	1185.6
627.178	296.78
627.379	329.55
627.58	401.23
627.78	520.01
627.981	366.42
628.182	364.37
628.382	739.15
628.583	188.24
628.784	178
628.984	477.01
629.185	763.72
629.386	718.67
629.586	321.36
629.787	159.57
629.987	640.84
630.188	427.85
630.388	370.51
630.589	331.6
630.79	1101.64
630.99	589.64
631.191	405.33
631.391	380.75
631.591	751.43
631.792	929.61
631.992	390.99
632.193	397.14
632.393	954.18
632.594	460.62
632.794	366.42
632.994	350.03
633.195	532.3
633.395	548.68
633.595	284.5
633.796	595.79
633.996	368.46
634.196	769.87
634.397	264.02
634.597	487.25
634.797	390.99
634.997	939.85
635.198	577.36
635.398	163.67
635.598	526.16
635.798	923.46
635.998	784.2
636.199	284.5
636.399	364.37
636.599	382.8
636.799	405.33
636.999	577.36
637.199	665.42
637.399	679.75
637.599	319.31
637.799	442.19
637.999	417.61
638.199	952.13
638.399	307.02
638.599	280.4
638.799	698.19
638.999	1072.96
639.199	444.24
639.399	464.72
639.599	968.52
639.799	333.65
639.999	302.93
640.199	350.03
640.399	577.36
640.599	696.14
640.799	409.42
640.998	454.48
641.198	950.09
641.398	646.99
641.598	599.88
641.798	350.03
641.997	1582.91
642.197	544.59
642.397	487.25
642.597	393.04
642.796	661.32
642.996	935.75
643.196	442.19
643.395	366.42
643.595	716.62
643.795	186.19
643.994	411.47
644.194	536.4
644.394	773.96
644.593	640.84
644.793	266.07
644.992	603.98
645.192	669.52
645.392	282.45
645.591	450.38
645.791	448.33
645.99	763.72
646.19	526.16
646.389	472.91
646.589	409.42
646.788	780.11
646.987	792.39
647.187	673.61
647.386	601.93
647.586	710.47
647.785	749.39
647.984	388.94
648.184	577.36
648.383	563.02
648.582	511.82
648.782	485.2
648.981	614.22
649.18	390.99
649.38	671.56
649.579	474.96
649.778	393.04
649.977	708.43
650.177	757.58
650.376	462.67
650.575	411.47
650.774	1052.49
650.973	477.01
651.173	323.41
651.372	511.82
651.571	737.1
651.77	812.87
651.969	360.27
652.168	581.45
652.367	388.94
652.566	741.19
652.765	339.79
652.964	716.62
653.163	1161.03
653.362	673.61
653.561	421.71
653.76	487.25
653.959	563.02
654.158	667.47
654.357	698.19
654.556	509.77
654.755	814.92
654.954	829.26
655.153	507.73
655.352	479.05
655.551	880.46
655.749	632.65
655.948	577.36
656.147	612.17
656.346	825.16
656.545	540.49
656.743	587.6
656.942	544.59
657.141	704.33
657.34	427.85
657.538	470.86
657.737	548.68
657.936	493.39
658.135	857.93
658.333	544.59
658.532	587.6
658.731	1156.93
658.929	827.21
659.128	788.3
659.326	421.71
659.525	976.71
659.724	698.19
659.922	200.53
660.121	296.78
660.319	771.91
660.518	530.25
660.716	331.6
660.915	376.66
661.113	1097.54
661.312	493.39
661.51	622.41
661.709	466.77
661.907	755.53
662.105	1048.39
662.304	552.78
662.502	522.06
662.701	1060.68
662.899	655.18
663.097	737.1
663.296	290.64
663.494	1038.15
663.692	1210.18
663.891	358.22
664.089	429.9
664.287	782.15
664.485	1032.01
664.684	401.23
664.882	597.84
665.08	755.53
665.278	661.32
665.476	397.14
665.675	792.39
665.873	1201.99
666.071	1044.29
666.269	423.76
666.467	735.05
666.665	735.05
666.863	628.56
667.061	718.67
667.259	470.86
667.457	653.13
667.655	925.51
667.853	395.09
668.051	655.18
668.249	606.03
668.447	843.59
668.645	395.09
668.843	683.85
669.041	945.99
669.239	716.62
669.437	608.08
669.635	632.65
669.833	663.37
670.031	847.69
670.229	624.46
670.426	577.36
670.624	565.07
670.822	548.68
671.02	565.07
671.218	536.4
671.415	501.58
671.613	788.3
671.811	657.23
672.009	571.21
672.206	937.8
672.404	718.67
672.602	749.39
672.799	585.55
672.997	810.82
673.195	1040.2
673.392	716.62
673.59	456.53
673.788	896.84
673.985	395.09
674.183	651.08
674.38	560.97
674.578	880.46
674.775	546.64
674.973	499.53
675.17	481.1
675.368	1113.92
675.565	945.99
675.763	495.44
675.96	526.16
676.158	1064.77
676.355	698.19
676.553	548.68
676.75	536.4
676.947	665.42
677.145	614.22
677.342	655.18
677.539	646.99
677.737	741.19
677.934	1345.34
678.131	806.73
678.329	472.91
678.526	1105.73
678.723	921.42
678.92	536.4
679.118	632.65
679.315	483.15
679.512	1079.11
679.709	657.23
679.906	585.55
680.104	986.95
680.301	943.94
680.498	489.29
680.695	569.16
680.892	657.23
681.089	683.85
681.286	663.37
681.483	456.53
681.68	989
681.877	989
682.075	581.45
682.272	843.59
682.469	913.22
682.665	661.32
682.862	534.35
683.059	370.51
683.256	790.35
683.453	700.23
683.65	714.57
683.847	501.58
684.044	673.61
684.241	646.99
684.438	722.76
684.635	517.97
684.831	1331.01
685.028	1216.32
685.225	560.97
685.422	634.7
685.619	745.29
685.815	761.67
686.012	665.42
686.209	651.08
686.405	493.39
686.602	1054.53
686.799	431.95
686.996	507.73
687.192	483.15
687.389	1230.66
687.586	571.21
687.782	636.75
687.979	1087.3
688.175	986.95
688.372	714.57
688.568	640.84
688.765	569.16
688.962	1111.88
689.158	743.24
689.355	442.19
689.551	950.09
689.748	706.38
689.944	722.76
690.14	434
690.337	888.65
690.533	540.49
690.73	739.15
690.926	671.56
691.123	931.66
691.319	714.57
691.515	485.2
691.712	714.57
691.908	991.05
692.104	771.91
692.301	757.58
692.497	491.34
692.693	896.84
692.889	997.19
693.086	767.82
693.282	372.56
693.478	782.15
693.674	1161.03
693.87	603.98
694.067	448.33
694.263	925.51
694.459	737.1
694.655	827.21
694.851	724.81
695.047	921.42
695.243	978.76
695.439	798.54
695.635	614.22
695.831	1007.43
696.027	773.96
696.224	569.16
696.42	900.94
696.615	1242.95
696.811	991.05
697.007	489.29
697.203	569.16
697.399	880.46
697.595	1021.77
697.791	608.08
697.987	667.47
698.183	595.79
698.379	737.1
698.575	544.59
698.77	517.97
698.966	929.61
699.162	1124.16
699.358	696.14
699.554	550.73
699.749	894.79
699.945	1058.63
700.141	780.11
700.337	712.52
700.532	773.96
700.728	776.01
700.924	581.45
701.119	509.77
701.315	966.47
701.511	708.43
701.706	708.43
701.902	401.23
702.097	829.26
702.293	1038.15
702.489	798.54
702.684	626.51
702.88	917.32
703.075	702.28
703.271	700.23
703.466	601.93
703.662	823.11
703.857	989
704.053	575.31
704.248	630.6
704.443	855.88
704.639	1005.38
704.834	626.51
705.03	667.47
705.225	964.42
705.42	1165.12
705.616	839.5
705.811	495.44
706.006	720.71
706.202	827.21
706.397	689.99
706.592	589.64
706.787	902.98
706.983	905.03
707.178	878.41
707.373	663.37
707.568	972.61
707.763	1099.59
707.959	677.71
708.154	569.16
708.349	839.5
708.544	933.7
708.739	917.32
708.934	571.21
709.129	1118.02
709.324	1036.1
709.519	571.21
709.714	700.23
709.909	941.89
710.104	857.93
710.299	563.02
710.494	792.39
710.689	1056.58
710.884	827.21
711.079	757.58
711.274	900.94
711.469	956.23
711.664	931.66
711.859	548.68
712.054	773.96
712.249	1007.43
712.443	1066.82
712.638	534.35
712.833	532.3
713.028	759.63
713.223	810.82
713.417	855.88
713.612	606.03
713.807	966.47
714.002	1447.74
714.196	857.93
714.391	673.61
714.586	1027.91
714.78	769.87
714.975	687.95
715.17	669.52
715.364	782.15
715.559	1027.91
715.754	458.57
715.948	542.54
716.143	1261.38
716.337	976.71
716.532	939.85
716.726	595.79
716.921	1113.92
717.115	1242.95
717.31	511.82
717.504	1183.56
717.699	819.02
717.893	1054.53
718.088	620.36
718.282	544.59
718.476	915.27
718.671	859.98
718.865	642.89
719.059	626.51
719.254	876.36
719.448	1185.6
719.642	1967.93
719.837	558.92
720.031	1056.58
720.225	1230.66
720.419	821.06
720.614	649.04
720.808	1171.27
721.002	851.78
721.196	618.32
721.39	618.32
721.585	1169.22
721.779	927.56
721.973	741.19
722.167	573.26
722.361	933.7
722.555	1093.44
722.749	728.91
722.943	728.91
723.137	571.21
723.331	937.8
723.525	687.95
723.719	632.65
723.913	1091.4
724.107	1185.6
724.301	630.6
724.495	665.42
724.689	1249.09
724.883	1226.56
725.077	612.17
725.271	636.75
725.465	1220.42
725.659	847.69
725.853	728.91
726.046	673.61
726.24	769.87
726.434	1064.77
726.628	692.04
726.822	802.63
727.015	1099.59
727.209	1185.6
727.403	696.14
727.596	499.53
727.79	1029.96
727.984	1091.4
728.177	651.08
728.371	812.87
728.565	1113.92
728.758	634.7
728.952	622.41
729.146	671.56
729.339	1247.04
729.533	819.02
729.726	612.17
729.92	587.6
730.113	1204.03
730.307	825.16
730.5	726.86
730.694	689.99
730.887	839.5
731.081	1015.62
731.274	659.28
731.468	728.91
731.661	851.78
731.854	773.96
732.048	608.08
732.241	569.16
732.435	737.1
732.628	1011.53
732.821	769.87
733.014	536.4
733.208	692.04
733.401	1087.3
733.594	733
733.788	751.43
733.981	1251.14
734.174	937.8
734.367	618.32
734.56	833.35
734.754	1105.73
734.947	876.36
735.14	634.7
735.333	786.25
735.526	1075.01
735.719	718.67
735.912	532.3
736.105	599.88
736.298	880.46
736.491	628.56
736.684	685.9
736.877	606.03
737.07	956.23
737.263	1109.83
737.456	741.19
737.649	626.51
737.842	726.86
738.035	857.93
738.228	769.87
738.421	788.3
738.614	1103.68
738.807	999.24
739	532.3
739.192	606.03
739.385	952.13
739.578	1101.64
739.771	978.76
739.964	687.95
740.156	1015.62
740.349	823.11
740.542	888.65
740.735	593.74
740.927	612.17
741.12	745.29
741.313	669.52
741.505	773.96
741.698	923.46
741.891	1003.33
742.083	786.25
742.276	796.49
742.468	927.56
742.661	835.4
742.854	874.31
743.046	657.23
743.239	1214.27
743.431	831.3
743.624	718.67
743.816	610.12
744.009	880.46
744.201	950.09
744.393	921.42
744.586	673.61
744.778	1130.31
744.971	837.45
745.163	794.44
745.355	794.44
745.548	890.7
745.74	894.79
745.932	767.82
746.125	722.76
746.317	1455.94
746.509	911.18
746.702	765.77
746.894	773.96
747.086	868.17
747.278	1214.27
747.471	778.06
747.663	776.01
747.855	917.32
748.047	1187.65
748.239	665.42
748.431	687.95
748.623	1232.71
748.815	1208.13
749.008	612.17
749.2	585.55
749.392	1095.49
749.584	1032.01
749.776	749.39
749.968	737.1
750.16	1369.92
750.352	790.35
750.544	646.99
750.736	622.41
750.928	962.37
751.12	954.18
751.311	733
751.503	841.54
751.695	1048.39
751.887	896.84
752.079	446.29
752.271	675.66
752.463	1640.25
752.654	1122.12
752.846	761.67
753.038	700.23
753.23	835.4
753.421	1144.64
753.613	767.82
753.805	927.56
753.997	1167.17
754.188	1111.88
754.38	651.08
754.572	728.91
754.763	778.06
754.955	1085.25
755.146	708.43
755.338	730.95
755.53	972.61
755.721	868.17
755.913	565.07
756.104	573.26
756.296	890.7
756.487	1138.5
756.679	649.04
756.87	692.04
757.062	810.82
757.253	1150.79
757.445	663.37
757.636	913.22
757.827	952.13
758.019	1560.38
758.21	597.84
758.401	692.04
758.593	1322.82
758.784	1234.75
758.975	675.66
759.167	554.83
759.358	886.6
759.549	1169.22
759.74	784.2
759.932	642.89
760.123	1304.39
760.314	671.56
760.505	872.26
760.696	720.71
760.888	1365.82
761.079	831.3
761.27	661.32
761.461	495.44
761.652	1265.47
761.843	808.78
762.034	757.58
762.225	956.23
762.416	847.69
762.607	823.11
762.798	714.57
762.989	599.88
763.18	1638.2
763.371	761.67
763.562	646.99
763.753	761.67
763.944	1167.17
764.135	1218.37
764.326	722.76
764.517	689.99
764.708	1009.48
764.899	1058.63
765.089	554.83
765.28	579.4
765.471	1003.33
765.662	974.66
765.853	745.29
766.043	513.87
766.234	1154.88
766.425	1042.25
766.615	665.42
766.806	532.3
766.997	1210.18
767.187	962.37
767.378	597.84
767.569	458.57
767.759	935.75
767.95	995.14
768.141	862.02
768.331	579.4
768.522	911.18
768.712	1048.39
768.903	708.43
769.093	634.7
769.284	1363.78
769.474	931.66
769.665	405.33
769.855	552.78
770.046	909.13
770.236	829.26
770.426	902.98
770.617	591.69
770.807	1038.15
770.998	868.17
771.188	941.89
771.378	669.52
771.569	986.95
771.759	1021.77
771.949	630.6
772.139	466.77
772.33	972.61
772.52	1271.62
772.71	755.53
772.9	448.33
773.09	1247.04
773.281	1165.12
773.471	520.01
773.661	569.16
773.851	1128.26
774.041	802.63
774.231	634.7
774.421	835.4
774.611	1175.36
774.802	966.47
774.992	704.33
775.182	524.11
775.372	837.45
775.562	1017.67
775.752	661.32
775.942	675.66
776.131	1158.98
776.321	968.52
776.511	681.8
776.701	567.12
776.891	1156.93
777.081	679.75
777.271	761.67
777.461	761.67
777.651	1097.54
777.84	1144.64
778.03	868.17
778.22	700.23
778.41	1265.47
778.599	708.43
778.789	728.91
778.979	546.64
779.169	976.71
779.358	952.13
779.548	825.16
779.738	472.91
779.927	941.89
780.117	659.28
780.307	667.47
780.496	468.81
780.686	913.22
780.875	1275.71
781.065	626.51
781.254	675.66
781.444	966.47
781.633	892.74
781.823	636.75
782.012	583.5
782.202	737.1
782.391	794.44
782.581	589.64
782.77	759.63
782.96	935.75
783.149	870.22
783.338	677.71
783.528	507.73
783.717	984.9
783.906	1181.51
784.096	821.06
784.285	522.06
784.474	700.23
784.663	665.42
784.853	571.21
785.042	692.04
785.231	675.66
785.42	1048.39
785.61	778.06
785.799	581.45
785.988	644.94
786.177	859.98
786.366	792.39
786.555	800.59
786.744	980.81
786.933	831.3
787.122	589.64
787.312	493.39
787.501	653.13
787.69	1087.3
787.879	642.89
788.068	608.08
788.257	636.75
788.445	714.57
788.634	708.43
788.823	528.21
789.012	1531.71
789.201	1204.03
789.39	749.39
789.579	649.04
789.768	853.83
789.957	890.7
790.145	663.37
790.334	350.03
790.523	765.77
790.712	700.23
790.9	706.38
791.089	466.77
791.278	1083.2
791.467	956.23
791.655	864.07
791.844	1056.58
792.033	692.04
792.221	835.4
792.41	720.71
792.599	497.49
792.787	945.99
792.976	1038.15
793.164	573.26
793.353	642.89
793.541	1001.29
793.73	941.89
793.918	653.13
794.107	573.26
794.295	845.64
794.484	859.98
794.672	569.16
794.861	646.99
795.049	966.47
795.238	1271.62
795.426	515.92
795.614	653.13
795.803	952.13
795.991	1025.86
796.179	663.37
796.368	581.45
796.556	1142.6
796.744	593.74
796.932	495.44
797.121	581.45
797.309	745.29
797.497	995.14
797.685	589.64
797.874	599.88
798.062	749.39
798.25	1077.06
798.438	565.07
798.626	597.84
798.814	954.18
799.002	1378.11
799.19	776.01
799.378	769.87
799.566	1060.68
799.755	1140.55
799.943	894.79
800.131	644.94
800.318	970.57
800.506	935.75
800.694	575.31
800.882	733
801.07	1138.5
801.258	884.55
801.446	534.35
801.634	548.68
801.822	868.17
802.01	739.15
802.197	511.82
802.385	626.51
802.573	896.84
802.761	724.81
802.949	653.13
803.136	522.06
803.324	1087.3
803.512	837.45
803.699	661.32
803.887	456.53
804.075	1122.12
804.262	792.39
804.45	530.25
804.638	771.91
804.825	528.21
805.013	747.34
805.201	733
805.388	515.92
805.576	782.15
805.763	1201.99
805.951	661.32
806.138	767.82
806.326	1349.44
806.513	905.03
806.701	737.1
806.888	626.51
807.075	839.5
807.263	1265.47
807.45	501.58
807.638	845.64
807.825	1230.66
808.012	986.95
808.2	698.19
808.387	864.07
808.574	1009.48
808.761	1146.69
808.949	689.99
809.136	739.15
809.323	763.72
809.51	722.76
809.698	870.22
809.885	819.02
810.072	1019.72
810.259	1122.12
810.446	743.24
810.633	593.74
810.82	1130.31
811.008	1331.01
811.195	874.31
811.382	753.48
811.569	872.26
811.756	620.36
811.943	735.05
812.13	702.28
812.317	704.33
812.504	708.43
812.691	769.87
812.878	720.71
813.064	1171.27
813.251	888.65
813.438	544.59
813.625	909.13
813.812	851.78
813.999	917.32
814.186	735.05
814.372	790.35
814.559	915.27
814.746	1259.33
814.933	669.52
815.12	868.17
815.306	790.35
815.493	636.75
815.68	706.38
815.866	724.81
816.053	1109.83
816.24	1402.69
816.426	794.44
816.613	575.31
816.799	1085.25
816.986	1197.89
817.173	603.98
817.359	646.99
817.546	945.99
817.732	612.17
817.919	456.53
818.105	859.98
818.292	827.21
818.478	945.99
818.665	786.25
818.851	646.99
819.037	1320.77
819.224	923.46
819.41	606.03
819.597	671.56
819.783	1244.99
819.969	1124.16
820.156	821.06
820.342	583.5
820.528	1652.54
820.714	829.26
820.901	1038.15
821.087	794.44
821.273	1206.08
821.459	765.77
821.646	718.67
821.832	554.83
822.018	827.21
822.204	956.23
822.39	782.15
822.576	505.68
822.762	1118.02
822.948	1040.2
823.134	878.41
823.32	708.43
823.507	698.19
823.693	937.8
823.879	999.24
824.065	618.32
824.25	1007.43
824.436	595.79
824.622	704.33
824.808	603.98
824.994	839.5
825.18	665.42
825.366	597.84
825.552	689.99
825.738	753.48
825.923	1064.77
826.109	911.18
826.295	649.04
826.481	708.43
826.667	859.98
826.852	720.71
827.038	569.16
827.224	1095.49
827.409	1281.86
827.595	513.87
827.781	780.11
827.966	1124.16
828.152	1154.88
828.338	669.52
828.523	563.02
828.709	753.48
828.894	1214.27
829.08	692.04
829.266	581.45
829.451	733
829.637	972.61
829.822	753.48
830.008	565.07
830.193	1091.4
830.378	1173.32
830.564	757.58
830.749	638.8
830.935	1054.53
831.12	995.14
831.305	585.55
831.491	685.9
831.676	646.99
831.861	1103.68
832.047	692.04
832.232	616.27
832.417	1208.13
832.602	886.6
832.788	601.93
832.973	556.88
833.158	773.96
833.343	931.66
833.528	776.01
833.714	737.1
833.899	995.14
834.084	1326.91
834.269	780.11
834.454	683.85
834.639	1044.29
834.824	882.5
835.009	759.63
835.194	829.26
835.379	1044.29
835.564	1277.76
835.749	757.58
835.934	565.07
836.119	1083.2
836.304	841.54
836.489	599.88
836.674	913.22
836.859	610.12
837.044	1210.18
837.228	667.47
837.413	558.92
837.598	978.76
837.783	1093.44
837.968	661.32
838.152	571.21
838.337	524.11
838.522	1189.7
838.707	1101.64
838.891	980.81
839.076	974.66
839.261	1134.4
839.445	675.66
839.63	749.39
839.815	1222.47
839.999	968.52
840.184	653.13
840.368	612.17
840.553	1091.4
840.737	1052.49
840.922	581.45
841.106	649.04
841.291	657.23
841.475	1040.2
841.66	601.93
841.844	620.36
842.029	1625.92
842.213	616.27
842.397	698.19
842.582	466.77
842.766	1089.35
842.951	1075.01
843.135	618.32
843.319	724.81
843.504	898.89
843.688	1077.06
843.872	452.43
844.056	569.16
844.241	1013.57
844.425	806.73
844.609	849.74
844.793	339.79
844.977	1017.67
845.161	1013.57
845.346	546.64
845.53	704.33
845.714	755.53
845.898	1195.84
846.082	466.77
846.266	683.85
846.45	902.98
846.634	1013.57
846.818	620.36
847.002	771.91
847.186	950.09
847.37	642.89
847.554	505.68
847.738	745.29
847.922	970.57
848.106	868.17
848.29	560.97
848.473	628.56
848.657	925.51
848.841	782.15
849.025	675.66
849.209	466.77
849.392	943.94
849.576	773.96
849.76	358.22
849.944	706.38
850.127	1208.13
850.311	565.07
850.495	616.27
850.678	413.52
850.862	1185.6
851.046	1255.23
851.229	954.18
851.413	632.65
851.596	757.58
851.78	741.19
851.964	794.44
852.147	565.07
852.331	1580.86
852.514	1152.84
852.698	657.23
852.881	542.54
853.065	1060.68
853.248	841.54
853.431	753.48
853.615	726.86
853.798	1351.49
853.982	892.74
854.165	790.35
854.348	560.97
854.532	716.62
854.715	683.85
854.898	612.17
855.081	581.45
855.265	1216.32
855.448	1187.65
855.631	442.19
855.814	520.01
855.997	1011.53
856.181	724.81
856.364	626.51
856.547	380.75
856.73	909.13
856.913	880.46
857.096	415.57
857.279	620.36
857.462	673.61
857.645	1167.17
857.828	911.18
858.011	724.81
858.194	749.39
858.377	1120.07
858.56	536.4
858.743	616.27
858.926	585.55
859.109	905.03
859.292	589.64
859.475	530.25
859.658	1189.7
859.841	1038.15
860.023	429.9
860.206	517.97
860.389	886.6
860.572	1148.74
860.755	616.27
860.937	577.36
861.12	757.58
861.303	735.05
861.486	739.15
861.668	587.6
861.851	1032.01
862.034	907.08
862.216	659.28
862.399	405.33
862.581	976.71
862.764	1089.35
862.947	683.85
863.129	495.44
863.312	689.99
863.494	1154.88
863.677	880.46
863.859	454.48
864.042	1109.83
864.224	1113.92
864.406	683.85
864.589	374.61
864.771	909.13
864.954	620.36
865.136	651.08
865.318	345.94
865.501	1005.38
865.683	386.9
865.865	630.6
866.048	546.64
866.23	790.35
866.412	753.48
866.594	491.34
866.777	657.23
866.959	1019.72
867.141	679.75
867.323	741.19
867.505	720.71
867.687	812.87
867.869	802.63
868.052	577.36
868.234	515.92
868.416	782.15
868.598	921.42
868.78	522.06
868.962	388.94
869.144	1023.81
869.326	1025.86
869.508	522.06
869.69	520.01
869.872	610.12
870.054	1066.82
870.236	513.87
870.417	569.16
870.599	655.18
870.781	1161.03
870.963	761.67
871.145	495.44
871.327	468.81
871.508	919.37
871.69	595.79
871.872	593.74
872.054	784.2
872.235	859.98
872.417	651.08
872.599	507.73
872.78	1126.21
872.962	782.15
873.144	495.44
873.325	556.88
873.507	1253.19
873.689	847.69
873.87	423.76
874.052	667.47
874.233	704.33
874.415	1017.67
874.596	626.51
874.778	442.19
874.959	806.73
875.141	980.81
875.322	577.36
875.503	524.11
875.685	919.37
875.866	421.71
876.048	581.45
876.229	491.34
876.41	761.67
876.592	876.36
876.773	477.01
876.954	364.37
877.136	1146.69
877.317	649.04
877.498	358.22
877.679	663.37
877.86	945.99
878.042	835.4
878.223	581.45
878.404	794.44
878.585	948.04
878.766	1118.02
878.947	626.51
879.128	685.9
879.309	968.52
879.49	1023.81
879.672	626.51
879.853	606.03
880.034	612.17
880.215	716.62
880.396	620.36
880.576	634.7
880.757	610.12
880.938	1040.2
881.119	552.78
881.3	511.82
881.481	687.95
881.662	1574.72
881.843	434
882.023	444.24
882.204	831.3
882.385	821.06
882.566	468.81
882.747	511.82
882.927	735.05
883.108	925.51
883.289	610.12
883.469	800.59
883.65	767.82
883.831	841.54
884.011	819.02
884.192	577.36
884.373	1148.74
884.553	839.5
884.734	687.95
884.914	829.26
885.095	1376.06
885.275	1277.76
885.456	776.01
885.636	403.28
885.817	847.69
885.997	927.56
886.178	530.25
886.358	606.03
886.538	741.19
886.719	1748.79
886.899	534.35
887.08	675.66
887.26	1075.01
887.44	665.42
887.621	505.68
887.801	692.04
887.981	1306.43
888.161	1077.06
888.342	646.99
888.522	587.6
888.702	1122.12
888.882	1007.43
889.062	737.1
889.242	468.81
889.423	1163.08
889.603	1089.35
889.783	683.85
889.963	651.08
890.143	980.81
890.323	1134.4
890.503	642.89
890.683	628.56
890.863	839.5
891.043	878.41
891.223	724.81
891.403	814.92
891.583	810.82
891.763	931.66
891.943	745.29
892.122	599.88
892.302	763.72
892.482	868.17
892.662	794.44
892.842	700.23
893.022	939.85
893.201	790.35
893.381	794.44
893.561	626.51
893.741	1083.2
893.92	1011.53
894.1	704.33
894.28	745.29
894.459	1115.97
894.639	905.03
894.819	692.04
894.998	843.59
895.178	923.46
895.357	982.85
895.537	634.7
895.716	499.53
895.896	907.08
896.075	1288
896.255	640.84
896.434	421.71
896.614	1146.69
896.793	1175.36
896.973	788.3
897.152	798.54
897.331	950.09
897.511	1038.15
897.69	499.53
897.87	685.9
898.049	962.37
898.228	859.98
898.407	794.44
898.587	784.2
898.766	778.06
898.945	1095.49
899.124	966.47
899.304	810.82
899.483	1011.53
899.662	1281.86
899.841	743.24
900.02	638.8
900.199	1212.23
900.378	892.74
900.557	558.92
900.737	567.12
900.916	1097.54
901.095	1173.32
901.274	927.56
901.453	563.02
901.632	634.7
901.811	636.75
901.989	651.08
902.168	515.92
902.347	1036.1
902.526	737.1
902.705	640.84
902.884	661.32
903.063	1048.39
903.242	1279.81
903.42	606.03
903.599	776.01
903.778	1093.44
903.957	1222.47
904.135	829.26
904.314	786.25
904.493	911.18
904.672	1118.02
904.85	683.85
905.029	644.94
905.207	993.09
905.386	1584.96
905.565	438.09
905.743	612.17
905.922	821.06
906.1	1208.13
906.279	558.92
906.457	644.94
906.636	849.74
906.814	890.7
906.993	661.32
907.171	546.64
907.35	1027.91
907.528	1064.77
907.707	917.32
907.885	538.45
908.063	1204.03
908.242	712.52
908.42	644.94
908.598	442.19
908.777	999.24
908.955	800.59
909.133	804.68
909.311	560.97
909.49	839.5
909.668	806.73
909.846	659.28
910.024	423.76
910.202	855.88
910.38	855.88
910.559	571.21
910.737	649.04
910.915	986.95
911.093	917.32
911.271	730.95
911.449	927.56
911.627	939.85
911.805	1421.12
911.983	601.93
912.161	599.88
912.339	999.24
912.517	1193.8
912.695	739.15
912.872	644.94
913.05	558.92
913.228	1062.73
913.406	593.74
913.584	595.79
913.762	941.89
913.939	657.23
914.117	610.12
914.295	511.82
914.473	1056.58
914.65	864.07
914.828	620.36
915.006	452.43
915.184	591.69
915.361	943.94
915.539	608.08
915.716	767.82
915.894	886.6
916.072	952.13
916.249	802.63
916.427	698.19
916.604	628.56
916.782	886.6
916.959	434
917.137	487.25
917.314	909.13
917.492	927.56
917.669	724.81
917.847	745.29
918.024	956.23
918.201	673.61
918.379	704.33
918.556	612.17
918.733	982.85
918.911	749.39
919.088	749.39
919.265	567.12
919.442	853.83
919.62	679.75
919.797	573.26
919.974	538.45
920.151	876.36
920.328	945.99
920.506	606.03
920.683	683.85
920.86	642.89
921.037	575.31
921.214	624.46
921.391	536.4
921.568	1003.33
921.745	649.04
921.922	671.56
922.099	491.34
922.276	962.37
922.453	812.87
922.63	497.49
922.807	843.59
922.984	878.41
923.161	610.12
923.338	489.29
923.514	427.85
923.691	726.86
923.868	728.91
924.045	534.35
924.222	520.01
924.399	819.02
924.575	1044.29
924.752	651.08
924.929	649.04
925.105	864.07
925.282	481.1
925.459	464.72
925.635	575.31
925.812	675.66
925.989	638.8
926.165	628.56
926.342	337.74
926.518	474.96
926.695	728.91
926.871	528.21
927.048	343.89
927.224	950.09
927.401	638.8
927.577	565.07
927.754	313.17
927.93	962.37
928.107	821.06
928.283	479.05
928.459	702.28
928.636	837.45
928.812	642.89
928.988	472.91
929.165	378.7
929.341	700.23
929.517	739.15
929.693	823.11
929.87	323.41
930.046	900.94
930.222	565.07
930.398	436.05
930.574	595.79
930.751	677.71
930.927	423.76
931.103	571.21
931.279	583.5
931.455	452.43
931.631	657.23
931.807	280.4
931.983	231.25
932.159	323.41
932.335	642.89
932.511	505.68
932.687	466.77
932.863	749.39
933.039	638.8
933.215	296.78
933.391	323.41
933.566	462.67
933.742	724.81
933.918	343.89
934.094	261.97
934.27	632.65
934.445	606.03
934.621	511.82
934.797	298.83
934.973	907.08
935.148	667.47
935.324	278.35
935.5	110.42
935.675	843.59
935.851	546.64
936.027	350.03
936.202	409.42
936.378	659.28
936.553	524.11
936.729	708.43
936.904	208.72
937.08	294.74
937.255	411.47
937.431	259.92
937.606	130.9
937.782	417.61
937.957	544.59
938.133	446.29
938.308	282.45
938.483	405.33
938.659	202.58
938.834	343.89
939.009	182.1
939.185	405.33
939.36	327.5
939.535	-106.67
939.71	331.6
939.886	698.19
940.061	499.53
940.236	376.66
940.411	282.45
940.586	507.73
940.761	548.68
940.937	302.93
941.112	178
941.287	487.25
941.462	405.33
941.637	104.28
941.812	300.88
941.987	456.53
942.162	421.71
942.337	284.5
942.512	186.19
942.687	558.92
942.862	610.12
943.037	81.75
943.212	-92.33
943.386	327.5
943.561	411.47
943.736	395.09
943.911	464.72
944.086	554.83
944.26	386.9
944.435	182.1
944.61	268.11
944.785	696.14
944.959	837.45
945.134	268.11
945.309	67.41
945.483	223.06
945.658	591.69
945.833	-151.72
946.007	-6.31
946.182	788.3
946.357	167.76
946.531	57.17
946.706	46.93
946.88	22.36
947.055	401.23
947.229	122.71
947.404	44.88
947.578	503.63
947.752	278.35
947.927	-4.27
948.101	-34.99
948.276	319.31
948.45	286.54
948.624	206.67
948.799	81.75
948.973	407.38
949.147	12.12
949.321	239.44
949.496	102.23
949.67	646.99
949.844	329.55
950.018	255.83
950.193	91.99
950.367	800.59
950.541	231.25
950.715	313.17
950.889	315.22
951.063	319.31
951.237	520.01
951.411	-84.14
951.585	-67.75
951.759	450.38
951.933	350.03
952.107	83.8
952.281	294.74
952.455	722.76
952.629	489.29
952.803	1.88
952.977	114.52
953.151	499.53
953.325	468.81
953.499	261.97
953.672	-8.36
953.846	153.43
954.02	233.3
954.194	91.99
954.368	46.93
954.541	505.68
954.715	235.35
954.889	280.4
955.062	-6.31
955.236	311.12
955.41	194.39
955.583	257.87
955.757	-71.85
955.93	235.35
956.104	44.88
956.278	81.75
956.451	161.62
956.625	448.33
956.798	792.39
956.972	407.38
957.145	51.03
957.319	292.69
957.492	253.78
957.665	264.02
957.839	102.23
958.012	399.18
958.185	218.96
958.359	153.43
958.532	370.51
958.705	513.87
958.879	397.14
959.052	212.82
959.225	-123.05
959.398	341.84
959.572	284.5
959.745	163.67
959.918	180.05
960.091	216.91
960.264	491.34
960.438	20.31
960.611	12.12
960.784	511.82
960.957	124.76
961.13	477.01
961.303	67.41
961.476	241.49
961.649	517.97
961.822	53.08
961.995	184.15
962.168	472.91
962.341	372.56
962.514	112.47
962.686	135
962.859	333.65
963.032	341.84
963.205	120.66
963.378	-37.03
963.551	403.28
963.723	321.36
963.896	294.74
964.069	225.11
964.242	286.54
964.414	450.38
964.587	178
964.76	124.76
964.932	376.66
965.105	143.19
965.278	169.81
965.45	73.56
965.623	288.59
965.795	520.01
965.968	55.12
966.14	184.15
966.313	229.2
966.485	309.07
966.658	135
966.83	65.36
967.003	505.68
967.175	548.68
967.348	149.33
967.52	130.9
967.692	714.57
967.865	374.61
968.037	83.8
968.209	419.66
968.382	208.72
968.554	440.14
968.726	128.85
968.898	147.28
969.071	358.22
969.243	493.39
969.415	110.42
969.587	186.19
969.759	816.97
969.932	468.81
970.104	87.89
970.276	-145.58
970.448	182.1
970.62	180.05
970.792	194.39
970.964	192.34
971.136	784.2
971.308	452.43
971.48	48.98
971.652	98.13
971.824	651.08
971.996	245.59
972.168	178
972.339	180.05
972.511	524.11
972.683	274.26
972.855	366.42
973.027	106.32
973.199	296.78
973.37	544.59
973.542	278.35
973.714	221.01
973.886	343.89
974.057	560.97
974.229	-45.23
974.401	44.88
974.572	159.57
974.744	-123.05
974.915	-47.27
975.087	3.93
975.259	706.38
975.43	186.19
975.602	30.55
975.773	55.12
975.945	143.19
976.116	460.62
976.288	28.5
976.459	212.82
976.63	198.48
976.802	405.33
976.973	57.17
977.145	194.39
977.316	823.11
977.487	681.8
977.659	190.29
977.83	114.52
978.001	700.23
978.172	296.78
978.344	48.98
978.515	34.64
978.686	194.39
978.857	556.88
979.028	124.76
979.2	10.07
979.371	464.72
979.542	270.16
979.713	284.5
979.884	-264.36
980.055	135
980.226	255.83
980.397	34.64
980.568	38.74
980.739	526.16
980.91	264.02
981.081	223.06
981.252	-6.31
981.423	423.76
981.594	495.44
981.765	42.84
981.936	184.15
982.106	313.17
982.277	507.73
982.448	73.56
982.619	227.15
982.79	175.95
982.96	601.93
983.131	120.66
983.302	-102.57
983.472	190.29
983.643	397.14
983.814	278.35
983.984	118.61
984.155	153.43
984.326	481.1
984.496	130.9
984.667	100.18
984.837	132.95
985.008	532.3
985.178	175.95
985.349	91.99
985.519	227.15
985.69	135
985.86	87.89
986.031	114.52
986.201	341.84
986.371	509.77
986.542	-26.79
986.712	-125.1
986.882	386.9
987.053	378.7
987.223	-65.71
987.393	167.76
987.563	159.57
987.734	401.23
987.904	405.33
988.074	12.12
988.244	362.32
988.414	38.74
988.585	-34.99
988.755	51.03
988.925	239.44
989.095	667.47
989.265	73.56
989.435	151.38
989.605	399.18
989.775	350.03
989.945	329.55
990.115	-73.9
990.285	216.91
990.455	343.89
990.625	91.99
990.795	-6.31
990.965	644.94
991.134	20.31
991.304	-8.36
991.474	-2.22
991.644	304.98
991.814	673.61
991.984	-71.85
992.153	24.4
992.323	212.82
992.493	175.95
992.662	-225.45
992.832	218.96
993.002	307.02
993.171	350.03
993.341	-116.9
993.511	175.95
993.68	100.18
993.85	341.84
994.019	-184.49
994.189	-80.04
994.358	261.97
994.528	180.05
994.697	-200.87
994.867	-123.05
995.036	397.14
995.206	200.53
995.375	-82.09
995.544	143.19
995.714	169.81
995.883	188.24
996.052	165.71
996.222	-204.97
996.391	755.53
996.56	198.48
996.73	-100.52
996.899	-86.19
997.068	544.59
997.237	184.15
997.406	-0.17
997.576	-270.5
997.745	212.82
997.914	327.5
998.083	-219.3
998.252	-47.27
998.421	143.19
998.59	20.31
998.759	-69.8
998.928	-217.26
999.097	317.26
999.266	225.11
999.435	53.08
999.604	-243.88
999.773	696.14
999.942	98.13
1000.111	-198.82
1000.28	-229.54
1000.448	-22.7
1000.617	3.93
1000.786	137.04
1000.955	-166.06
1001.124	216.91
1001.292	833.35
1001.461	-73.9
1001.63	-192.68
1001.798	526.16
1001.967	425.81
1002.136	-143.53
1002.304	-84.14
1002.473	288.59
1002.642	315.22
1002.81	-65.71
1002.979	-106.67
1003.147	335.7
1003.316	763.72
1003.484	-98.47
1003.653	-155.82
1003.821	528.21
1003.99	237.39
1004.158	1.88
1004.327	5.97
1004.495	274.26
1004.663	-4.27
1004.832	-47.27
1005	-272.55
1005.168	350.03
1005.337	208.72
1005.505	-231.59
1005.673	135
1005.842	333.65
1006.01	319.31
1006.178	-172.2
1006.346	-82.09
1006.514	294.74
1006.683	386.9
1006.851	-90.28
1007.019	-262.31
1007.187	14.17
1007.355	-284.84
1007.523	-227.5
1007.691	-241.83
1007.859	-110.76
1008.027	477.01
1008.195	-67.75
1008.363	-192.68
1008.531	417.61
1008.699	-51.37
1008.867	-155.82
1009.035	-8.36
1009.203	485.2
1009.37	126.8
1009.538	-71.85
1009.706	261.97
1009.874	202.58
1010.042	120.66
1010.209	-225.45
1010.377	-164.01
1010.545	368.46
1010.713	132.95
1010.88	-196.78
1011.048	-69.8
1011.216	71.51
1011.383	456.53
1011.551	-207.02
1011.718	-104.62
1011.886	368.46
1012.054	96.08
1012.221	-202.92
1012.389	-118.95
1012.556	110.42
1012.724	530.25
1012.891	-20.65
1013.058	-286.89
1013.226	302.93
1013.393	309.07
1013.561	-262.31
1013.728	-295.08
1013.895	333.65
1014.063	315.22
1014.23	-247.97
1014.397	-155.82
1014.565	417.61
1014.732	57.17
1014.899	-200.87
1015.066	-325.8
1015.233	196.43
1015.401	368.46
1015.568	-20.65
1015.735	-4.27
1015.902	204.63
1016.069	255.83
1016.236	-98.47
1016.403	-221.35
1016.57	-63.66
1016.737	272.21
1016.904	-133.29
1017.071	-223.4
1017.238	38.74
1017.405	407.38
1017.572	-215.21
1017.739	63.32
1017.906	393.04
1018.073	425.81
1018.24	-262.31
1018.407	-102.57
1018.573	407.38
1018.74	91.99
1018.907	-166.06
1019.074	-280.74
1019.241	352.08
1019.407	212.82
1019.574	-188.58
1019.741	-237.74
1019.907	188.24
1020.074	257.87
1020.241	-372.9
1020.407	-225.45
1020.574	251.73
1020.74	276.31
1020.907	-227.5
1021.073	-217.26
1021.24	669.52
1021.406	487.25
1021.573	-237.74
1021.739	-170.15
1021.906	372.56
1022.072	108.37
1022.239	-147.62
1022.405	-125.1
1022.571	196.43
1022.738	8.02
1022.904	-202.92
1023.07	-147.62
1023.237	241.49
1023.403	401.23
1023.569	-166.06
1023.735	-39.08
1023.902	208.72
1024.068	245.59
1024.234	-286.89
1024.4	-176.3
1024.566	286.54
1024.732	323.41
1024.898	-170.15
1025.065	-250.02
1025.231	319.31
1025.397	28.5
1025.563	-204.97
1025.729	-157.86
1025.895	-190.63
1026.061	-71.85
1026.227	-368.81
1026.392	-123.05
1026.558	347.98
1026.724	294.74
1026.89	-256.17
1027.056	-217.26
1027.222	221.01
1027.388	85.84
1027.553	-151.72
1027.719	-161.96
1027.885	489.29
1028.051	356.18
1028.216	-303.27
1028.382	-227.5
1028.548	282.45
1028.713	3.93
1028.879	-305.32
1029.045	22.36
1029.21	454.48
1029.376	464.72
1029.541	-73.9
1029.707	-133.29
1029.873	302.93
1030.038	419.66
1030.204	-176.3
1030.369	-168.1
1030.534	405.33
1030.7	51.03
1030.865	-129.19
1031.031	-192.68
1031.196	300.88
1031.361	135
1031.527	-237.74
1031.692	-231.59
1031.857	-194.73
1032.023	360.27
1032.188	-247.97
1032.353	-102.57
1032.518	608.08
1032.684	149.33
1032.849	-311.46
1033.014	-86.19
1033.179	360.27
1033.344	315.22
1033.509	-127.14
1033.674	-180.39
1033.839	362.32
1034.004	360.27
1034.17	-98.47
1034.335	-219.3
1034.5	69.46
1034.664	-22.7
1034.829	-196.78
1034.994	-137.38
1035.159	259.92
1035.324	212.82
1035.489	-149.67
1035.654	-174.25
1035.819	466.77
1035.984	274.26
1036.148	-200.87
1036.313	-178.34
1036.478	427.85
1036.643	198.48
1036.807	-211.11
1036.972	-276.65
1037.137	456.53
1037.301	202.58
1037.466	-286.89
1037.631	-143.53
1037.795	425.81
1037.96	206.67
1038.124	10.07
1038.289	-245.93
1038.454	321.36
1038.618	233.3
1038.783	-135.34
1038.947	-43.18
1039.111	210.77
1039.276	81.75
1039.44	-202.92
1039.605	227.15
1039.769	26.45
1039.933	175.95
1040.098	-106.67
1040.262	53.08
1040.426	356.18
1040.591	368.46
1040.755	-211.11
1040.919	-121
1041.083	286.54
1041.248	135
1041.412	-260.26
1041.576	-223.4
1041.74	26.45
1041.904	382.8
1042.068	-145.58
1042.232	-114.86
1042.397	366.42
1042.561	292.69
1042.725	-340.13
1042.889	-12.46
1043.053	311.12
1043.217	292.69
1043.381	46.93
1043.544	-288.93
1043.708	481.1
1043.872	1.88
1044.036	-364.71
1044.2	-317.61
1044.364	339.79
1044.528	569.16
1044.691	4304.66
1044.855	-303.27
1045.019	444.24
1045.183	272.21
1045.346	-153.77
1045.51	-204.97
1045.674	184.15
1045.837	259.92
1046.001	-104.62
1046.165	-190.63
1046.328	706.38
1046.492	206.67
1046.655	16.21
1046.819	-159.91
1046.983	57.17
1047.146	360.27
1047.31	-94.38
1047.473	-299.17
1047.636	94.04
1047.8	-0.17
1047.963	-100.52
1048.127	-209.06
1048.29	51.03
