Data from Ink_Intensity_USB4F045381__19__00019.txt Node

Date: Mon Jul 17 09:38:51 EDT 2023
User: mmckonesweet
Spectrometer: USB4F04538
Trigger mode: 4
Integration Time (sec): 9.000000E-1
Scans to average: 1
Electric dark correction enabled: true
Nonlinearity correction enabled: false
Boxcar width: 0
XAxis mode: Wavelengths
Number of Pixels in Spectrum: 3648
>>>>>Begin Spectral Data<<<<<
345.52	-912.54
345.736	-912.54
345.952	-912.54
346.168	-947.36
346.384	-900.25
346.6	-132.26
346.816	-255.14
347.032	-210.09
347.248	330.58
347.464	-187.56
347.68	-113.83
347.896	56.15
348.112	320.34
348.328	-52.39
348.544	-48.3
348.76	13.14
348.975	279.38
349.191	-193.7
349.407	-138.41
349.623	-13.48
349.839	-76.97
350.055	-101.55
350.27	13.14
350.486	166.74
350.702	385.87
350.918	273.23
351.133	-162.98
351.349	117.59
351.565	379.73
351.781	-191.66
351.996	76.63
352.212	281.43
352.428	-101.55
352.644	-91.31
352.859	-195.75
353.075	316.24
353.291	-44.2
353.506	-52.39
353.722	-244.9
353.938	-111.78
354.153	353.1
354.369	93.01
354.584	-187.56
354.8	197.46
355.016	-283.81
355.231	-167.08
355.447	-27.82
355.662	64.34
355.878	807.75
356.093	-300.2
356.309	21.33
356.524	-216.23
356.74	209.75
356.955	-95.4
357.171	9.05
357.386	127.83
357.602	-339.11
357.817	-23.72
358.033	-128.17
358.248	426.83
358.464	68.44
358.679	-89.26
358.895	-300.2
359.11	-13.48
359.325	334.67
359.541	219.99
359.756	-66.73
359.972	-285.86
360.187	111.44
360.402	-148.65
360.618	-156.84
360.833	961.35
361.048	230.23
361.264	-171.18
361.479	-64.68
361.694	-23.72
361.909	111.44
362.125	-240.81
362.34	-105.64
362.555	150.36
362.77	68.44
362.986	-285.86
363.201	-169.13
363.416	93.01
363.631	-29.87
363.847	-197.8
364.062	-140.46
364.277	152.4
364.492	45.91
364.707	-72.87
364.922	-322.73
365.138	246.61
365.353	324.43
365.568	-214.18
365.783	-68.78
365.998	54.1
366.213	574.28
366.428	-185.51
366.643	50
366.858	213.84
367.073	131.92
367.288	-169.13
367.503	-177.32
367.718	74.58
367.933	277.33
368.148	-300.2
368.363	17.24
368.578	-44.2
368.793	410.45
369.008	-122.02
369.223	-226.47
369.438	242.51
369.653	430.93
369.868	-224.42
370.083	-277.67
370.298	95.06
370.513	338.77
370.728	144.21
370.943	-128.17
371.157	-173.22
371.372	418.64
371.587	-255.14
371.802	-183.46
372.017	11.09
372.232	379.73
372.446	-7.34
372.661	-177.32
372.876	191.31
373.091	150.36
373.306	-117.93
373.52	-199.85
373.735	-195.75
373.95	248.66
374.165	-62.63
374.379	-119.98
374.594	-142.5
374.809	84.82
375.023	4.95
375.238	-199.85
375.453	129.88
375.667	-306.34
375.882	-97.45
376.097	-103.59
376.311	7
376.526	-48.3
376.741	-251.05
376.955	119.64
377.17	543.57
377.384	492.37
377.599	-19.63
377.813	-244.9
378.028	590.67
378.242	207.7
378.457	-36.01
378.672	-339.11
378.886	181.07
379.101	-171.18
379.315	-279.72
379.53	-134.31
379.744	93.01
379.958	115.54
380.173	-162.98
380.387	-122.02
380.602	187.22
380.816	-181.42
381.031	-122.02
381.245	-142.5
381.459	62.29
381.674	2343.73
381.888	-165.03
382.103	35.67
382.317	-224.42
382.531	449.36
382.746	-13.48
382.96	-189.61
383.174	-122.02
383.388	422.73
383.603	80.72
383.817	-203.94
384.031	80.72
384.246	328.53
384.46	-62.63
384.674	346.96
384.888	-31.91
385.103	82.77
385.317	-283.81
385.531	17.24
385.745	262.99
385.959	250.71
386.174	-148.65
386.388	-183.46
386.602	-44.2
386.816	-185.51
387.03	-79.02
387.244	-54.44
387.458	45.91
387.672	258.9
387.887	-285.86
388.101	-271.53
388.315	332.62
388.529	129.88
388.743	-173.22
388.957	-154.79
389.171	316.24
389.385	-162.98
389.599	-79.02
389.813	82.77
390.027	199.51
390.241	631.63
390.455	-89.26
390.669	-107.69
390.883	-105.64
391.097	361.3
391.311	0.85
391.525	-128.17
391.738	142.16
391.952	78.68
392.166	9.05
392.38	-201.9
392.594	217.94
392.808	406.35
393.022	-124.07
393.236	-179.37
393.449	170.83
393.663	164.69
393.877	-228.52
394.091	-101.55
394.305	-140.46
394.518	-91.31
394.732	-275.62
394.946	-122.02
395.16	359.25
395.373	107.35
395.587	-253.09
395.801	-130.22
396.015	289.62
396.228	90.96
396.442	-261.29
396.656	-292.01
396.869	336.72
397.083	404.3
397.297	21.33
397.51	-158.89
397.724	445.26
397.938	150.36
398.151	-283.81
398.365	-189.61
398.578	181.07
398.792	361.3
399.005	-42.15
399.219	-21.67
399.433	156.5
399.646	207.7
399.86	19.29
400.073	21.33
400.287	287.57
400.5	-66.73
400.714	-46.25
400.927	-66.73
401.141	168.79
401.354	969.54
401.567	142.16
401.781	-240.81
401.994	314.19
402.208	496.46
402.421	45.91
402.635	-79.02
402.848	-21.67
403.061	273.23
403.275	41.81
403.488	-216.23
403.701	541.52
403.915	203.6
404.128	111.44
404.341	-173.22
404.555	111.44
404.768	-42.15
404.981	29.52
405.195	-134.31
405.408	555.85
405.621	224.08
405.834	21.33
406.048	-191.66
406.261	398.16
406.474	459.6
406.687	-134.31
406.9	-1.19
407.114	97.11
407.327	72.53
407.54	-330.92
407.753	-261.29
407.966	-134.31
408.179	226.13
408.392	-195.75
408.605	-300.2
408.819	176.98
409.032	125.78
409.245	-165.03
409.458	144.21
409.671	226.13
409.884	246.61
410.097	-271.53
410.31	37.72
410.523	166.74
410.736	43.86
410.949	-15.53
411.162	-40.11
411.375	402.26
411.588	299.86
411.801	107.35
412.014	-183.46
412.227	-7.34
412.44	-7.34
412.653	-175.27
412.865	74.58
413.078	265.04
413.291	138.07
413.504	-25.77
413.717	-126.12
413.93	213.84
414.143	-52.39
414.356	-117.93
414.568	-205.99
414.781	338.77
414.994	82.77
415.207	-33.96
415.42	-46.25
415.632	285.52
415.845	496.46
416.058	-240.81
416.271	-144.55
416.483	33.62
416.696	471.89
416.909	-167.08
417.121	-148.65
417.334	228.18
417.547	496.46
417.759	-113.83
417.972	-111.78
418.185	-21.67
418.397	273.23
418.61	-177.32
418.823	-152.74
419.035	443.21
419.248	17.24
419.46	-99.5
419.673	17.24
419.885	312.14
420.098	-15.53
420.311	-83.11
420.523	-257.19
420.736	215.89
420.948	33.62
421.161	-105.64
421.373	-285.86
421.586	121.68
421.798	-91.31
422.01	-222.38
422.223	-38.06
422.435	2.9
422.648	230.23
422.86	-95.4
423.073	-187.56
423.285	351.06
423.497	-226.47
423.71	-46.25
423.922	-130.22
424.134	189.27
424.347	281.43
424.559	82.77
424.771	201.55
424.984	90.96
425.196	156.5
425.408	-261.29
425.621	-197.8
425.833	359.25
426.045	414.54
426.257	-212.14
426.47	-148.65
426.682	181.07
426.894	193.36
427.106	-48.3
427.318	-56.49
427.531	-91.31
427.743	332.62
427.955	-167.08
428.167	303.95
428.379	222.03
428.591	60.24
428.804	13.14
429.016	-162.98
429.228	74.58
429.44	193.36
429.652	54.1
429.864	-191.66
430.076	35.67
430.288	72.53
430.5	-25.77
430.712	23.38
430.924	385.87
431.136	109.4
431.348	-150.7
431.56	-220.33
431.772	119.64
431.984	68.44
432.196	-101.55
432.408	-109.74
432.62	-13.48
432.832	148.31
433.044	205.65
433.256	19.29
433.468	275.28
433.679	-308.39
433.891	-105.64
434.103	95.06
434.315	426.83
434.527	281.43
434.739	-68.78
434.95	-36.01
435.162	306
435.374	-23.72
435.586	-91.31
435.798	-115.88
436.009	-195.75
436.221	82.77
436.433	-72.87
436.645	0.85
436.856	-58.54
437.068	346.96
437.28	-171.18
437.491	287.57
437.703	262.99
437.915	265.04
438.126	-46.25
438.338	119.64
438.55	115.54
438.761	201.55
438.973	-44.2
439.184	-74.92
439.396	127.83
439.608	420.69
439.819	-165.03
440.031	68.44
440.242	308.05
440.454	174.93
440.665	-27.82
440.877	78.68
441.088	181.07
441.3	33.62
441.511	-191.66
441.723	-138.41
441.934	125.78
442.146	70.48
442.357	62.29
442.569	195.41
442.78	146.26
442.991	459.6
443.203	287.57
443.414	-150.7
443.626	394.06
443.837	-68.78
444.048	-142.5
444.26	-230.57
444.471	111.44
444.682	381.78
444.894	-238.76
445.105	-179.37
445.316	324.43
445.528	205.65
445.739	101.2
445.95	-31.91
446.161	213.84
446.373	359.25
446.584	35.67
446.795	15.19
447.006	322.38
447.217	553.8
447.429	-199.85
447.64	-97.45
447.851	412.5
448.062	101.2
448.273	-183.46
448.484	-46.25
448.695	287.57
448.907	9.05
449.118	129.88
449.329	109.4
449.54	2.9
449.751	-146.6
449.962	68.44
450.173	4.95
450.384	404.3
450.595	367.44
450.806	47.96
451.017	64.34
451.228	475.98
451.439	412.5
451.65	-36.01
451.861	-212.14
452.072	-27.82
452.283	187.22
452.494	138.07
452.705	-105.64
452.915	535.37
453.126	254.8
453.337	-64.68
453.548	-44.2
453.759	422.73
453.97	711.5
454.181	183.12
454.391	97.11
454.602	189.27
454.813	301.9
455.024	0.85
455.235	-11.43
455.445	228.18
455.656	275.28
455.867	172.88
456.078	-56.49
456.288	88.92
456.499	217.94
456.71	-48.3
456.921	279.38
457.131	357.2
457.342	205.65
457.553	72.53
457.763	-23.72
457.974	435.02
458.184	346.96
458.395	-42.15
458.606	-66.73
458.816	402.26
459.027	637.77
459.237	129.88
459.448	-152.74
459.659	484.17
459.869	688.97
460.08	-113.83
460.29	156.5
460.501	650.06
460.711	99.16
460.922	-101.55
461.132	-27.82
461.343	820.04
461.553	23.38
461.764	-33.96
461.974	0.85
462.184	443.21
462.395	301.9
462.605	127.83
462.816	-1.19
463.026	248.66
463.236	508.75
463.447	25.43
463.657	21.33
463.867	418.64
464.078	195.41
464.288	123.73
464.498	78.68
464.709	168.79
464.919	279.38
465.129	162.64
465.339	13.14
465.55	449.36
465.76	484.17
465.97	88.92
466.18	29.52
466.391	547.66
466.601	492.37
466.811	80.72
467.021	0.85
467.231	287.57
467.441	570.19
467.651	174.93
467.862	-148.65
468.072	281.43
468.282	670.54
468.492	168.79
468.702	119.64
468.912	410.45
469.122	779.08
469.332	383.82
469.542	111.44
469.752	510.8
469.962	340.82
470.172	123.73
470.382	174.93
470.592	506.7
470.802	701.26
471.012	246.61
471.222	154.45
471.432	535.37
471.642	533.33
471.852	351.06
472.062	129.88
472.272	326.48
472.482	205.65
472.691	125.78
472.901	105.3
473.111	494.41
473.321	924.49
473.531	121.68
473.741	254.8
473.95	465.74
474.16	523.09
474.37	330.58
474.58	164.69
474.79	848.71
474.999	670.54
475.209	168.79
475.419	291.66
475.628	439.12
475.838	779.08
476.048	326.48
476.258	123.73
476.467	713.55
476.677	357.2
476.886	498.51
477.096	467.79
477.306	398.16
477.515	762.7
477.725	443.21
477.935	387.92
478.144	854.86
478.354	361.3
478.563	459.6
478.773	246.61
478.982	723.79
479.192	899.91
479.401	525.13
479.611	295.76
479.82	359.25
480.03	656.2
480.239	377.68
480.449	338.77
480.658	1051.46
480.868	512.85
481.077	502.61
481.287	398.16
481.496	758.6
481.705	959.3
481.915	666.44
482.124	607.05
482.333	797.51
482.543	985.93
482.752	459.6
482.961	469.84
483.171	883.53
483.38	717.64
483.589	635.72
483.799	492.37
484.008	611.15
484.217	981.83
484.426	543.57
484.636	443.21
484.845	748.36
485.054	506.7
485.263	766.79
485.472	611.15
485.682	1143.62
485.891	779.08
486.1	437.07
486.309	598.86
486.518	1010.5
486.727	1073.99
486.936	486.22
487.146	639.82
487.355	1104.71
487.564	629.58
487.773	723.79
487.982	629.58
488.191	768.84
488.4	998.21
488.609	588.62
488.818	766.79
489.027	1385.28
489.236	1178.44
489.445	729.93
489.654	666.44
489.863	1102.66
490.072	959.3
490.281	1069.89
490.49	742.22
490.698	1266.5
490.907	1223.49
491.116	822.09
491.325	660.3
491.534	1237.83
491.743	1014.6
491.952	815.94
492.16	846.66
492.369	1090.37
492.578	1180.48
492.787	959.3
492.996	721.74
493.204	908.1
493.413	1526.59
493.622	684.87
493.831	770.89
494.039	1381.18
494.248	854.86
494.457	824.14
494.665	770.89
494.874	1207.11
495.083	1405.76
495.291	1000.26
495.5	807.75
495.709	1213.25
495.917	987.97
496.126	1039.17
496.335	854.86
496.543	1026.89
496.752	1211.2
496.96	1147.72
497.169	779.08
497.377	1131.33
497.586	1467.2
497.794	1157.96
498.003	779.08
498.211	1157.96
498.42	1637.18
498.628	1033.03
498.837	852.81
499.045	1385.28
499.254	1356.61
499.462	904.01
499.671	1016.65
499.879	1559.36
500.087	1405.76
500.296	959.3
500.504	1057.61
500.713	1248.07
500.921	1729.34
501.129	961.35
501.338	1057.61
501.546	1301.31
501.754	1258.31
501.962	1065.8
502.171	990.02
502.379	1399.62
502.587	1686.33
502.795	1194.82
503.004	1059.65
503.212	1446.72
503.42	1594.17
503.628	1141.57
503.837	1223.49
504.045	1493.82
504.253	1698.62
504.461	1209.15
504.669	926.54
504.877	1577.79
505.085	1796.92
505.294	1119.04
505.502	1379.14
505.71	1459.01
505.918	1649.47
506.126	1157.96
506.334	1108.8
506.542	1270.59
506.75	1399.62
506.958	1307.46
507.166	1309.51
507.374	1377.09
507.582	1823.55
507.79	1434.43
507.998	1286.98
508.206	1549.12
508.414	1643.32
508.622	1303.36
508.83	1196.87
509.037	1905.46
509.245	1391.42
509.453	1233.73
509.661	1221.44
509.869	1649.47
510.077	1549.12
510.285	1391.42
510.492	944.97
510.7	2138.93
510.908	1442.62
511.116	1307.46
511.324	1305.41
511.531	1585.98
511.739	1672
511.947	1502.01
512.155	1532.73
512.362	1647.42
512.57	1323.84
512.778	1401.66
512.985	1207.11
513.193	1723.2
513.401	1964.86
513.608	1358.66
513.816	1416
514.024	1813.31
514.231	1913.66
514.439	1332.03
514.646	1504.06
514.854	1790.78
515.061	1905.46
515.269	1436.48
515.477	1358.66
515.684	1497.92
515.892	1839.93
516.099	1372.99
516.307	1350.46
516.514	1874.74
516.722	2075.45
516.929	1555.26
517.136	1411.9
517.344	2112.31
517.551	1766.2
517.759	1442.62
517.966	1547.07
518.173	1647.42
518.381	1778.49
518.588	1635.13
518.796	1467.2
519.003	2038.58
519.21	1766.2
519.418	1579.84
519.625	1868.6
519.832	1897.27
520.039	1833.79
520.247	1399.62
520.454	1508.16
520.661	2100.02
520.868	1907.51
521.076	1680.19
521.283	1735.48
521.49	2384.69
521.697	1999.67
521.904	1676.09
522.112	1594.17
522.319	2159.41
522.526	1930.04
522.733	1602.36
522.94	1557.31
523.147	1882.94
523.354	2114.36
523.561	1459.01
523.768	1762.11
523.975	2106.17
524.183	2061.11
524.39	1786.68
524.597	1626.94
524.804	1993.53
525.011	1788.73
525.218	1751.87
525.425	1735.48
525.632	2308.91
525.838	1854.27
526.045	1719.1
526.252	1635.13
526.459	3091.24
526.666	2773.8
526.873	1721.15
527.08	1866.55
527.287	2429.74
527.494	2153.27
527.701	1737.53
527.907	1678.14
528.114	2177.84
528.321	2106.17
528.528	1927.99
528.735	1794.87
528.941	2149.17
529.148	1960.76
529.355	1958.71
529.562	1821.5
529.768	2507.57
529.975	2075.45
530.182	1960.76
530.388	1876.79
530.595	2290.48
530.802	1968.95
531.008	2050.87
531.215	2009.91
531.422	2788.14
531.628	2886.44
531.835	2200.37
532.042	1987.38
532.248	2093.88
532.455	2284.34
532.661	2270
532.868	2118.45
533.074	2317.11
533.281	2437.94
533.487	2059.06
533.694	1973.05
533.9	1989.43
534.107	2425.65
534.313	1964.86
534.52	1901.37
534.726	2482.99
534.933	2720.56
535.139	2069.3
535.345	2011.96
535.552	2536.24
535.758	2249.52
535.965	2134.84
536.171	2116.41
536.377	2511.66
536.584	2661.16
536.79	2106.17
536.996	2335.54
537.203	2427.7
537.409	2564.91
537.615	2231.09
537.821	2401.07
538.028	2741.04
538.234	2601.77
538.44	2247.48
538.646	2229.04
538.853	2646.83
539.059	2534.19
539.265	2628.4
539.471	2059.06
539.677	2597.68
539.883	2450.22
540.09	2313.01
540.296	2698.03
540.502	2499.38
540.708	2423.6
540.914	2308.91
541.12	2261.81
541.326	2609.97
541.532	2554.67
541.738	2394.93
541.944	2452.27
542.15	2835.24
542.356	2554.67
542.562	2353.97
542.768	2540.33
542.974	3226.4
543.18	3173.16
543.386	2442.03
543.592	2261.81
543.798	2960.17
544.004	2917.16
544.21	2362.16
544.415	2515.76
544.621	2732.84
544.827	2913.06
545.033	2478.9
545.239	2732.84
545.445	2636.59
545.651	2755.37
545.856	2478.9
546.062	2437.94
546.268	2695.98
546.474	2675.5
546.679	2585.39
546.885	2517.81
547.091	2577.2
547.297	3287.84
547.502	2646.83
547.708	2491.18
547.914	2462.51
548.119	3011.37
548.325	2495.28
548.531	2425.65
548.736	3144.49
548.942	2724.65
549.147	2536.24
549.353	2808.62
549.559	3091.24
549.764	3072.81
549.97	2685.74
550.175	2704.17
550.381	3007.27
550.586	2806.57
550.792	2755.37
550.997	2833.19
551.203	3023.66
551.408	2939.69
551.614	2575.15
551.819	2743.08
552.025	3310.37
552.23	3474.21
552.435	2552.62
552.641	2960.17
552.846	2712.36
553.052	3371.81
553.257	2980.65
553.462	2831.15
553.668	2868.01
553.873	3314.47
554.078	2781.99
554.283	2646.83
554.489	3115.81
554.694	3052.33
554.899	2673.45
555.105	3238.69
555.31	3216.16
555.515	3226.4
555.72	2870.06
555.925	2827.05
556.131	3341.09
556.336	2915.11
556.541	2870.06
556.746	2777.9
556.951	3398.43
557.156	3523.36
557.361	3066.66
557.567	3156.77
557.772	3609.37
557.977	3316.51
558.182	2954.02
558.387	3021.61
558.592	3148.58
558.797	3562.27
559.002	3035.94
559.207	3160.87
559.412	3220.26
559.617	3691.29
559.822	3115.81
560.027	2894.63
560.232	3425.06
560.437	3515.17
560.642	2798.38
560.847	3128.1
561.051	3238.69
561.256	3339.04
561.461	3130.15
561.666	3044.13
561.871	3369.76
562.076	3699.48
562.281	3144.49
562.485	2986.79
562.69	3474.21
562.895	3629.85
563.1	3328.8
563.305	3218.21
563.509	3629.85
563.714	3805.98
563.919	3296.04
564.123	3228.45
564.328	3425.06
564.533	3756.83
564.737	3263.27
564.942	3234.6
565.147	3951.39
565.351	3957.53
565.556	3343.14
565.761	3281.7
565.965	3500.83
566.17	3273.51
566.374	3205.92
566.579	3248.93
566.784	3515.17
566.988	3394.34
567.193	3144.49
567.397	3175.2
567.602	3289.89
567.806	3500.83
568.011	3359.52
568.215	3398.43
568.42	3466.02
568.624	3457.82
568.828	3420.96
569.033	3517.22
569.237	3719.96
569.442	3638.05
569.646	3322.66
569.85	3386.15
570.055	3629.85
570.259	3658.53
570.463	3666.72
570.668	3576.61
570.872	3660.57
571.076	3582.75
571.281	3529.5
571.485	3488.54
571.689	3672.86
571.893	4025.11
572.098	3574.56
572.302	3445.54
572.506	3906.33
572.71	3728.16
572.914	3468.06
573.119	3488.54
573.323	4092.69
573.527	3984.15
573.731	3699.48
573.935	3414.82
574.139	3855.13
574.343	3611.42
574.547	3619.61
574.751	3633.95
574.955	4078.36
575.159	3963.67
575.364	3554.08
575.568	3562.27
575.772	3756.83
575.976	4193.05
576.18	3584.8
576.383	3451.68
576.587	4152.09
576.791	4117.27
576.995	3439.39
577.199	3506.98
577.403	4129.56
577.607	4221.72
577.811	3607.33
578.015	3701.53
578.219	3928.86
578.422	4064.02
578.626	3738.4
578.83	3863.32
579.034	4201.24
579.238	4074.26
579.442	3554.08
579.645	4064.02
579.849	4121.37
580.053	3990.3
580.257	3707.68
580.46	3885.85
580.664	4260.63
580.868	4109.08
581.071	4139.8
581.275	4008.73
581.479	3785.5
581.682	4231.96
581.886	3863.32
582.09	3916.57
582.293	4307.73
582.497	4305.68
582.7	4049.69
582.904	3820.32
583.107	4049.69
583.311	4043.54
583.515	4064.02
583.718	4016.92
583.922	4309.78
584.125	4702.99
584.329	4010.78
584.532	4068.12
584.735	4467.47
584.939	4285.2
585.142	3900.19
585.346	3992.34
585.549	4453.14
585.753	4121.37
585.956	4123.41
586.159	4125.46
586.363	4719.37
586.566	4258.58
586.769	4092.69
586.973	3965.72
587.176	4420.37
587.379	4563.73
587.582	4446.99
587.786	4457.23
587.989	4393.75
588.192	4872.97
588.395	4207.38
588.599	4506.38
588.802	4539.15
589.005	4490
589.208	4055.83
589.411	4197.14
589.615	4713.23
589.818	4791.05
590.021	4434.71
590.224	4289.3
590.427	4713.23
590.63	4528.91
590.833	4184.85
591.036	4217.62
591.239	4504.34
591.442	4324.12
591.645	4586.26
591.848	4344.6
592.051	4639.5
592.254	4829.96
592.457	4393.75
592.66	4344.6
592.863	4639.5
593.066	4692.75
593.269	4449.04
593.472	4459.28
593.675	4340.5
593.878	4848.4
594.081	4545.3
594.284	4430.61
594.486	4780.81
594.689	4809.48
594.892	4582.16
595.095	4399.89
595.298	4623.12
595.5	4670.22
595.703	4608.78
595.906	4840.2
596.109	5063.43
596.311	4963.08
596.514	4328.21
596.717	4590.35
596.92	5118.73
597.122	4797.2
597.325	4354.83
597.528	4537.1
597.73	5067.53
597.933	4789
598.136	4696.85
598.338	4403.99
598.541	4965.13
598.743	5069.58
598.946	4647.69
599.148	4885.26
599.351	5133.06
599.554	5221.13
599.756	4764.43
599.959	4754.19
600.161	5122.82
600.363	5505.79
600.566	4930.31
600.768	4637.45
600.971	5346.05
601.173	5182.21
601.376	4756.24
601.578	4848.4
601.78	4866.83
601.983	5653.25
602.185	4702.99
602.388	5225.22
602.59	4854.54
602.792	5038.86
602.995	5051.14
603.197	4688.65
603.399	5354.24
603.601	5161.73
603.804	4832.01
604.006	4842.25
604.208	4993.8
604.41	4832.01
604.613	5106.44
604.815	4848.4
605.017	5653.25
605.219	5108.49
605.421	5204.74
605.623	4993.8
605.826	5432.07
606.028	5403.39
606.23	5047.05
606.432	4836.11
606.634	5522.18
606.836	5571.33
607.038	4948.75
607.24	5085.96
607.442	5321.48
607.644	5180.17
607.846	5192.45
608.048	5096.2
608.25	5686.01
608.452	5202.69
608.654	5006.09
608.856	4827.92
609.058	5264.13
609.26	5427.97
609.462	5247.75
609.664	5131.02
609.866	5569.28
610.067	5407.49
610.269	5065.48
610.471	5063.43
610.673	5102.34
610.875	5405.44
611.077	5094.15
611.278	5040.9
611.48	5262.09
611.682	5720.83
611.884	5284.61
612.085	5083.91
612.287	5223.17
612.489	5466.88
612.69	4856.59
612.892	5249.8
613.094	5503.75
613.295	5440.26
613.497	5028.62
613.699	5214.98
613.9	5665.53
614.102	5432.07
614.304	5032.71
614.505	5014.28
614.707	5286.66
614.908	5292.8
615.11	5061.38
615.311	5382.92
615.513	5511.94
615.714	5632.77
615.916	5120.78
616.117	5272.32
616.319	5362.44
616.52	5620.48
616.722	5163.78
616.923	5214.98
617.124	5776.13
617.326	5610.24
617.527	5473.03
617.729	5415.68
617.93	5718.78
618.131	5618.43
618.333	5249.8
618.534	5415.68
618.735	5464.83
618.937	6075.13
619.138	5174.02
619.339	5239.56
619.54	5815.04
619.742	5544.7
619.943	5524.23
620.144	5526.27
620.345	5837.56
620.546	5704.45
620.748	5376.77
620.949	5520.13
621.15	5759.74
621.351	5716.73
621.552	5477.12
621.753	5339.91
621.954	5237.51
622.155	5987.07
622.356	5350.15
622.558	5741.31
622.759	5769.98
622.96	5964.54
623.161	5448.45
623.362	5448.45
623.563	5659.39
623.764	5690.11
623.965	5393.16
624.166	5675.77
624.366	5618.43
624.567	5694.21
624.768	5292.8
624.969	5458.69
625.17	5733.12
625.371	5761.79
625.572	5528.32
625.773	5376.77
625.973	5972.73
626.174	5923.58
626.375	5563.14
626.576	5522.18
626.777	5907.2
626.977	6337.27
627.178	5606.14
627.379	5733.12
627.58	5810.94
627.78	5878.52
627.981	5569.28
628.182	5753.6
628.382	6101.75
628.583	5585.66
628.784	5411.59
628.984	5726.97
629.185	6068.98
629.386	6118.14
629.586	5724.93
629.787	5530.37
629.987	6001.4
630.188	5894.91
630.388	5864.19
630.589	5858.04
630.79	6306.55
630.99	5905.15
631.191	5892.86
631.391	5706.49
631.591	6091.51
631.792	6464.24
631.992	6030.07
632.193	5911.29
632.393	6507.25
632.594	5812.99
632.794	5696.25
632.994	5937.91
633.195	6048.51
633.395	6068.98
633.595	5792.51
633.796	6183.67
633.996	5798.65
634.196	6408.95
634.397	5753.6
634.597	6044.41
634.797	5817.08
634.997	6320.88
635.198	5978.87
635.398	5761.79
635.598	6023.93
635.798	6413.04
635.998	6390.52
636.199	5675.77
636.399	5886.72
636.599	6003.45
636.799	5989.11
636.999	6198.01
637.199	6238.97
637.399	6359.8
637.599	5880.57
637.799	6066.94
637.999	6120.18
638.199	6568.69
638.399	5952.25
638.599	5806.84
638.799	6230.77
638.999	6851.31
639.199	6130.42
639.399	6116.09
639.599	6816.49
639.799	6005.5
639.999	5964.54
640.199	5952.25
640.399	6343.41
640.599	6185.72
640.799	6238.97
640.998	6185.72
641.198	6611.7
641.398	6390.52
641.598	6249.21
641.798	6146.81
641.997	7217.9
642.197	6388.47
642.397	6296.31
642.597	6148.86
642.796	6384.37
642.996	6750.96
643.196	6214.39
643.395	5993.21
643.595	6636.27
643.795	6042.36
643.994	6144.76
644.194	6318.84
644.394	6562.55
644.593	6408.95
644.793	6134.52
644.992	6419.19
645.192	6609.65
645.392	6064.89
645.591	6454
645.791	6449.91
645.99	6734.57
646.19	6451.95
646.389	6427.38
646.589	6347.51
646.788	6499.06
646.987	6456.05
647.187	6327.03
647.386	6427.38
647.586	6558.45
647.785	6693.62
647.984	6384.37
648.184	6314.74
648.383	6542.07
648.582	6480.63
648.782	6372.08
648.981	6400.76
649.18	6347.51
649.38	6599.41
649.579	6411
649.778	6482.67
649.977	6783.73
650.177	6714.09
650.376	6404.85
650.575	6320.88
650.774	6982.38
650.973	6443.76
651.173	6212.34
651.372	6533.87
651.571	6843.12
651.77	7066.35
651.969	6271.73
652.168	6669.04
652.367	6429.43
652.566	6925.04
652.765	6417.14
652.964	6783.73
653.163	7185.13
653.362	6841.07
653.561	6560.5
653.76	6593.26
653.959	6628.08
654.158	6875.88
654.357	6839.02
654.556	6466.29
654.755	6935.28
654.954	6972.14
655.153	6529.78
655.352	6568.69
655.551	7158.5
655.749	6914.8
655.948	6722.29
656.147	6722.29
656.346	6910.7
656.545	6867.69
656.743	6839.02
656.942	6763.25
657.141	6796.01
657.34	6630.13
657.538	6781.68
657.737	6640.37
657.936	6533.87
658.135	7006.95
658.333	6621.94
658.532	6816.49
658.731	7301.86
658.929	7101.16
659.128	7002.86
659.326	6673.14
659.525	7148.26
659.724	7002.86
659.922	6443.76
660.121	6533.87
660.319	7041.77
660.518	6724.33
660.716	6742.77
660.915	6810.35
661.113	7398.12
661.312	6875.88
661.51	6830.83
661.709	6843.12
661.907	7113.45
662.105	7355.11
662.304	6830.83
662.502	6943.47
662.701	7547.62
662.899	6814.45
663.097	7131.88
663.296	6650.61
663.494	7418.6
663.692	7469.8
663.891	6836.97
664.089	6628.08
664.287	7043.82
664.485	7279.33
664.684	6734.57
664.882	7062.25
665.08	6912.75
665.278	7039.72
665.476	6558.45
665.675	7396.07
665.873	7592.67
666.071	7412.45
666.269	6867.69
666.467	6910.7
666.665	7248.61
666.863	7064.3
667.061	6982.38
667.259	7009
667.457	7074.54
667.655	7267.05
667.853	6873.84
668.051	6910.7
668.249	6978.28
668.447	7221.99
668.645	6812.4
668.843	7047.91
669.041	7230.18
669.239	7131.88
669.437	7142.12
669.635	7097.07
669.833	7123.69
670.031	7375.59
670.229	7021.29
670.426	7088.87
670.624	7109.35
670.822	6976.23
671.02	6957.8
671.218	7172.84
671.415	6910.7
671.613	7129.83
671.811	6976.23
672.009	7035.63
672.206	7371.49
672.404	7162.6
672.602	7103.21
672.799	7183.08
672.997	7391.97
673.195	7477.99
673.392	7189.22
673.59	6892.27
673.788	7402.21
673.985	6836.97
674.183	7052.01
674.38	7148.26
674.578	7434.98
674.775	6966
674.973	6912.75
675.17	6884.08
675.368	7652.06
675.565	7383.78
675.763	7064.3
675.96	7043.82
676.158	7643.87
676.355	7299.81
676.553	7138.02
676.75	7009
676.947	7221.99
677.145	7111.4
677.342	7049.96
677.539	7205.61
677.737	7234.28
677.934	7672.54
678.131	7148.26
678.329	7183.08
678.526	7688.93
678.723	7592.67
678.92	7142.12
679.118	6951.66
679.315	7170.79
679.512	7764.7
679.709	7142.12
679.906	7305.96
680.104	7410.4
680.301	7402.21
680.498	7074.54
680.695	6980.33
680.892	7133.93
681.089	7088.87
681.286	7082.73
681.483	6736.62
681.68	7402.21
681.877	7424.74
682.075	7031.53
682.272	7183.08
682.469	7340.77
682.665	7170.79
682.862	7090.92
683.059	6855.4
683.256	7437.03
683.453	7201.51
683.65	7023.34
683.847	7121.64
684.044	7355.11
684.241	7101.16
684.438	7160.55
684.635	6992.62
684.831	7701.22
685.028	7641.82
685.225	7056.11
685.422	7228.14
685.619	7371.49
685.815	7287.53
686.012	7125.74
686.209	7232.23
686.405	6861.55
686.602	7357.16
686.799	6980.33
686.996	6963.95
687.192	6918.89
687.389	7428.84
687.586	6947.56
687.782	7074.54
687.979	7516.9
688.175	7547.62
688.372	7072.49
688.568	7178.98
688.765	7006.95
688.962	7439.08
689.158	7146.22
689.355	7135.98
689.551	7387.88
689.748	7076.59
689.944	7299.81
690.14	6984.43
690.337	7477.99
690.533	7017.19
690.73	7301.86
690.926	7140.07
691.123	7416.55
691.319	7228.14
691.515	6994.67
691.712	7183.08
691.908	7469.8
692.104	7416.55
692.301	7299.81
692.497	7025.39
692.693	7453.41
692.889	7500.51
693.086	7168.74
693.282	6929.13
693.478	7316.2
693.674	7654.11
693.87	7095.02
694.067	6990.57
694.263	7373.54
694.459	7232.23
694.655	7084.78
694.851	7076.59
695.047	7451.36
695.243	7348.97
695.439	7242.47
695.635	7105.26
695.831	7520.99
696.027	7379.68
696.224	7070.44
696.42	7367.4
696.615	7621.35
696.811	7232.23
697.007	6941.42
697.203	7166.7
697.399	7340.77
697.595	7572.19
697.791	6939.37
697.987	7320.29
698.183	6996.71
698.379	7037.67
698.575	7164.65
698.77	7047.91
698.966	7500.51
699.162	7430.88
699.358	7129.83
699.554	7029.48
699.749	7434.98
699.945	7459.56
700.141	7013.1
700.337	7072.49
700.532	7215.85
700.728	6994.67
700.924	7140.07
701.119	7070.44
701.315	7322.34
701.511	7158.5
701.706	7375.59
701.902	6998.76
702.097	7092.97
702.293	7363.3
702.489	7254.76
702.684	7140.07
702.88	7283.43
703.075	7250.66
703.271	7166.7
703.466	6912.75
703.662	7240.42
703.857	7398.12
704.053	7138.02
704.248	7062.25
704.443	7480.04
704.639	7492.32
704.834	7086.83
705.03	7080.68
705.225	7572.19
705.42	7858.91
705.616	7160.55
705.811	7183.08
706.006	7092.97
706.202	7291.62
706.397	7242.47
706.592	7070.44
706.787	7303.91
706.983	7308.01
707.178	7473.89
707.373	7140.07
707.568	7383.78
707.763	7496.42
707.959	6988.52
708.154	7156.46
708.349	7346.92
708.544	7439.08
708.739	7359.21
708.934	7066.35
709.129	7537.38
709.324	7477.99
709.519	6996.71
709.714	7023.34
709.909	7547.62
710.104	7414.5
710.299	7176.94
710.494	7076.59
710.689	7430.88
710.884	7123.69
711.079	7201.51
711.274	7353.06
711.469	7391.97
711.664	7412.45
711.859	7031.53
712.054	7156.46
712.249	7537.38
712.443	7553.76
712.638	7113.45
712.833	7047.91
713.028	7326.44
713.223	7193.32
713.417	7412.45
713.612	7023.34
713.807	7375.59
714.002	7910.11
714.196	7346.92
714.391	7076.59
714.586	7303.91
714.78	7181.03
714.975	7275.24
715.17	7138.02
715.364	7205.61
715.559	7430.88
715.754	6882.03
715.948	7129.83
716.143	7754.46
716.337	7406.31
716.532	7367.4
716.726	7082.73
716.921	7426.79
717.115	7690.98
717.31	6974.19
717.504	7451.36
717.699	7162.6
717.893	7463.65
718.088	6920.94
718.282	7242.47
718.476	7250.66
718.671	7396.07
718.865	7105.26
719.059	7178.98
719.254	7430.88
719.448	7512.8
719.642	7002.86
719.837	6777.58
720.031	7389.92
720.225	7353.06
720.419	7090.92
720.614	7052.01
720.808	7410.4
721.002	6927.08
721.196	7066.35
721.39	6976.23
721.585	7480.04
721.779	7389.92
721.973	6949.61
722.167	6871.79
722.361	6945.52
722.555	7629.54
722.749	7000.81
722.943	7015.15
723.137	6959.85
723.331	7152.36
723.525	6902.51
723.719	7039.72
723.913	7226.09
724.107	7365.35
724.301	6961.9
724.495	6886.12
724.689	7477.99
724.883	7602.91
725.077	7004.91
725.271	6925.04
725.465	7541.47
725.659	7084.78
725.853	7080.68
726.046	7015.15
726.24	6974.19
726.434	7326.44
726.628	7031.53
726.822	7197.42
727.015	7541.47
727.209	7281.38
727.403	7011.05
727.596	6920.94
727.79	7527.14
727.984	7420.64
728.177	6798.06
728.371	7039.72
728.565	7355.11
728.758	7072.49
728.952	7127.78
729.146	7000.81
729.339	7619.3
729.533	7189.22
729.726	7164.65
729.92	7045.87
730.113	7480.04
730.307	7267.05
730.5	7082.73
730.694	7052.01
730.887	7119.59
731.081	7295.72
731.274	6865.64
731.468	7019.24
731.661	7367.4
731.854	7064.3
732.048	7031.53
732.241	6961.9
732.435	7076.59
732.628	7303.91
732.821	7160.55
733.014	6902.51
733.208	7058.15
733.401	7443.17
733.594	7105.26
733.788	6920.94
733.981	7496.42
734.174	7342.82
734.367	6990.57
734.56	7074.54
734.754	7400.16
734.947	7189.22
735.14	6939.37
735.333	7082.73
735.526	7453.41
735.719	7105.26
735.912	7111.4
736.105	7015.15
736.298	7367.4
736.491	7109.35
736.684	7078.63
736.877	6937.32
737.07	7152.36
737.263	7512.8
737.456	7037.67
737.649	6898.41
737.842	6968.04
738.035	7387.88
738.228	7176.94
738.421	7260.9
738.614	7557.86
738.807	7492.32
739	6791.92
739.192	6775.53
739.385	7230.18
739.578	7459.56
739.771	7320.29
739.964	7070.44
740.156	7267.05
740.349	7172.84
740.542	7107.3
740.735	6798.06
740.927	6927.08
741.12	7084.78
741.313	6894.32
741.505	7082.73
741.698	7348.97
741.891	7484.13
742.083	7228.14
742.276	7176.94
742.468	7078.63
742.661	7037.67
742.854	7135.98
743.046	7058.15
743.239	7596.77
743.431	7183.08
743.624	7172.84
743.816	6763.25
744.009	7099.11
744.201	7432.93
744.393	7295.72
744.586	6974.19
744.778	7664.35
744.971	7158.5
745.163	7156.46
745.355	7178.98
745.548	7176.94
745.74	7084.78
745.932	7123.69
746.125	7000.81
746.317	7625.44
746.509	7025.39
746.702	6925.04
746.894	6988.52
747.086	7224.04
747.278	7422.69
747.471	7015.15
747.663	7054.06
747.855	7252.71
748.047	7658.21
748.239	7074.54
748.431	6890.22
748.623	7611.11
748.815	7488.23
749.008	6912.75
749.2	6902.51
749.392	7336.68
749.584	7226.09
749.776	7033.58
749.968	7242.47
750.16	7725.79
750.352	7095.02
750.544	6951.66
750.736	6949.61
750.928	7351.01
751.12	7131.88
751.311	6986.47
751.503	7066.35
751.695	7047.91
751.887	7109.35
752.079	6802.16
752.271	6980.33
752.463	7908.06
752.654	7389.92
752.846	7086.83
753.038	6779.63
753.23	6900.46
753.421	7095.02
753.613	7058.15
753.805	7279.33
753.997	7316.2
754.188	7523.04
754.38	6900.46
754.572	7041.77
754.763	7219.94
754.955	7314.15
755.146	6826.73
755.338	7129.83
755.53	7121.64
755.721	7170.79
755.913	6806.25
756.104	6722.29
756.296	7146.22
756.487	7275.24
756.679	6742.77
756.87	6892.27
757.062	6947.56
757.253	7385.83
757.445	6640.37
757.636	6984.43
757.827	6882.03
758.019	7615.2
758.21	6763.25
758.401	6933.23
758.593	7574.24
758.784	7277.29
758.975	6634.22
759.167	6882.03
759.358	7103.21
759.549	7176.94
759.74	6740.72
759.932	6656.75
760.123	7439.08
760.314	6812.4
760.505	6937.32
760.696	6781.68
760.888	7467.75
761.079	6607.6
761.27	6722.29
761.461	6732.53
761.652	7471.84
761.843	6933.23
762.034	6703.86
762.225	6843.12
762.416	6916.84
762.607	6894.32
762.798	6726.38
762.989	6779.63
763.18	7506.66
763.371	6869.74
763.562	6650.61
763.753	6785.77
763.944	7238.37
764.135	6988.52
764.326	6939.37
764.517	6753.01
764.708	6818.54
764.899	6890.22
765.089	6460.15
765.28	6558.45
765.471	6937.32
765.662	7107.3
765.853	6693.62
766.043	6327.03
766.234	7111.4
766.425	7023.34
766.615	6662.9
766.806	6615.79
766.997	7078.63
767.187	6830.83
767.378	6691.57
767.569	6392.56
767.759	6992.62
767.95	6916.84
768.141	6722.29
768.331	6525.68
768.522	6703.86
768.712	6757.1
768.903	6480.63
769.093	6523.63
769.284	7170.79
769.474	6877.93
769.665	6318.84
769.855	6427.38
770.046	6920.94
770.236	6648.56
770.426	6671.09
770.617	6607.6
770.807	6834.93
770.998	6589.17
771.188	6628.08
771.378	6497.01
771.569	6925.04
771.759	6925.04
771.949	6277.88
772.139	6155
772.33	6910.7
772.52	6996.71
772.71	6429.43
772.9	6439.67
773.09	7060.2
773.281	7004.91
773.471	6535.92
773.661	6503.15
773.851	6787.82
774.041	6642.42
774.231	6308.6
774.421	6662.9
774.611	6882.03
774.802	6681.33
774.992	6228.73
775.182	6308.6
775.372	6529.78
775.562	6753.01
775.752	6456.05
775.942	6343.41
776.131	6998.76
776.321	6767.34
776.511	6357.75
776.701	6228.73
776.891	6738.67
777.081	6259.45
777.271	6402.8
777.461	6230.77
777.651	6820.59
777.84	6720.24
778.03	6329.08
778.22	6189.81
778.41	6681.33
778.599	6267.64
778.789	6300.41
778.979	6079.22
779.169	6607.6
779.358	6556.4
779.548	6644.46
779.738	6085.37
779.927	6486.77
780.117	6359.8
780.307	6107.9
780.496	5968.63
780.686	6474.48
780.875	6890.22
781.065	6146.81
781.254	6294.26
781.444	6284.02
781.633	6327.03
781.823	6163.19
782.012	6083.32
782.202	6261.49
782.391	6398.71
782.581	6249.21
782.77	6415.09
782.96	6621.94
783.149	6241.01
783.338	6271.73
783.528	6054.65
783.717	6458.1
783.906	6654.7
784.096	6245.11
784.285	6161.14
784.474	6259.45
784.663	6198.01
784.853	6214.39
785.042	6130.42
785.231	6128.38
785.42	6521.59
785.61	6324.98
785.799	6013.69
785.988	6208.25
786.177	6210.29
786.366	6132.47
786.555	6365.94
786.744	6497.01
786.933	6200.05
787.122	6128.38
787.312	6136.57
787.501	6171.38
787.69	6411
787.879	6214.39
788.068	5909.24
788.257	5966.59
788.445	6148.86
788.634	6109.94
788.823	5856
789.012	6877.93
789.201	6511.35
789.39	6114.04
789.579	5837.56
789.768	5978.87
789.957	6298.36
790.145	5901.05
790.334	5722.88
790.523	6122.23
790.712	6091.51
790.9	6054.65
791.089	5870.33
791.278	6359.8
791.467	6193.91
791.655	6019.83
791.844	6396.66
792.033	5872.38
792.221	6122.23
792.41	5919.48
792.599	5622.53
792.787	6271.73
792.976	6470.39
793.164	5917.44
793.353	5866.24
793.541	6292.21
793.73	6355.7
793.918	6058.74
794.107	6105.85
794.295	6136.57
794.484	6120.18
794.672	5851.9
794.861	5923.58
795.049	6281.97
795.238	6370.04
795.426	5784.32
795.614	6111.99
795.803	6306.55
795.991	6331.12
796.179	5913.34
796.368	5856
796.556	6419.19
796.744	5870.33
796.932	5925.63
797.121	5686.01
797.309	5903.1
797.497	6155
797.685	5743.36
797.874	5790.46
798.062	6005.5
798.25	6310.65
798.438	5835.52
798.626	5790.46
798.814	6216.44
799.002	6540.02
799.19	6005.5
799.378	5960.44
799.566	6337.27
799.755	6384.37
799.943	6052.6
800.131	5829.37
800.318	6177.53
800.506	6032.12
800.694	5886.72
800.882	5970.68
801.07	6333.17
801.258	6261.49
801.446	5856
801.634	5780.22
801.822	6124.28
802.01	5997.31
802.197	5825.28
802.385	6163.19
802.573	6050.55
802.761	5911.29
802.949	6030.07
803.136	5677.82
803.324	6214.39
803.512	6032.12
803.699	5989.11
803.887	5681.92
804.075	6378.23
804.262	5999.35
804.45	5636.86
804.638	6073.08
804.825	6071.03
805.013	5927.67
805.201	5954.3
805.388	6097.66
805.576	6152.95
805.763	6648.56
805.951	5888.76
806.138	6165.24
806.326	6535.92
806.513	6226.68
806.701	6081.27
806.888	5976.83
807.075	6406.9
807.263	6562.55
807.45	5982.97
807.638	6111.99
807.825	6632.18
808.012	6255.35
808.2	5882.62
808.387	6337.27
808.574	6277.88
808.761	6621.94
808.949	5866.24
809.136	6062.84
809.323	6286.07
809.51	6187.77
809.698	6345.46
809.885	6367.99
810.072	6370.04
810.259	6460.15
810.446	6089.46
810.633	5966.59
810.82	6490.87
811.008	6822.64
811.195	6294.26
811.382	6284.02
811.569	6394.61
811.756	5993.21
811.943	6398.71
812.13	6179.58
812.317	6042.36
812.504	6337.27
812.691	6288.12
812.878	6320.88
813.064	6744.81
813.251	6365.94
813.438	6079.22
813.625	6327.03
813.812	6505.2
813.999	6296.31
814.186	6228.73
814.372	6236.92
814.559	6427.38
814.746	6619.89
814.933	6169.34
815.12	6361.84
815.306	6042.36
815.493	6183.67
815.68	6023.93
815.866	6148.86
816.053	6873.84
816.24	6755.05
816.426	6322.93
816.613	6126.33
816.799	6595.31
816.986	6757.1
817.173	6048.51
817.359	6281.97
817.546	6245.11
817.732	6066.94
817.919	5950.2
818.105	6275.83
818.292	6275.83
818.478	6464.24
818.665	6417.14
818.851	6228.73
819.037	6816.49
819.224	6331.12
819.41	5978.87
819.597	6091.51
819.783	6613.74
819.969	6329.08
820.156	6220.53
820.342	6064.89
820.528	7103.21
820.714	6292.21
820.901	6396.66
821.087	5980.92
821.273	6562.55
821.459	6337.27
821.646	6247.16
821.832	6046.46
822.018	6443.76
822.204	6488.82
822.39	6187.77
822.576	5929.72
822.762	6413.04
822.948	6224.63
823.134	6306.55
823.32	6040.31
823.507	6087.42
823.693	6267.64
823.879	6341.36
824.065	5991.16
824.25	6370.04
824.436	6109.94
824.622	6148.86
824.808	5946.11
824.994	6148.86
825.18	6068.98
825.366	5993.21
825.552	6011.64
825.738	6195.96
825.923	6353.65
826.109	6181.62
826.295	6095.61
826.481	5954.3
826.667	6157.05
826.852	6208.25
827.038	5935.87
827.224	6451.95
827.409	6636.27
827.595	5808.89
827.781	6159.1
827.966	6304.5
828.152	6187.77
828.338	5890.81
828.523	5755.65
828.709	6062.84
828.894	6347.51
829.08	6118.14
829.266	6030.07
829.451	5944.06
829.637	6228.73
829.822	5913.34
830.008	5769.98
830.193	6286.07
830.378	6482.67
830.564	6120.18
830.749	5722.88
830.935	6097.66
831.12	6324.98
831.305	5765.89
831.491	5749.5
831.676	5786.37
831.861	6138.62
832.047	5901.05
832.232	5702.4
832.417	6173.43
832.602	5923.58
832.788	5759.74
832.973	5700.35
833.158	6013.69
833.343	6144.76
833.528	6005.5
833.714	5802.75
833.899	6058.74
834.084	6273.78
834.269	6044.41
834.454	5741.31
834.639	6228.73
834.824	6007.55
835.009	5886.72
835.194	6089.46
835.379	6181.62
835.564	6259.45
835.749	5872.38
835.934	5690.11
836.119	6146.81
836.304	5772.03
836.489	5698.3
836.674	5948.15
836.859	5632.77
837.044	6238.97
837.228	5651.2
837.413	5591.81
837.598	5985.02
837.783	6187.77
837.968	5886.72
838.152	5618.43
838.337	5569.28
838.522	6284.02
838.707	6165.24
838.891	5878.52
839.076	5974.78
839.261	6034.17
839.445	5690.11
839.63	5749.5
839.815	6124.28
839.999	5737.21
840.184	5350.15
840.368	5581.57
840.553	5886.72
840.737	5915.39
840.922	5374.72
841.106	5550.85
841.291	5497.6
841.475	5702.4
841.66	5509.89
841.844	5647.1
842.029	6468.34
842.213	5710.59
842.397	5462.79
842.582	5427.97
842.766	5966.59
842.951	5966.59
843.135	5425.92
843.319	5470.98
843.504	5851.9
843.688	6105.85
843.872	5432.07
844.056	5497.6
844.241	5915.39
844.425	5526.27
844.609	5712.64
844.793	5264.13
844.977	5763.84
845.161	5722.88
845.346	5257.99
845.53	5450.5
845.714	5575.42
845.898	5919.48
846.082	5378.82
846.266	5499.65
846.45	5597.95
846.634	5530.37
846.818	5374.72
847.002	5540.61
847.186	5939.96
847.37	5423.87
847.554	5278.47
847.738	5524.23
847.922	5540.61
848.106	5702.4
848.29	5208.84
848.473	5208.84
848.657	5671.68
848.841	5376.77
849.025	5296.9
849.209	5143.3
849.392	5673.73
849.576	5624.58
849.76	5038.86
849.944	5511.94
850.127	5884.67
850.311	5276.42
850.495	5200.65
850.678	5065.48
850.862	5683.97
851.046	5829.37
851.229	5282.56
851.413	5038.86
851.596	5524.23
851.78	5413.63
851.964	5458.69
852.147	5501.7
852.331	6064.89
852.514	5767.93
852.698	5253.89
852.881	5131.02
853.065	5686.01
853.248	5452.55
853.431	5219.08
853.615	5260.04
853.798	5821.18
853.982	5450.5
854.165	5438.21
854.348	5227.27
854.532	5272.32
854.715	5405.44
854.898	5378.82
855.081	5116.68
855.265	5700.35
855.448	5649.15
855.631	5229.32
855.814	5135.11
855.997	5645.06
856.181	5382.92
856.364	5329.67
856.547	5143.3
856.73	5354.24
856.913	5339.91
857.096	4926.22
857.279	5198.6
857.462	5182.21
857.645	5696.25
857.828	5071.62
858.011	5077.77
858.194	5096.2
858.377	5657.34
858.56	4983.56
858.743	5057.29
858.926	5171.97
859.109	5423.87
859.292	5028.62
859.475	5176.07
859.658	5655.3
859.841	5473.03
860.023	4981.51
860.206	4821.77
860.389	5403.39
860.572	5327.62
860.755	4842.25
860.937	5014.28
861.12	5303.04
861.303	5255.94
861.486	5088.01
861.668	4920.07
861.851	5262.09
862.034	5071.62
862.216	5165.83
862.399	4791.05
862.581	5253.89
862.764	5452.55
862.947	5034.76
863.129	4842.25
863.312	4877.07
863.494	5415.68
863.677	5069.58
863.859	4733.71
864.042	5149.45
864.224	5479.17
864.406	4977.42
864.589	4551.44
864.771	5276.42
864.954	4752.14
865.136	4797.2
865.318	4635.41
865.501	5128.97
865.683	4588.3
865.865	4741.9
866.048	4776.72
866.23	4989.71
866.412	4977.42
866.594	4588.3
866.777	4838.16
866.959	5438.21
867.141	4840.2
867.323	4813.58
867.505	4819.72
867.687	5016.33
867.869	4922.12
868.052	4756.24
868.234	4752.14
868.416	5016.33
868.598	5286.66
868.78	4739.85
868.962	4733.71
869.144	5178.12
869.326	5135.11
869.508	4651.79
869.69	4694.8
869.872	4758.28
870.054	5231.37
870.236	4473.62
870.417	4606.74
870.599	4918.03
870.781	5204.74
870.963	5028.62
871.145	4553.49
871.327	4668.17
871.508	5026.57
871.69	4596.5
871.872	4764.43
872.054	4897.55
872.235	5090.06
872.417	4666.13
872.599	4598.54
872.78	5120.78
872.962	5014.28
873.144	4563.73
873.325	4768.52
873.507	5012.23
873.689	4934.41
873.87	4573.97
874.052	4834.06
874.233	4674.32
874.415	5139.21
874.596	4778.76
874.778	4584.21
874.959	5110.54
875.141	5077.77
875.322	4621.07
875.503	4471.57
875.685	4932.36
875.866	4487.95
876.048	4686.61
876.229	4700.94
876.41	4897.55
876.592	4979.47
876.773	4782.86
876.954	4614.93
877.136	5182.21
877.317	4899.59
877.498	4657.93
877.679	4713.23
877.86	4879.11
878.042	4897.55
878.223	4668.17
878.404	5049.1
878.585	5180.17
878.766	5477.12
878.947	5104.39
879.128	4946.7
879.309	5192.45
879.49	5327.62
879.672	4954.89
879.853	4987.66
880.034	4711.18
880.215	4840.2
880.396	4907.79
880.576	4754.19
880.757	4791.05
880.938	5333.76
881.119	4846.35
881.3	4977.42
881.481	5051.14
881.662	5894.91
881.843	4768.52
882.023	4858.64
882.204	5053.19
882.385	5059.34
882.566	4875.02
882.747	4907.79
882.927	4965.13
883.108	5067.53
883.289	4743.95
883.469	5171.97
883.65	5249.8
883.831	5051.14
884.011	4985.61
884.192	4805.39
884.373	5305.09
884.553	5186.31
884.734	5143.3
884.914	5176.07
885.095	5677.82
885.275	5528.32
885.456	5214.98
885.636	4711.18
885.817	5206.79
885.997	5161.73
886.178	4897.55
886.358	5141.25
886.538	5344
886.719	6177.53
886.899	4936.46
887.08	5106.44
887.26	5589.76
887.44	4985.61
887.621	4993.8
887.801	5077.77
887.981	5825.28
888.161	5489.41
888.342	5200.65
888.522	5219.08
888.702	5440.26
888.882	5675.77
889.062	5036.81
889.242	4780.81
889.423	5616.38
889.603	5401.35
889.783	5292.8
889.963	5151.49
890.143	5516.03
890.323	5702.4
890.503	5245.7
890.683	5251.85
890.863	5419.78
891.043	5313.28
891.223	5333.76
891.403	5341.96
891.583	5466.88
891.763	5413.63
891.943	5171.97
892.122	5100.3
892.302	5464.83
892.482	5450.5
892.662	5415.68
892.842	5227.27
893.022	5454.59
893.201	5286.66
893.381	5360.39
893.561	5098.25
893.741	5591.81
893.92	5536.51
894.1	5356.29
894.28	5432.07
894.459	5442.31
894.639	5501.7
894.819	5227.27
894.998	5382.92
895.178	5602.05
895.357	5491.46
895.537	5059.34
895.716	4958.99
895.896	5329.67
896.075	5745.41
896.255	5165.83
896.434	5038.86
896.614	5653.25
896.793	5827.32
896.973	5303.04
897.152	5253.89
897.331	5423.87
897.511	5573.38
897.69	5137.16
897.87	5231.37
898.049	5411.59
898.228	5442.31
898.407	5415.68
898.587	5225.22
898.766	5120.78
898.945	5475.07
899.124	5233.41
899.304	5270.28
899.483	5522.18
899.662	5815.04
899.841	5012.23
900.02	5155.59
900.199	5636.86
900.378	5573.38
900.557	4983.56
900.737	5028.62
900.916	5446.4
901.095	5606.14
901.274	5212.93
901.453	5020.42
901.632	5198.6
901.811	5128.97
901.989	5026.57
902.168	4967.18
902.347	5360.39
902.526	5124.87
902.705	5126.92
902.884	5237.51
903.063	5518.08
903.242	5638.91
903.42	4979.47
903.599	5092.1
903.778	5468.93
903.957	5651.2
904.135	4989.71
904.314	4991.75
904.493	5186.31
904.672	5208.84
904.85	5088.01
905.029	5051.14
905.207	5204.74
905.386	5966.59
905.565	4895.5
905.743	4809.48
905.922	4991.75
906.1	5311.24
906.279	5036.81
906.457	4797.2
906.636	4973.32
906.814	5104.39
906.993	4821.77
907.171	4713.23
907.35	5333.76
907.528	5241.61
907.707	5042.95
907.885	4827.92
908.063	5649.15
908.242	4872.97
908.42	4780.81
908.598	4594.45
908.777	5204.74
908.955	4934.41
909.133	4754.19
909.311	4664.08
909.49	4877.07
909.668	4883.21
909.846	4817.68
910.024	4635.41
910.202	5071.62
910.38	5077.77
910.559	4770.57
910.737	4541.2
910.915	4938.51
911.093	5081.86
911.271	4797.2
911.449	4983.56
911.627	5075.72
911.805	5376.77
911.983	4639.5
912.161	4643.6
912.339	4915.98
912.517	5032.71
912.695	4832.01
912.872	4668.17
913.05	4635.41
913.228	4891.4
913.406	4631.31
913.584	4467.47
913.762	5081.86
913.939	4600.59
914.117	4715.28
914.295	4399.89
914.473	4942.6
914.65	4793.1
914.828	4602.64
915.006	4373.27
915.184	4428.56
915.361	4662.03
915.539	4588.3
915.716	4678.41
915.894	4750.09
916.072	4995.85
916.249	4750.09
916.427	4557.58
916.604	4457.23
916.782	4854.54
916.959	4268.82
917.137	4322.07
917.314	4717.33
917.492	4711.18
917.669	4287.25
917.847	4328.21
918.024	4727.57
918.201	4332.31
918.379	4557.58
918.556	4416.27
918.733	4752.14
918.911	4508.43
919.088	4453.14
919.265	4223.76
919.442	4621.07
919.62	4356.88
919.797	4209.43
919.974	4172.57
920.151	4580.11
920.328	4340.5
920.506	4152.09
920.683	4287.25
920.86	4186.9
921.037	4074.26
921.214	4352.79
921.391	4027.16
921.568	4561.68
921.745	4098.84
921.922	4188.95
922.099	4150.04
922.276	4471.57
922.453	4223.76
922.63	4025.11
922.807	4301.59
922.984	4356.88
923.161	4004.63
923.338	4002.58
923.514	3994.39
923.691	4166.42
923.868	4258.58
924.045	3918.62
924.222	3738.4
924.399	4258.58
924.575	4350.74
924.752	3787.55
924.929	4061.98
925.105	4205.33
925.282	3689.25
925.459	3949.34
925.635	3924.76
925.812	3859.23
925.989	4027.16
926.165	3836.7
926.342	3744.54
926.518	3666.72
926.695	4018.97
926.871	3654.43
927.048	3652.38
927.224	4197.14
927.401	3812.12
927.577	3805.98
927.754	3588.89
927.93	4117.27
928.107	3939.1
928.283	3644.19
928.459	3826.46
928.636	3871.51
928.812	3636
928.988	3578.65
929.165	3531.55
929.341	3834.65
929.517	3773.21
929.693	3801.88
929.87	3255.08
930.046	3844.89
930.222	3642.14
930.398	3597.09
930.574	3504.93
930.751	3676.96
930.927	3537.7
931.103	3371.81
931.279	3525.41
931.455	3347.23
931.631	3543.84
931.807	3183.4
931.983	3341.09
932.159	3240.74
932.335	3592.99
932.511	3189.54
932.687	3306.27
932.863	3529.5
933.039	3351.33
933.215	3130.15
933.391	3126.05
933.566	3353.38
933.742	3314.47
933.918	3111.72
934.094	2974.5
934.27	3392.29
934.445	3404.58
934.621	3099.43
934.797	2816.81
934.973	3406.63
935.148	3160.87
935.324	2706.22
935.5	2650.92
935.675	3300.13
935.851	3164.97
936.027	2779.95
936.202	2827.05
936.378	2988.84
936.553	2853.67
936.729	3007.27
936.904	2517.81
937.08	2517.81
937.255	2612.01
937.431	2489.14
937.606	2353.97
937.782	2564.91
937.957	2552.62
938.133	2431.79
938.308	2222.9
938.483	2450.22
938.659	2265.91
938.834	2341.68
939.009	2106.17
939.185	2313.01
939.36	2020.15
939.535	1747.77
939.71	2145.08
939.886	2401.07
940.061	2347.83
940.236	2042.68
940.411	2052.92
940.586	2198.32
940.761	2325.3
940.937	2018.1
941.112	1923.9
941.287	2192.18
941.462	2104.12
941.637	1680.19
941.812	1813.31
941.987	2061.11
942.162	1987.38
942.337	1971
942.512	1704.76
942.687	2071.35
942.862	2155.32
943.037	1614.65
943.212	1329.99
943.386	1796.92
943.561	2003.77
943.736	1764.15
943.911	2018.1
944.086	1944.38
944.26	1952.57
944.435	1698.62
944.61	1680.19
944.785	2079.54
944.959	2194.23
945.134	1688.38
945.309	1612.6
945.483	1608.51
945.658	2063.16
945.833	1348.42
946.007	1485.63
946.182	2310.96
946.357	1542.97
946.531	1553.21
946.706	1514.3
946.88	1391.42
947.055	1827.64
947.229	1633.08
947.404	1481.53
947.578	2040.63
947.752	1762.11
947.927	1418.05
948.101	1454.91
948.276	1794.87
948.45	1786.68
948.624	1823.55
948.799	1514.3
948.973	1897.27
949.147	1514.3
949.321	1702.72
949.496	1624.89
949.67	2050.87
949.844	1698.62
950.018	1528.64
950.193	1614.65
950.367	2171.7
950.541	1639.23
950.715	1672
950.889	1733.43
951.063	1704.76
951.237	1893.18
951.411	1401.66
951.585	1411.9
951.759	1870.65
951.933	1809.21
952.107	1588.03
952.281	1776.44
952.455	2134.84
952.629	1948.47
952.803	1532.73
952.977	1542.97
953.151	2007.86
953.325	1839.93
953.499	1745.72
953.672	1497.92
953.846	1614.65
954.02	1655.61
954.194	1497.92
954.368	1477.44
954.541	1813.31
954.715	1563.45
954.889	1622.84
955.062	1598.27
955.236	1762.11
955.41	1743.67
955.583	1798.97
955.757	1436.48
955.93	1628.99
956.104	1407.81
956.278	1598.27
956.451	1715
956.625	1770.3
956.798	2267.95
956.972	1790.78
957.145	1497.92
957.319	1712.96
957.492	1712.96
957.665	1610.56
957.839	1672
958.012	1831.74
958.185	1719.1
958.359	1502.01
958.532	1698.62
958.705	2040.63
958.879	1743.67
959.052	1600.32
959.225	1403.71
959.398	1698.62
959.572	1809.21
959.745	1393.47
959.918	1635.13
960.091	1549.12
960.264	1866.55
960.438	1479.49
960.611	1606.46
960.784	1758.01
960.957	1549.12
961.13	1856.31
961.303	1418.05
961.476	1682.24
961.649	1803.07
961.822	1407.81
961.995	1633.08
962.168	1870.65
962.341	1772.35
962.514	1540.93
962.686	1432.38
962.859	1733.43
963.032	1835.83
963.205	1397.57
963.378	1264.45
963.551	1641.28
963.723	1669.95
963.896	1540.93
964.069	1526.59
964.242	1602.36
964.414	1737.53
964.587	1461.06
964.76	1422.14
964.932	1717.05
965.105	1620.8
965.278	1436.48
965.45	1440.58
965.623	1598.27
965.795	1766.2
965.968	1452.86
966.14	1393.47
966.313	1588.03
966.485	1620.8
966.658	1522.49
966.83	1389.38
967.003	1907.51
967.175	1747.77
967.348	1332.03
967.52	1471.29
967.692	1964.86
967.865	1680.19
968.037	1377.09
968.209	1667.9
968.382	1575.74
968.554	1745.72
968.726	1407.81
968.898	1297.22
969.071	1598.27
969.243	1665.85
969.415	1497.92
969.587	1463.1
969.759	2204.47
969.932	1825.59
970.104	1395.52
970.276	1184.58
970.448	1467.2
970.62	1454.91
970.792	1465.15
970.964	1510.21
971.136	2020.15
971.308	1596.22
971.48	1243.97
971.652	1284.93
971.824	1923.9
971.996	1313.6
972.168	1444.67
972.339	1426.24
972.511	1792.83
972.683	1334.08
972.855	1540.93
973.027	1461.06
973.199	1524.54
973.37	1801.02
973.542	1581.89
973.714	1499.97
973.886	1561.41
974.057	1821.5
974.229	1133.38
974.401	1325.89
974.572	1315.65
974.744	1096.52
974.915	1217.35
975.087	1286.98
975.259	1850.17
975.43	1338.18
975.602	1215.3
975.773	1182.53
975.945	1319.75
976.116	1573.69
976.288	1221.44
976.459	1485.63
976.63	1467.2
976.802	1655.61
976.973	1307.46
977.145	1481.53
977.316	1884.98
977.487	1833.79
977.659	1377.09
977.83	1317.7
978.001	1839.93
978.172	1504.06
978.344	1090.37
978.515	1360.7
978.686	1416
978.857	1813.31
979.028	1301.31
979.2	1256.26
979.371	1649.47
979.542	1448.77
979.713	1389.38
979.884	877.38
980.055	1274.69
980.226	1346.37
980.397	1237.83
980.568	1127.24
980.739	1770.3
980.91	1375.04
981.081	1364.8
981.252	1190.72
981.423	1588.03
981.594	1622.84
981.765	1082.18
981.936	1274.69
982.106	1383.23
982.277	1547.07
982.448	1270.59
982.619	1293.12
982.79	1274.69
982.96	1618.75
983.131	1264.45
983.302	1020.74
983.472	1383.23
983.643	1409.86
983.814	1346.37
983.984	1211.2
984.155	1360.7
984.326	1604.41
984.496	1270.59
984.667	1106.76
984.837	1211.2
985.008	1567.55
985.178	1344.32
985.349	1192.77
985.519	1338.18
985.69	1188.68
985.86	1215.3
986.031	1110.85
986.201	1307.46
986.371	1485.63
986.542	1065.8
986.712	887.62
986.882	1483.58
987.053	1401.66
987.223	987.97
987.393	1270.59
987.563	1119.04
987.734	1422.14
987.904	1459.01
988.074	1104.71
988.244	1344.32
988.414	1200.96
988.585	1078.08
988.755	1188.68
988.925	1186.63
989.095	1712.96
989.265	990.02
989.435	1135.43
989.605	1481.53
989.775	1440.58
989.945	1284.93
990.115	951.11
990.285	1176.39
990.455	1237.83
990.625	1098.56
990.795	1051.46
990.965	1551.17
991.134	1067.85
991.304	1004.36
991.474	1006.41
991.644	1397.57
991.814	1483.58
991.984	856.9
992.153	967.49
992.323	1256.26
992.493	1229.63
992.662	764.75
992.832	1127.24
993.002	1239.87
993.171	1231.68
993.341	848.71
993.511	1133.38
993.68	1098.56
993.85	1405.76
994.019	906.06
994.189	967.49
994.358	1203.01
994.528	1006.41
994.697	734.03
994.867	893.77
995.036	1231.68
995.206	1104.71
995.375	752.46
995.544	1104.71
995.714	1246.02
995.883	1172.29
996.052	1198.92
996.222	768.84
996.391	1631.04
996.56	1145.67
996.73	844.62
996.899	731.98
997.068	1481.53
997.237	1121.09
997.406	768.84
997.576	727.88
997.745	1076.04
997.914	1231.68
998.083	623.44
998.252	832.33
998.421	1102.66
998.59	944.97
998.759	754.51
998.928	691.02
999.097	1286.98
999.266	1127.24
999.435	883.53
999.604	701.26
999.773	1469.25
999.942	938.82
1000.111	623.44
1000.28	605
1000.448	779.08
1000.617	871.24
1000.786	1041.22
1000.955	742.22
1001.124	1217.35
1001.292	1719.1
1001.461	754.51
1001.63	729.93
1001.798	1295.17
1001.967	1364.8
1002.136	688.97
1002.304	764.75
1002.473	1090.37
1002.642	1049.41
1002.81	820.04
1002.979	631.63
1003.147	1209.15
1003.316	1493.82
1003.484	803.66
1003.653	721.74
1003.821	1303.36
1003.99	926.54
1004.158	895.82
1004.327	803.66
1004.495	1008.45
1004.663	791.37
1004.832	807.75
1005	656.2
1005.168	1127.24
1005.337	1016.65
1005.505	623.44
1005.673	856.9
1005.842	1073.99
1006.01	1188.68
1006.178	656.2
1006.346	764.75
1006.514	1112.9
1006.683	1139.52
1006.851	625.48
1007.019	594.76
1007.187	777.03
1007.355	492.37
1007.523	504.65
1007.691	465.74
1007.859	516.94
1008.027	1286.98
1008.195	717.64
1008.363	598.86
1008.531	1055.56
1008.699	770.89
1008.867	586.57
1009.035	664.4
1009.203	1147.72
1009.37	930.63
1009.538	701.26
1009.706	1043.27
1009.874	854.86
1010.042	815.94
1010.209	605
1010.377	578.38
1010.545	1084.23
1010.713	820.04
1010.88	453.45
1011.048	744.27
1011.216	813.9
1011.383	1205.06
1011.551	574.28
1011.718	541.52
1011.886	1117
1012.054	869.19
1012.221	555.85
1012.389	629.58
1012.556	844.62
1012.724	1286.98
1012.891	703.31
1013.058	353.1
1013.226	932.68
1013.393	1055.56
1013.561	420.69
1013.728	377.68
1013.895	973.64
1014.063	795.47
1014.23	475.98
1014.397	465.74
1014.565	901.96
1014.732	652.11
1014.899	531.28
1015.066	367.44
1015.233	762.7
1015.401	975.69
1015.568	531.28
1015.735	617.29
1015.902	746.31
1016.069	934.73
1016.236	553.8
1016.403	432.97
1016.57	506.7
1016.737	858.95
1016.904	500.56
1017.071	451.41
1017.238	588.62
1017.405	869.19
1017.572	461.65
1017.739	742.22
1017.906	785.23
1018.073	1028.93
1018.24	365.39
1018.407	516.94
1018.573	1016.65
1018.74	623.44
1018.907	502.61
1019.074	359.25
1019.241	994.12
1019.407	777.03
1019.574	412.5
1019.741	402.26
1019.907	822.09
1020.074	811.85
1020.241	142.16
1020.407	383.82
1020.574	893.77
1020.74	805.71
1020.907	432.97
1021.073	346.96
1021.24	1203.01
1021.406	1139.52
1021.573	359.25
1021.739	340.82
1021.906	918.34
1022.072	623.44
1022.239	514.89
1022.405	412.5
1022.571	684.87
1022.738	551.76
1022.904	281.43
1023.07	457.55
1023.237	715.59
1023.403	922.44
1023.569	408.4
1023.735	418.64
1023.902	686.92
1024.068	770.89
1024.234	301.9
1024.4	250.71
1024.566	715.59
1024.732	815.94
1024.898	381.78
1025.065	246.61
1025.231	789.32
1025.397	568.14
1025.563	389.97
1025.729	267.09
1025.895	191.31
1026.061	471.89
1026.227	230.23
1026.392	230.23
1026.558	795.47
1026.724	774.99
1026.89	363.34
1027.056	402.26
1027.222	680.78
1027.388	527.18
1027.553	336.72
1027.719	295.76
1027.885	963.4
1028.051	777.03
1028.216	176.98
1028.382	283.47
1028.548	748.36
1028.713	414.54
1028.879	179.03
1029.045	400.21
1029.21	879.43
1029.376	889.67
1029.541	260.95
1029.707	420.69
1029.873	723.79
1030.038	811.85
1030.204	234.32
1030.369	314.19
1030.534	856.9
1030.7	480.08
1030.865	353.1
1031.031	244.56
1031.196	756.55
1031.361	584.52
1031.527	230.23
1031.692	260.95
1031.857	174.93
1032.023	684.87
1032.188	189.27
1032.353	387.92
1032.518	930.63
1032.684	588.62
1032.849	176.98
1033.014	361.3
1033.179	705.35
1033.344	723.79
1033.509	336.72
1033.674	269.14
1033.839	717.64
1034.004	738.12
1034.17	176.98
1034.335	154.45
1034.5	504.65
1034.664	361.3
1034.829	142.16
1034.994	289.62
1035.159	625.48
1035.324	582.48
1035.489	183.12
1035.654	172.88
1035.819	834.38
1035.984	566.09
1036.148	306
1036.313	287.57
1036.478	795.47
1036.643	566.09
1036.807	140.12
1036.972	99.16
1037.137	883.53
1037.301	545.61
1037.466	31.57
1037.631	377.68
1037.795	779.08
1037.96	537.42
1038.124	406.35
1038.289	29.52
1038.454	680.78
1038.618	617.29
1038.783	277.33
1038.947	293.71
1039.111	478.03
1039.276	402.26
1039.44	95.06
1039.605	537.42
1039.769	389.97
1039.933	510.8
1040.098	250.71
1040.262	279.38
1040.426	783.18
1040.591	672.59
1040.755	172.88
1040.919	99.16
1041.083	559.95
1041.248	455.5
1041.412	105.3
1041.576	136.02
1041.74	418.64
1041.904	705.35
1042.068	78.68
1042.232	154.45
1042.397	678.73
1042.561	443.21
1042.725	2.9
1042.889	338.77
1043.053	693.07
1043.217	654.16
1043.381	260.95
1043.544	-7.34
1043.708	746.31
1043.872	246.61
1044.036	-124.07
1044.2	50
1044.364	734.03
1044.528	805.71
1044.691	3181.35
1044.855	50
1045.019	650.06
1045.183	586.57
1045.346	158.55
1045.51	101.2
1045.674	512.85
1045.837	754.51
1046.001	111.44
1046.165	181.07
1046.328	969.54
1046.492	580.43
1046.655	320.34
1046.819	158.55
1046.983	342.86
1047.146	523.09
1047.31	111.44
1047.473	-9.39
1047.636	404.3
1047.8	306
1047.963	115.54
1048.127	39.76
1048.29	289.62
