Data from Ink_Intensity_USB4F045381__100__00100.txt Node

Date: Mon Jul 17 11:04:46 EDT 2023
User: mmckonesweet
Spectrometer: USB4F04538
Trigger mode: 4
Integration Time (sec): 9.000000E-1
Scans to average: 1
Electric dark correction enabled: true
Nonlinearity correction enabled: false
Boxcar width: 0
XAxis mode: Wavelengths
Number of Pixels in Spectrum: 3648
>>>>>Begin Spectral Data<<<<<
345.52	-997.02
345.736	-997.02
345.952	-997.02
346.168	-1042.07
346.384	-1009.31
346.6	-218.79
346.816	-294.57
347.032	-134.82
347.248	278.87
347.464	-143.02
347.68	-63.15
347.896	106.84
348.112	393.55
348.328	-61.1
348.544	-63.15
348.76	-30.38
348.975	229.71
349.191	-296.61
349.407	-251.56
349.623	90.45
349.839	-85.67
350.055	-155.3
350.27	-1.71
350.486	194.9
350.702	321.87
350.918	244.05
351.133	-173.74
351.349	112.98
351.565	379.22
351.781	-198.31
351.996	47.44
352.212	295.25
352.428	-157.35
352.644	-204.46
352.859	-269.99
353.075	280.91
353.291	45.4
353.506	-95.91
353.722	-243.37
353.938	-71.34
354.153	452.94
354.369	94.55
354.584	-177.83
354.8	143.7
355.016	-288.42
355.231	-231.08
355.447	-46.76
355.662	76.12
355.878	762.19
356.093	-339.62
356.309	-69.29
356.524	-181.93
356.74	235.86
356.955	-218.79
357.171	-108.2
357.386	201.04
357.602	-173.74
357.817	-165.54
358.033	-216.74
358.248	356.69
358.464	67.92
358.679	-145.06
358.895	-284.33
359.11	-16.04
359.325	272.72
359.541	49.49
359.756	102.74
359.972	-329.38
360.187	168.27
360.402	-194.22
360.618	-153.26
360.833	964.93
361.048	196.95
361.264	-208.55
361.479	-36.52
361.694	-71.34
361.909	229.71
362.125	-186.02
362.34	-79.53
362.555	289.1
362.77	76.12
362.986	-296.61
363.201	-194.22
363.416	196.95
363.631	59.73
363.847	-235.18
364.062	-165.54
364.277	170.32
364.492	-26.28
364.707	-165.54
364.922	-378.53
365.138	244.05
365.353	293.2
365.568	-251.56
365.783	-175.78
365.998	182.61
366.213	584.01
366.428	-292.52
366.643	51.54
366.858	233.81
367.073	227.67
367.288	-108.2
367.503	-253.61
367.718	78.16
367.933	301.39
368.148	-317.09
368.363	14.68
368.578	-48.81
368.793	543.05
369.008	-145.06
369.223	-226.98
369.438	153.94
369.653	358.74
369.868	-325.29
370.083	-272.04
370.298	100.69
370.513	364.88
370.728	47.44
370.943	-247.46
371.157	-145.06
371.372	514.38
371.587	-247.46
371.802	-255.65
372.017	74.07
372.232	469.33
372.446	-132.78
372.661	-222.89
372.876	211.28
373.091	162.13
373.306	-9.9
373.52	-251.56
373.735	-124.58
373.95	399.7
374.165	-128.68
374.379	-65.19
374.594	-124.58
374.809	74.07
375.023	-38.57
375.238	-231.08
375.453	252.24
375.667	-333.48
375.882	-145.06
376.097	-75.43
376.311	16.73
376.526	16.73
376.741	-202.41
376.955	231.76
377.17	514.38
377.384	588.11
377.599	-63.15
377.813	-247.46
378.028	606.54
378.242	180.56
378.457	-149.16
378.672	-331.43
378.886	98.64
379.101	22.87
379.315	-366.25
379.53	-145.06
379.744	192.85
379.958	194.9
380.173	-122.54
380.387	-206.5
380.602	215.38
380.816	-40.62
381.031	-173.74
381.245	-93.87
381.459	231.76
381.674	2713.9
381.888	-243.37
382.103	172.37
382.317	-194.22
382.531	495.95
382.746	-87.72
382.96	-149.16
383.174	-108.2
383.388	588.11
383.603	-26.28
383.817	-272.04
384.031	153.94
384.246	524.62
384.46	-18.09
384.674	352.59
384.888	6.49
385.103	-18.09
385.317	-356.01
385.531	2.39
385.745	325.97
385.959	297.3
386.174	-165.54
386.388	-194.22
386.602	67.92
386.816	-112.3
387.03	-46.76
387.244	-30.38
387.458	131.41
387.672	385.36
387.887	-231.08
388.101	-329.38
388.315	325.97
388.529	106.84
388.743	-143.02
388.957	-239.27
389.171	350.54
389.385	-128.68
389.599	-175.78
389.813	102.74
390.027	225.62
390.241	637.26
390.455	-130.73
390.669	-59.05
390.883	-91.82
391.097	368.98
391.311	96.6
391.525	-167.59
391.738	209.23
391.952	149.84
392.166	35.16
392.38	-284.33
392.594	291.15
392.808	332.11
393.022	-52.91
393.236	-145.06
393.449	194.9
393.663	158.03
393.877	-278.18
394.091	-75.43
394.305	-34.47
394.518	-136.87
394.732	-231.08
394.946	-50.86
395.16	452.94
395.373	141.65
395.587	-206.5
395.801	-161.45
396.015	358.74
396.228	215.38
396.442	-245.41
396.656	-261.8
396.869	280.91
397.083	485.71
397.297	-5.8
397.51	-202.41
397.724	381.26
397.938	172.37
398.151	-339.62
398.365	-280.23
398.578	242
398.792	350.54
399.005	-24.23
399.219	-95.91
399.433	108.88
399.646	235.86
399.86	18.77
400.073	14.68
400.287	227.67
400.5	-169.64
400.714	37.2
400.927	-77.48
401.141	299.34
401.354	1055.05
401.567	221.52
401.781	-237.22
401.994	280.91
402.208	670.03
402.421	-171.69
402.635	-50.86
402.848	96.6
403.061	272.72
403.275	-38.57
403.488	-257.7
403.701	514.38
403.915	285.01
404.128	14.68
404.341	-75.43
404.555	188.75
404.768	0.34
404.981	10.58
405.195	-155.3
405.408	491.85
405.621	342.35
405.834	43.35
406.048	-218.79
406.261	452.94
406.474	559.44
406.687	-288.42
406.9	-26.28
407.114	92.5
407.327	325.97
407.54	-304.81
407.753	-259.75
407.966	-108.2
408.179	244.05
408.392	-145.06
408.605	-263.85
408.819	209.23
409.032	252.24
409.245	-210.6
409.458	-50.86
409.671	246.1
409.884	295.25
410.097	-272.04
410.31	31.06
410.523	207.19
410.736	26.96
410.949	-18.09
411.162	-79.53
411.375	375.12
411.588	371.02
411.801	63.83
412.014	-159.4
412.227	88.4
412.44	-1.71
412.653	-147.11
412.865	31.06
413.078	256.34
413.291	194.9
413.504	-54.95
413.717	-104.11
413.93	405.84
414.143	-104.11
414.356	-57
414.568	-331.43
414.781	221.52
414.994	96.6
415.207	-30.38
415.42	-18.09
415.632	311.63
415.845	536.91
416.058	-198.31
416.271	-267.94
416.483	196.95
416.696	618.83
416.909	-93.87
417.121	-169.64
417.334	313.68
417.547	518.48
417.759	-163.5
417.972	-267.94
418.185	-24.23
418.397	198.99
418.61	-167.59
418.823	-196.26
419.035	516.43
419.248	127.32
419.46	57.68
419.673	-59.05
419.885	219.47
420.098	106.84
420.311	-75.43
420.523	-327.33
420.736	244.05
420.948	67.92
421.161	-169.64
421.373	-327.33
421.586	223.57
421.798	-73.39
422.01	-263.85
422.223	-48.81
422.435	-48.81
422.648	301.39
422.86	-108.2
423.073	-1.71
423.285	297.3
423.497	-171.69
423.71	-161.45
423.922	-169.64
424.134	285.01
424.347	579.92
424.559	-38.57
424.771	198.99
424.984	12.63
425.196	260.43
425.408	-310.95
425.621	-247.46
425.833	358.74
426.045	465.23
426.257	-243.37
426.47	-50.86
426.682	160.08
426.894	301.39
427.106	-42.67
427.318	-104.11
427.531	-48.81
427.743	342.35
427.955	-145.06
428.167	387.41
428.379	262.48
428.591	170.32
428.804	31.06
429.016	-128.68
429.228	-7.85
429.44	235.86
429.652	145.75
429.864	-161.45
430.076	55.64
430.288	-13.99
430.5	-50.86
430.712	16.73
430.924	467.28
431.136	178.51
431.348	-243.37
431.56	-71.34
431.772	145.75
431.984	59.73
432.196	-120.49
432.408	-26.28
432.62	76.12
432.832	215.38
433.044	203.09
433.256	92.5
433.468	293.2
433.679	-186.02
433.891	-134.82
434.103	88.4
434.315	534.86
434.527	313.68
434.739	-9.9
434.95	-73.39
435.162	375.12
435.374	43.35
435.586	-20.14
435.798	-59.05
436.009	-116.39
436.221	104.79
436.433	-102.06
436.645	43.35
436.856	51.54
437.068	436.56
437.28	-147.11
437.491	260.43
437.703	276.82
437.915	235.86
438.126	33.11
438.338	244.05
438.55	211.28
438.761	258.39
438.973	2.39
439.184	72.02
439.396	137.56
439.608	393.55
439.819	-208.55
440.031	127.32
440.242	422.22
440.454	346.45
440.665	14.68
440.877	162.13
441.088	434.51
441.3	131.41
441.511	-153.26
441.723	-46.76
441.934	377.17
442.146	276.82
442.357	153.94
442.569	379.22
442.78	205.14
442.991	657.74
443.203	315.73
443.414	-73.39
443.626	448.85
443.837	18.77
444.048	-79.53
444.26	-157.35
444.471	299.34
444.682	483.66
444.894	-165.54
445.105	-140.97
445.316	409.94
445.528	371.02
445.739	164.18
445.95	108.88
446.161	416.08
446.373	534.86
446.584	45.4
446.795	20.82
447.006	428.37
447.217	629.07
447.429	-169.64
447.64	-83.63
447.851	565.58
448.062	321.87
448.273	-112.3
448.484	33.11
448.695	342.35
448.907	213.33
449.118	69.97
449.329	276.82
449.54	137.56
449.751	65.88
449.962	-28.33
450.173	67.92
450.384	522.57
450.595	637.26
450.806	31.06
451.017	63.83
451.228	448.85
451.439	495.95
451.65	24.92
451.861	-177.83
452.072	137.56
452.283	260.43
452.494	264.53
452.705	41.3
452.915	672.08
453.126	391.5
453.337	82.26
453.548	41.3
453.759	586.06
453.97	778.57
454.181	350.54
454.391	74.07
454.602	233.81
454.813	530.77
455.024	190.8
455.235	133.46
455.445	401.74
455.656	493.9
455.867	317.78
456.078	94.55
456.288	201.04
456.499	481.61
456.71	115.03
456.921	276.82
457.131	506.19
457.342	362.83
457.553	186.71
457.763	121.17
457.974	475.47
458.184	502.09
458.395	127.32
458.606	2.39
458.816	614.73
459.027	837.96
459.237	289.1
459.448	-50.86
459.659	665.93
459.869	1001.8
460.08	-20.14
460.29	280.91
460.501	905.54
460.711	348.5
460.922	37.2
461.132	147.8
461.343	1231.17
461.553	180.56
461.764	170.32
461.974	229.71
462.184	598.35
462.395	622.92
462.605	190.8
462.816	180.56
463.026	610.64
463.236	672.08
463.447	174.42
463.657	117.08
463.867	684.36
464.078	379.22
464.288	229.71
464.498	178.51
464.709	516.43
464.919	409.94
465.129	387.41
465.339	219.47
465.55	530.77
465.76	702.79
465.97	235.86
466.18	176.47
466.391	776.52
466.601	678.22
466.811	311.63
467.021	147.8
467.231	670.03
467.441	874.82
467.651	354.64
467.862	4.44
468.072	532.81
468.282	825.67
468.492	340.3
468.702	350.54
468.912	719.18
469.122	1237.31
469.332	745.8
469.542	346.45
469.752	854.34
469.962	694.6
470.172	393.55
470.382	383.31
470.592	837.96
470.802	940.36
471.012	618.83
471.222	491.85
471.432	850.25
471.642	981.32
471.852	598.35
472.062	375.12
472.272	715.08
472.482	416.08
472.691	440.65
472.901	387.41
473.111	835.91
473.321	1378.62
473.531	479.57
473.741	657.74
473.95	956.74
474.16	1067.33
474.37	653.64
474.58	506.19
474.79	1315.14
474.999	1083.72
475.209	565.58
475.419	633.16
475.628	801.1
475.838	1186.12
476.048	737.61
476.258	567.63
476.467	1216.83
476.677	797
476.886	981.32
477.096	825.67
477.306	883.02
477.515	1290.56
477.725	895.3
477.935	829.77
478.144	1409.34
478.354	979.27
478.563	756.04
478.773	844.1
478.982	1214.79
479.192	1261.89
479.401	880.97
479.611	829.77
479.82	942.41
480.03	1280.32
480.239	899.4
480.449	772.43
480.658	1587.52
480.868	1098.05
481.077	1036.61
481.287	903.5
481.496	1302.85
481.705	1585.47
481.915	1255.75
482.124	1261.89
482.333	1374.53
482.543	1558.85
482.752	1161.54
482.961	1032.52
483.171	1456.45
483.38	1403.2
483.589	1175.88
483.799	1134.92
484.008	1382.72
484.217	1560.89
484.426	1151.3
484.636	1016.13
484.845	1425.73
485.054	1055.05
485.263	1517.89
485.472	1190.21
485.682	1866.04
485.891	1446.21
486.1	1124.68
486.309	1237.31
486.518	1763.64
486.727	1950.01
486.936	1229.12
487.146	1491.26
487.355	1962.3
487.564	1382.72
487.773	1231.17
487.982	1403.2
488.191	1421.63
488.4	1587.52
488.609	1450.3
488.818	1493.31
489.027	2289.97
489.236	1993.01
489.445	1519.93
489.654	1380.67
489.863	1966.39
490.072	1767.74
490.281	1886.52
490.49	1519.93
490.698	2380.08
490.907	2122.04
491.116	1538.37
491.325	1337.66
491.534	2214.2
491.743	1898.81
491.952	1818.94
492.16	1728.83
492.369	2009.4
492.578	2163
492.787	1794.36
492.996	1573.18
493.204	1771.83
493.413	2398.51
493.622	1595.71
493.831	1495.36
494.039	2349.36
494.248	1802.55
494.457	1622.33
494.665	1665.34
494.874	2271.54
495.083	2441.52
495.291	1753.4
495.5	1812.79
495.709	2294.07
495.917	2097.46
496.126	1995.06
496.335	1771.83
496.543	2109.75
496.752	2279.73
496.96	2171.19
497.169	1890.62
497.377	2292.02
497.586	2390.32
497.794	2097.46
498.003	1857.85
498.211	2312.5
498.42	2533.68
498.628	2122.04
498.837	1941.82
499.045	2418.99
499.254	2459.95
499.462	2099.51
499.671	2136.37
499.879	2865.45
500.087	2496.82
500.296	2072.89
500.504	2173.24
500.713	2439.47
500.921	3105.06
501.129	2130.23
501.338	2267.44
501.546	2472.24
501.754	2500.91
501.962	2195.76
502.171	2165.04
502.379	2644.27
502.587	3086.63
502.795	2359.6
503.004	2423.09
503.212	2578.73
503.42	2933.03
503.628	2279.73
503.837	2482.48
504.045	2834.73
504.253	3103.01
504.461	2300.21
504.669	2197.81
504.877	2849.07
505.085	3178.79
505.294	2275.63
505.502	2595.12
505.71	2820.39
505.918	2898.22
506.126	2435.38
506.334	2509.1
506.542	2732.33
506.75	2758.96
506.958	2681.13
507.166	2464.05
507.374	2670.89
507.582	3215.65
507.79	2595.12
507.998	2509.1
508.206	3066.15
508.414	3025.19
508.622	2550.06
508.83	2634.03
509.037	3342.63
509.245	2883.88
509.453	2689.32
509.661	2605.36
509.869	3176.74
510.077	2910.5
510.285	2859.31
510.492	2507.06
510.7	3713.31
510.908	3066.15
511.116	2902.31
511.324	2738.48
511.531	3105.06
511.739	3176.74
511.947	2877.74
512.155	3115.3
512.362	3283.24
512.57	2881.83
512.778	2826.54
512.985	2810.15
513.193	3322.15
513.401	3649.82
513.608	2965.8
513.816	2941.22
514.024	3399.97
514.231	3479.84
514.439	3078.44
514.646	2947.37
514.854	3539.23
515.061	3500.32
515.269	3160.36
515.477	3113.25
515.684	3135.78
515.892	3633.44
516.099	2920.74
516.307	2924.84
516.514	3664.16
516.722	3787.04
516.929	3125.54
517.136	3045.67
517.344	3799.32
517.551	3561.76
517.759	3178.79
517.966	3252.52
518.173	3440.93
518.381	3442.98
518.588	3320.1
518.796	3143.97
519.003	3723.55
519.21	3574.05
519.418	3406.11
519.625	3496.22
519.832	3561.76
520.039	3811.61
520.247	3340.58
520.454	3305.76
520.661	3709.21
520.868	3807.52
521.076	3528.99
521.283	3408.16
521.49	4270.36
521.697	3887.39
521.904	3637.53
522.112	3356.96
522.319	3940.63
522.526	3905.82
522.733	3590.43
522.94	3533.09
523.147	3797.28
523.354	4184.34
523.561	3453.22
523.768	3660.06
523.975	4315.41
524.183	4030.74
524.39	3801.37
524.597	3553.57
524.804	4053.27
525.011	3979.54
525.218	3709.21
525.425	3664.16
525.632	4233.49
525.838	3936.54
526.045	3670.3
526.252	3922.2
526.459	5153.03
526.666	4987.15
526.873	3819.8
527.08	3864.86
527.287	4532.5
527.494	4290.84
527.701	3782.94
527.907	3883.29
528.114	4305.17
528.321	4245.78
528.528	3926.3
528.735	4028.7
528.941	4397.33
529.148	4034.84
529.355	4139.29
529.562	3914.01
529.768	4806.92
529.975	4335.89
530.182	4204.82
530.388	4008.22
530.595	4720.91
530.802	4180.25
531.008	4339.99
531.215	4213.01
531.422	4921.61
531.628	5345.54
531.835	4317.46
532.042	4321.56
532.248	4471.06
532.455	4512.02
532.661	4333.84
532.868	4235.54
533.074	4602.13
533.281	4935.95
533.487	4395.28
533.694	4325.65
533.9	4620.56
534.107	4915.47
534.313	4542.74
534.52	4186.39
534.726	4997.39
534.933	5187.85
535.139	4409.62
535.345	4366.61
535.552	4815.12
535.758	4894.99
535.965	4735.25
536.171	4657.42
536.377	5071.11
536.584	5292.29
536.79	4589.84
536.996	4757.77
537.203	5124.36
537.409	5077.26
537.615	4512.02
537.821	4868.36
538.028	5376.26
538.234	5081.35
538.44	4835.6
538.646	4741.39
538.853	5376.26
539.059	5103.88
539.265	5335.3
539.471	4802.83
539.677	5241.09
539.883	5142.79
540.09	4823.31
540.296	5476.61
540.502	5331.2
540.708	5112.07
540.914	5306.63
541.12	5019.91
541.326	5558.53
541.532	5267.72
541.738	5095.69
541.944	4921.61
542.15	5740.8
542.356	5267.72
542.562	5013.77
542.768	5138.69
542.974	5937.4
543.18	6095.1
543.386	5206.28
543.592	5044.49
543.798	5878.01
544.004	5966.07
544.21	5476.61
544.415	5501.19
544.621	5781.76
544.827	5943.55
545.033	5349.64
545.239	5832.96
545.445	5771.52
545.651	5705.98
545.856	5290.24
546.062	5503.23
546.268	5826.81
546.474	5720.32
546.679	5515.52
546.885	5667.07
547.091	5601.54
547.297	6191.35
547.502	5587.2
547.708	5597.44
547.914	5714.17
548.119	6068.47
548.325	5525.76
548.531	5574.91
548.736	6318.32
548.942	5708.03
549.147	5599.49
549.353	5900.54
549.559	6213.88
549.764	6062.33
549.97	5699.84
550.175	5785.85
550.381	6162.68
550.586	5632.26
550.792	5843.2
550.997	5802.24
551.203	6320.37
551.408	6406.39
551.614	5828.86
551.819	5931.26
552.025	6736.11
552.23	6680.82
552.435	5910.78
552.641	6146.3
552.846	6162.68
553.052	6772.97
553.257	6277.37
553.462	6004.99
553.668	6058.23
553.873	6723.82
554.078	6052.09
554.283	6117.62
554.489	6682.86
554.694	6637.81
554.899	5951.74
555.105	6453.49
555.31	6521.07
555.515	6740.21
555.72	6170.87
555.925	6236.41
556.131	6891.76
556.336	6484.21
556.541	6330.61
556.746	6428.92
556.951	7137.51
557.156	7043.31
557.361	6623.47
557.567	6689.01
557.772	7168.23
557.977	6885.61
558.182	6428.92
558.387	6465.78
558.592	6760.69
558.797	7248.1
559.002	6545.65
559.207	6514.93
559.412	6797.55
559.617	7272.68
559.822	6750.45
560.027	6736.11
560.232	6873.32
560.437	7108.84
560.642	6535.41
560.847	6625.52
561.051	6877.42
561.256	7074.03
561.461	6858.99
561.666	6676.72
561.871	7268.58
562.076	7297.25
562.281	6852.84
562.485	6832.37
562.69	7307.49
562.895	7338.21
563.1	6727.92
563.305	6699.25
563.509	7641.31
563.714	7606.5
563.919	6813.93
564.123	6953.2
564.328	7233.77
564.533	7610.59
564.737	6969.58
564.942	6797.55
565.147	7631.07
565.351	7911.64
565.556	7143.66
565.761	7250.15
565.965	7450.85
566.17	7297.25
566.374	7141.61
566.579	6979.82
566.784	7483.62
566.988	7532.77
567.193	7143.66
567.397	7031.02
567.602	7340.26
567.806	7358.69
568.011	7395.56
568.215	7231.72
568.42	7485.67
568.624	7424.23
568.828	7170.28
569.033	7457
569.237	7774.43
569.442	7932.12
569.646	7422.18
569.85	7540.96
570.055	7829.73
570.259	7868.64
570.463	7610.59
570.668	7573.73
570.872	7829.73
571.076	7815.39
571.281	7768.29
571.485	7756
571.689	7821.53
571.893	8198.36
572.098	7776.48
572.302	7639.26
572.506	8034.52
572.71	7715.04
572.914	7661.79
573.119	7850.21
573.323	8460.5
573.527	8339.67
573.731	7805.15
573.935	7803.1
574.139	8098.01
574.343	7878.88
574.547	7866.59
574.751	7903.45
574.955	8476.88
575.159	8595.67
575.364	7923.93
575.568	7905.5
575.772	8390.87
575.976	8681.68
576.18	7837.92
576.383	7878.88
576.587	8759.5
576.791	8394.97
576.995	7796.96
577.199	8003.8
577.403	8386.77
577.607	8759.5
577.811	8044.76
578.015	8282.33
578.219	8626.39
578.422	8804.56
578.626	8374.49
578.83	8366.29
579.034	8952.01
579.238	8767.7
579.442	8136.92
579.645	8687.82
579.849	8777.94
580.053	8628.43
580.257	8370.39
580.46	8636.63
580.664	8810.7
580.868	8941.77
581.071	8458.45
581.275	8663.25
581.479	8558.8
581.682	8800.46
581.886	8513.75
582.09	8716.5
582.293	9210.06
582.497	9121.99
582.7	8806.61
582.904	8796.37
583.107	8997.07
583.311	9056.46
583.515	8945.87
583.718	8890.57
583.922	9187.53
584.125	9455.81
584.329	8698.06
584.532	9048.27
584.735	9515.2
584.939	9181.39
585.142	8714.45
585.346	8837.33
585.549	9193.67
585.753	9369.8
585.956	9083.08
586.159	9132.23
586.363	9787.58
586.566	9535.68
586.769	8845.52
586.973	8984.78
587.176	9523.4
587.379	9937.09
587.582	9517.25
587.786	9359.56
587.989	9412.81
588.192	10199.23
588.395	9103.56
588.599	9496.77
588.802	9601.22
589.005	9640.13
589.208	9339.08
589.411	9320.65
589.615	9664.71
589.818	10016.96
590.021	9676.99
590.224	9535.68
590.427	10098.88
590.63	10068.16
590.833	9421
591.036	9498.82
591.239	9763.01
591.442	9732.29
591.645	9482.44
591.848	9693.38
592.051	10160.31
592.254	10076.35
592.457	9717.95
592.66	9699.52
592.863	10000.57
593.066	10401.97
593.269	9738.43
593.472	9898.17
593.675	9818.3
593.878	10504.37
594.081	9724.1
594.284	9834.69
594.486	10254.52
594.689	10528.95
594.892	9990.33
595.095	9926.85
595.298	10326.2
595.5	10320.06
595.703	10139.83
595.906	10164.41
596.109	10664.11
596.311	10641.59
596.514	10004.67
596.717	10186.94
596.92	10803.38
597.122	10158.27
597.325	9922.75
597.528	10150.07
597.73	10881.2
597.933	10748.08
598.136	10371.26
598.338	10201.27
598.541	10844.34
598.743	11012.27
598.946	10270.9
599.148	10457.27
599.351	11147.44
599.554	11225.26
599.756	10555.57
599.959	10631.35
600.161	11032.75
600.363	11329.7
600.566	10684.59
600.768	10477.75
600.971	11221.16
601.173	10856.62
601.376	10619.06
601.578	10651.83
601.78	11135.15
601.983	11432.1
602.185	10653.87
602.388	10885.3
602.59	11006.13
602.792	10834.1
602.995	10815.66
603.197	10696.88
603.399	11090.09
603.601	11241.64
603.804	10916.01
604.006	10911.92
604.208	11233.45
604.41	10854.58
604.613	11108.52
604.815	10844.34
605.017	11835.55
605.219	11186.35
605.421	11430.05
605.623	11180.2
605.826	11835.55
606.028	11552.93
606.23	10885.3
606.432	11133.1
606.634	11614.37
606.836	11735.2
607.038	10967.21
607.24	11083.95
607.442	11516.07
607.644	11419.82
607.846	11165.87
608.048	11176.11
608.25	11921.57
608.452	11327.66
608.654	11286.7
608.856	10877.1
609.058	11471.01
609.26	11767.97
609.462	11225.26
609.664	11434.15
609.866	12021.92
610.067	11735.2
610.269	11673.76
610.471	11196.59
610.673	11546.79
610.875	11813.03
611.077	11139.24
611.278	11473.06
611.48	11681.96
611.682	11954.33
611.884	11673.76
612.085	11415.72
612.287	11665.57
612.489	11745.44
612.69	11671.72
612.892	11636.9
613.094	12251.29
613.295	12026.01
613.497	11440.29
613.699	11684
613.9	12470.42
614.102	12148.89
614.304	11724.96
614.505	11417.77
614.707	11733.15
614.908	11974.81
615.11	11477.16
615.311	11847.84
615.513	12013.73
615.714	12165.28
615.916	11591.84
616.117	11841.7
616.319	11956.38
616.52	12286.11
616.722	11743.39
616.923	11856.03
617.124	12368.02
617.326	12247.19
617.527	11872.42
617.729	12089.5
617.93	12433.56
618.131	12431.51
618.333	11995.29
618.534	12140.7
618.735	12163.23
618.937	12585.11
619.138	11684
619.339	11919.52
619.54	12351.64
619.742	12257.43
619.943	12198.04
620.144	11980.96
620.345	12630.16
620.546	12445.85
620.748	12122.27
620.949	12312.73
621.15	12546.2
621.351	12394.65
621.552	12093.6
621.753	12069.02
621.954	12142.75
622.155	12769.43
622.356	12171.42
622.558	12445.85
622.759	12267.67
622.96	13129.87
623.161	12177.56
623.362	12249.24
623.563	12630.16
623.764	12697.75
623.965	12339.35
624.166	12726.42
624.366	12697.75
624.567	12654.74
624.768	12116.12
624.969	12132.51
625.17	12566.68
625.371	12855.44
625.572	12327.07
625.773	12357.78
625.973	13013.13
626.174	12925.07
626.375	12449.94
626.576	12540.05
626.777	13041.81
626.977	13301.9
627.178	12554.39
627.379	12777.62
627.58	12658.84
627.78	12662.93
627.981	12656.79
628.182	12843.15
628.382	13215.88
628.583	12544.15
628.784	12656.79
628.984	12769.43
629.185	13318.28
629.386	13088.91
629.586	12636.31
629.787	12617.88
629.987	13230.22
630.188	13004.94
630.388	12910.74
630.589	12750.99
630.79	13899.91
630.99	13228.17
631.191	12935.31
631.391	12943.5
631.591	13373.58
631.792	13455.5
631.992	13158.54
632.193	13047.95
632.393	13699.2
632.594	13226.12
632.794	12974.22
632.994	13181.07
633.195	13328.52
633.395	13496.46
633.595	13166.73
633.796	13412.49
633.996	13383.82
634.196	13682.82
634.397	13002.89
634.597	13250.7
634.797	13316.23
634.997	13904
635.198	13480.07
635.398	13025.42
635.598	13789.31
635.798	13985.92
635.998	13760.64
636.199	13396.1
636.399	13795.46
636.599	13412.49
636.799	13574.28
636.999	13648.01
637.199	13660.29
637.399	13942.91
637.599	13330.57
637.799	13529.22
637.999	13670.53
638.199	14051.45
638.399	13564.04
638.599	13293.71
638.799	14053.5
638.999	14250.11
639.199	13822.08
639.399	13957.25
639.599	14370.94
639.799	13781.12
639.999	13662.34
640.199	13475.98
640.399	13762.69
640.599	13830.27
640.799	14061.69
640.998	13756.55
641.198	14368.89
641.398	14250.11
641.598	14026.88
641.798	13844.61
641.997	15030.38
642.197	14096.51
642.397	13904
642.597	13994.11
642.796	14291.07
642.996	14422.14
643.196	14170.24
643.395	13580.42
643.595	14375.03
643.795	13936.77
643.994	14194.81
644.194	13828.23
644.394	14571.64
644.593	14323.83
644.793	13922.43
644.992	14143.61
645.192	14473.34
645.392	14153.85
645.591	14198.91
645.791	14325.88
645.99	14585.97
646.19	14477.43
646.389	14452.86
646.589	14352.51
646.788	14567.54
646.987	14536.82
647.187	14530.68
647.386	14401.66
647.586	14665.85
647.785	14968.94
647.984	14272.64
648.184	14604.41
648.383	14569.59
648.582	14350.46
648.782	14415.99
648.981	14495.86
649.18	14700.66
649.38	15089.78
649.579	14618.74
649.778	14641.27
649.977	15202.41
650.177	14964.85
650.376	14420.09
650.575	14434.43
650.774	15251.56
650.973	14858.35
651.173	14194.81
651.372	14727.28
651.571	14899.31
651.77	15239.28
651.969	14532.73
652.168	14983.28
652.367	14817.4
652.566	14973.04
652.765	14774.39
652.964	15054.96
653.163	15439.98
653.362	15126.64
653.561	14661.75
653.76	14985.33
653.959	14895.22
654.158	15437.93
654.357	15085.68
654.556	14657.65
654.755	15313
654.954	15276.14
655.153	14739.57
655.352	15165.55
655.551	15669.35
655.749	15286.38
655.948	15161.45
656.147	15196.27
656.346	15462.51
656.545	15200.37
656.743	15249.52
656.942	15124.59
657.141	15337.58
657.34	15108.21
657.538	15120.49
657.737	15106.16
657.936	15489.13
658.135	15399.02
658.333	15044.72
658.532	15306.86
658.731	15820.9
658.929	15407.21
659.128	15491.18
659.326	15007.86
659.525	16078.94
659.724	15734.89
659.922	14884.98
660.121	15120.49
660.319	15380.59
660.518	15325.29
660.716	15241.32
660.915	15325.29
661.113	16066.66
661.312	15235.18
661.51	15509.61
661.709	15669.35
661.907	15849.57
662.105	15882.34
662.304	15370.35
662.502	15585.38
662.701	15900.77
662.899	15831.14
663.097	15925.35
663.296	15525.99
663.494	16169.05
663.692	16103.52
663.891	15341.68
664.089	15419.5
664.287	16021.6
664.485	16029.79
664.684	15501.42
664.882	15702.12
665.08	15954.02
665.278	16238.69
665.476	15583.34
665.675	16175.2
665.873	16580.7
666.071	16283.74
666.269	15669.35
666.467	15929.44
666.665	15790.18
666.863	15624.29
667.061	15847.52
667.259	15679.59
667.457	16009.31
667.655	16265.31
667.853	15523.94
668.051	15591.53
668.249	15908.96
668.447	15976.55
668.645	15847.52
668.843	16029.79
669.041	16150.62
669.239	15972.45
669.437	15947.87
669.635	16089.18
669.833	15923.3
670.031	16369.76
670.229	16230.49
670.426	16156.77
670.624	16191.58
670.822	16142.43
671.02	15956.07
671.218	15896.67
671.415	15978.59
671.613	15915.11
671.811	15960.16
672.009	16033.89
672.206	16533.59
672.404	16201.82
672.602	16169.05
672.799	16214.11
672.997	16412.76
673.195	16386.14
673.392	16218.21
673.59	16078.94
673.788	16410.71
673.985	15771.75
674.183	15956.07
674.38	16181.34
674.578	16423
674.775	15939.68
674.973	15968.35
675.17	15994.98
675.368	16384.09
675.565	16404.57
675.763	16005.22
675.96	16228.45
676.158	16236.64
676.355	16160.86
676.553	16134.24
676.75	15915.11
676.947	16332.89
677.145	16459.87
677.342	16300.12
677.539	16402.52
677.737	16384.09
677.934	16826.45
678.131	16185.44
678.329	15988.83
678.526	16771.16
678.723	16529.5
678.92	16408.67
679.118	16095.33
679.315	15974.5
679.512	16781.4
679.709	15937.63
679.906	16332.89
680.104	16656.47
680.301	16443.48
680.498	16025.7
680.695	15851.62
680.892	15933.54
681.089	16146.53
681.286	16097.38
681.483	15923.3
681.68	16554.07
681.877	16570.46
682.075	16132.19
682.272	16521.31
682.469	16265.31
682.665	16212.06
682.862	15964.26
683.059	15859.81
683.256	16642.14
683.453	16365.66
683.65	16267.36
683.847	16572.5
684.044	16308.32
684.241	16281.69
684.438	16324.7
684.635	16050.27
684.831	16881.75
685.028	16900.18
685.225	15929.44
685.422	16310.36
685.619	16167.01
685.815	16558.17
686.012	16152.67
686.209	16138.34
686.405	16064.61
686.602	16658.52
686.799	15982.69
686.996	16261.21
687.192	16285.79
687.389	16781.4
687.586	15990.88
687.782	16267.36
687.979	16691.29
688.175	16484.44
688.372	16351.32
688.568	16130.14
688.765	16242.78
688.962	16848.98
689.158	16304.22
689.355	16175.2
689.551	16545.88
689.748	16115.81
689.944	16373.85
690.14	15966.31
690.337	16402.52
690.533	16400.48
690.73	16447.58
690.926	16285.79
691.123	16547.93
691.319	16119.9
691.515	16234.59
691.712	16408.67
691.908	16498.78
692.104	16525.4
692.301	16179.29
692.497	16119.9
692.693	16650.33
692.889	16531.55
693.086	16406.62
693.282	16271.45
693.478	16345.18
693.674	16769.11
693.87	16277.6
694.067	16050.27
694.263	16646.23
694.459	16543.83
694.655	16275.55
694.851	16230.49
695.047	16566.36
695.243	16572.5
695.439	16316.51
695.635	15968.35
695.831	16664.66
696.027	16535.64
696.224	15880.29
696.42	16529.5
696.615	17203.28
696.811	16916.56
697.007	16054.37
697.203	16179.29
697.399	16533.59
697.595	16564.31
697.791	16148.57
697.987	16263.26
698.183	16242.78
698.379	16111.71
698.575	16322.65
698.77	16080.99
698.966	16646.23
699.162	16799.83
699.358	16142.43
699.554	16210.01
699.749	16769.11
699.945	16375.9
700.141	16074.85
700.337	16287.84
700.532	16435.29
700.728	16296.03
700.924	16275.55
701.119	16017.5
701.315	16289.88
701.511	16042.08
701.706	16265.31
701.902	16046.18
702.097	16404.57
702.293	16646.23
702.489	16224.35
702.684	16124
702.88	16336.99
703.075	16287.84
703.271	16275.55
703.466	16169.05
703.662	16412.76
703.857	16580.7
704.053	16085.09
704.248	16267.36
704.443	16554.07
704.639	16525.4
704.834	16402.52
705.03	16113.76
705.225	16660.57
705.42	16640.09
705.616	16343.13
705.811	16250.97
706.006	16207.97
706.202	16644.18
706.397	16603.22
706.592	16091.23
706.787	16588.89
706.983	16410.71
707.178	16701.53
707.373	16625.75
707.568	16615.51
707.763	16623.7
707.959	16322.65
708.154	16509.02
708.349	16580.7
708.544	16597.08
708.739	16502.87
708.934	16080.99
709.129	16789.59
709.324	16490.59
709.519	16128.1
709.714	16296.03
709.909	17066.06
710.104	16435.29
710.299	16248.93
710.494	16201.82
710.689	16676.95
710.884	16394.33
711.079	16218.21
711.274	16416.86
711.469	16603.22
711.664	16560.22
711.859	16296.03
712.054	16187.49
712.249	16584.79
712.443	16621.66
712.638	16156.77
712.833	16124
713.028	16517.21
713.223	16300.12
713.417	16324.7
713.612	16275.55
713.807	16687.19
714.002	16961.62
714.196	16425.05
714.391	16040.03
714.586	16906.32
714.78	16488.54
714.975	16214.11
715.17	16048.22
715.364	16420.95
715.559	16873.56
715.754	15859.81
715.948	15935.59
716.143	16846.93
716.337	16533.59
716.532	16439.39
716.726	16265.31
716.921	16644.18
717.115	16980.05
717.31	15968.35
717.504	16703.57
717.699	16187.49
717.893	16621.66
718.088	16136.29
718.282	16033.89
718.476	16242.78
718.671	16185.44
718.865	16242.78
719.059	15761.51
719.254	16306.27
719.448	16683.09
719.642	17541.19
719.837	15743.08
720.031	16656.47
720.225	16406.62
720.419	16105.57
720.614	16244.83
720.808	16445.53
721.002	16074.85
721.196	16023.65
721.39	15775.84
721.585	16824.4
721.779	16355.42
721.973	16136.29
722.167	15710.31
722.361	16287.84
722.555	16635.99
722.749	15726.69
722.943	16304.22
723.137	15870.05
723.331	16273.5
723.525	15845.48
723.719	15818.85
723.913	16455.77
724.107	16449.63
724.301	15792.23
724.495	16224.35
724.689	16748.63
724.883	16666.71
725.077	15859.81
725.271	16179.29
725.465	16515.16
725.659	16124
725.853	16119.9
726.046	15794.28
726.24	15745.13
726.434	16167.01
726.628	15931.49
726.822	15917.15
727.015	16574.55
727.209	16588.89
727.403	16007.27
727.596	15827.04
727.79	16533.59
727.984	16369.76
728.177	16044.13
728.371	16259.17
728.565	16502.87
728.758	16207.97
728.952	16013.41
729.146	15960.16
729.339	16390.24
729.533	16324.7
729.726	15990.88
729.92	15878.24
730.113	16699.48
730.307	16207.97
730.5	16072.8
730.694	16064.61
730.887	16124
731.081	16449.63
731.274	16005.22
731.468	15976.55
731.661	16226.4
731.854	16332.89
732.048	16234.59
732.241	16037.98
732.435	15976.55
732.628	16447.58
732.821	16033.89
733.014	16005.22
733.208	16132.19
733.401	16521.31
733.594	15736.93
733.788	16240.73
733.981	16595.03
734.174	16320.6
734.367	15839.33
734.56	16355.42
734.754	16291.93
734.947	16353.37
735.14	16111.71
735.333	16011.36
735.526	16789.59
735.719	16326.75
735.912	16017.5
736.105	16093.28
736.298	16496.73
736.491	16080.99
736.684	16210.01
736.877	16214.11
737.07	16156.77
737.263	16777.3
737.456	15951.97
737.649	16029.79
737.842	16369.76
738.035	16711.77
738.228	15851.62
738.421	16334.94
738.614	16824.4
738.807	16668.76
739	15868
739.192	15933.54
739.385	16588.89
739.578	16480.35
739.771	16175.2
739.964	16162.91
740.156	16703.57
740.349	16257.12
740.542	16187.49
740.735	15868
740.927	16531.55
741.12	16226.4
741.313	16097.38
741.505	16107.62
741.698	16572.5
741.891	16310.36
742.083	16443.48
742.276	16154.72
742.468	16527.45
742.661	16601.18
742.854	16097.38
743.046	16185.44
743.239	16724.05
743.431	16212.06
743.624	16291.93
743.816	15847.52
744.009	16394.33
744.201	16619.61
744.393	16504.92
744.586	15931.49
744.778	16576.6
744.971	16365.66
745.163	16138.34
745.355	16124
745.548	16355.42
745.74	16218.21
745.932	16226.4
746.125	16468.06
746.317	17004.63
746.509	16312.41
746.702	16414.81
746.894	15982.69
747.086	16427.1
747.278	16554.07
747.471	16316.51
747.663	16103.52
747.855	16289.88
748.047	16736.34
748.239	15894.63
748.431	15818.85
748.623	16939.09
748.815	16592.98
749.008	16072.8
749.2	16029.79
749.392	16584.79
749.584	16398.43
749.776	16101.47
749.968	16013.41
750.16	16674.9
750.352	16504.92
750.544	16136.29
750.736	15911.01
750.928	16439.39
751.12	16363.61
751.311	16013.41
751.503	16017.5
751.695	16273.5
751.887	16205.92
752.079	15956.07
752.271	15775.84
752.463	17035.35
752.654	16377.95
752.846	16093.28
753.038	15855.72
753.23	16093.28
753.421	16443.48
753.613	15923.3
753.805	16226.4
753.997	16445.53
754.188	16531.55
754.38	15751.27
754.572	15743.08
754.763	16230.49
754.955	16156.77
755.146	16101.47
755.338	15921.25
755.53	16519.26
755.721	15843.43
755.913	15581.29
756.104	15825
756.296	16087.14
756.487	16369.76
756.679	15722.6
756.87	15767.65
757.062	15802.47
757.253	16087.14
757.445	15865.96
757.636	15816.8
757.827	15736.93
758.019	16816.21
758.21	15509.61
758.401	15665.25
758.593	16416.86
758.784	16201.82
758.975	15569
759.167	15616.1
759.358	16158.81
759.549	16345.18
759.74	15439.98
759.932	15521.9
760.123	16271.45
760.314	15827.04
760.505	15626.34
760.696	15599.72
760.888	16494.68
761.079	15792.23
761.27	15456.36
761.461	15251.56
761.652	16248.93
761.843	15640.68
762.034	15558.76
762.225	15693.93
762.416	15794.28
762.607	15583.34
762.798	15392.87
762.989	15452.27
763.18	16433.24
763.371	15601.77
763.562	15581.29
763.753	15587.43
763.944	15878.24
764.135	16064.61
764.326	15525.99
764.517	15206.51
764.708	15591.53
764.899	15634.53
765.089	15317.1
765.28	15014
765.471	15685.73
765.662	15679.59
765.853	15267.95
766.043	14786.68
766.234	15589.48
766.425	15665.25
766.615	15243.37
766.806	15183.98
766.997	15673.45
767.187	15487.08
767.378	15585.38
767.569	14862.45
767.759	15464.55
767.95	15358.06
768.141	15431.79
768.331	15018.1
768.522	15411.31
768.712	15663.21
768.903	15149.17
769.093	15124.59
769.284	15710.31
769.474	15300.72
769.665	14708.85
769.855	14555.26
770.046	15591.53
770.236	15229.04
770.426	15308.91
770.617	14968.94
770.807	15423.59
770.998	15179.89
771.188	15059.06
771.378	15014
771.569	15280.24
771.759	15317.1
771.949	14567.54
772.139	14796.92
772.33	14991.47
772.52	15573.1
772.71	14762.1
772.9	14569.59
773.09	15384.68
773.281	15579.24
773.471	14811.25
773.661	14868.59
773.851	15272.04
774.041	14936.18
774.231	14803.06
774.421	14825.59
774.611	15196.27
774.802	14876.79
774.992	14944.37
775.182	15034.48
775.372	14917.75
775.562	15147.12
775.752	14768.24
775.942	14432.38
776.131	15485.03
776.321	14811.25
776.511	14614.65
776.701	14583.93
776.891	15126.64
777.081	14612.6
777.271	14690.42
777.461	14659.7
777.651	15167.6
777.84	15018.1
778.03	14557.3
778.22	14790.77
778.41	15081.58
778.599	14444.66
778.789	14475.38
778.979	14393.47
779.169	14897.27
779.358	14575.73
779.548	14780.53
779.738	14352.51
779.927	14817.4
780.117	14534.78
780.307	14395.51
780.496	14219.39
780.686	14643.32
780.875	14958.71
781.065	14418.04
781.254	14422.14
781.444	14643.32
781.633	14712.95
781.823	14141.57
782.012	14133.37
782.202	14358.65
782.391	14438.52
782.581	14133.37
782.77	14248.06
782.96	14635.13
783.149	14334.07
783.338	14053.5
783.528	14080.13
783.717	14735.48
783.906	14686.33
784.096	14354.55
784.285	13938.82
784.474	14260.35
784.663	14133.37
784.853	14012.54
785.042	13918.34
785.231	14454.9
785.42	14422.14
785.61	14254.2
785.799	13779.08
785.988	14329.98
786.177	14262.4
786.366	14110.85
786.555	14223.48
786.744	14764.15
786.933	13996.16
787.122	13920.38
787.312	13959.3
787.501	13987.97
787.69	14162.05
787.879	14065.79
788.068	13779.08
788.257	13817.99
788.445	13928.58
788.634	13838.47
788.823	13832.32
789.012	14671.99
789.201	14434.43
789.39	13697.16
789.579	13688.96
789.768	14067.84
789.957	13873.28
790.145	13723.78
790.334	13541.51
790.523	13920.38
790.712	14213.24
790.9	13944.96
791.089	13697.16
791.278	14368.89
791.467	14033.02
791.655	13914.24
791.844	14561.4
792.033	13688.96
792.221	13764.74
792.41	13752.45
792.599	13447.3
792.787	14047.36
792.976	14071.93
793.164	13500.55
793.353	13621.38
793.541	13785.22
793.73	13983.87
793.918	13877.38
794.107	13613.19
794.295	13858.95
794.484	13801.6
794.672	13744.26
794.861	13426.82
795.049	14051.45
795.238	14354.55
795.426	13473.93
795.614	13502.6
795.803	13955.2
795.991	14205.05
796.179	13643.91
796.368	13502.6
796.556	14231.68
796.744	13500.55
796.932	13322.38
797.121	13639.81
797.309	13662.34
797.497	13912.19
797.685	13336.71
797.874	13645.96
798.062	13764.74
798.25	14162.05
798.438	13498.5
798.626	13494.41
798.814	13768.84
799.002	14172.29
799.19	13469.83
799.378	13547.65
799.566	13664.39
799.755	14071.93
799.943	13691.01
800.131	13349
800.318	13844.61
800.506	13813.89
800.694	13473.93
800.882	13277.32
801.07	14141.57
801.258	14004.35
801.446	13682.82
801.634	13285.51
801.822	13930.62
802.01	13947.01
802.197	13437.06
802.385	13803.65
802.573	13736.07
802.761	13459.59
802.949	13531.27
803.136	13617.29
803.324	14246.01
803.512	13908.1
803.699	13664.39
803.887	13410.44
804.075	14153.85
804.262	14022.78
804.45	13760.64
804.638	13768.84
804.825	13777.03
805.013	13703.3
805.201	13838.47
805.388	13426.82
805.576	13897.86
805.763	14651.51
805.951	13678.72
806.138	13897.86
806.326	14540.92
806.513	13928.58
806.701	13674.63
806.888	13793.41
807.075	14145.66
807.263	14715
807.45	13703.3
807.638	13979.78
807.825	14579.83
808.012	14256.25
808.2	13705.35
808.387	14149.76
808.574	14100.61
808.761	14710.9
808.949	13918.34
809.136	14209.15
809.323	14266.49
809.51	13959.3
809.698	14250.11
809.885	14080.13
810.072	14440.57
810.259	14401.66
810.446	13885.57
810.633	14043.26
810.82	14585.97
811.008	14780.53
811.195	14299.26
811.382	14422.14
811.569	14473.34
811.756	14030.98
811.943	14102.65
812.13	14143.61
812.317	14354.55
812.504	14248.06
812.691	14297.21
812.878	14422.14
813.064	14616.69
813.251	14508.15
813.438	14141.57
813.625	14162.05
813.812	14491.77
813.999	14444.66
814.186	14385.27
814.372	14174.33
814.559	14608.5
814.746	14557.3
814.933	14258.3
815.12	14342.27
815.306	14368.89
815.493	14123.13
815.68	14162.05
815.866	14108.8
816.053	14520.44
816.24	15007.86
816.426	14385.27
816.613	14174.33
816.799	14350.46
816.986	14866.55
817.173	14004.35
817.359	14131.33
817.546	14372.99
817.732	13860.99
817.919	13817.99
818.105	14184.57
818.292	14030.98
818.478	14469.24
818.665	14186.62
818.851	14104.7
819.037	15085.68
819.224	14471.29
819.41	13871.23
819.597	13817.99
819.783	14510.2
819.969	14706.8
820.156	13914.24
820.342	13934.72
820.528	15151.21
820.714	14530.68
820.901	14280.83
821.087	13938.82
821.273	14958.71
821.459	14284.92
821.646	13916.29
821.832	14018.69
822.018	14338.17
822.204	14246.01
822.39	13723.78
822.576	13721.73
822.762	14338.17
822.948	14297.21
823.134	14049.41
823.32	13715.59
823.507	13777.03
823.693	14325.88
823.879	14116.99
824.065	13822.08
824.25	13924.48
824.436	13910.15
824.622	13715.59
824.808	13930.62
824.994	14033.02
825.18	13693.06
825.366	13803.65
825.552	13461.64
825.738	13807.75
825.923	14477.43
826.109	14100.61
826.295	13684.87
826.481	13797.51
826.667	13785.22
826.852	13695.11
827.038	13555.85
827.224	14108.8
827.409	14135.42
827.595	13281.42
827.781	13709.44
827.966	14078.08
828.152	14043.26
828.338	13734.02
828.523	13398.15
828.709	13516.94
828.894	14268.54
829.08	13678.72
829.266	13418.63
829.451	13658.24
829.637	13932.67
829.822	13404.3
830.008	13535.37
830.193	14104.7
830.378	14092.41
830.564	13551.75
830.749	13428.87
830.935	13846.66
831.12	13697.16
831.305	13475.98
831.491	13367.43
831.676	13535.37
831.861	13899.91
832.047	13527.17
832.232	13271.18
832.417	13697.16
832.602	13539.46
832.788	13181.07
832.973	13314.19
833.158	13392.01
833.343	13240.46
833.528	13381.77
833.714	13160.59
833.899	13572.23
834.084	13832.32
834.269	13478.02
834.454	13222.03
834.639	13531.27
834.824	13330.57
835.009	13152.4
835.194	13359.24
835.379	13473.93
835.564	13469.83
835.749	13422.73
835.934	12931.22
836.119	13406.34
836.304	13387.91
836.489	13131.92
836.674	13316.23
836.859	13164.68
837.044	13611.14
837.228	13062.29
837.413	13068.43
837.598	13457.54
837.783	13461.64
837.968	13041.81
838.152	13027.47
838.337	12945.55
838.522	13344.91
838.707	13516.94
838.891	12959.89
839.076	13334.67
839.261	13305.99
839.445	12974.22
839.63	12867.73
839.815	13426.82
839.999	12918.93
840.184	12867.73
840.368	12824.72
840.553	13156.49
840.737	13146.25
840.922	12783.76
841.106	12626.07
841.291	12673.17
841.475	13095.05
841.66	12595.35
841.844	12628.12
842.029	13660.29
842.213	12535.96
842.397	12601.49
842.582	12490.9
842.766	12912.78
842.951	13023.37
843.135	12441.75
843.319	12687.51
843.504	12966.03
843.688	13056.14
843.872	12331.16
844.056	12689.56
844.241	12920.98
844.425	12675.22
844.609	12738.71
844.793	12353.69
844.977	13019.28
845.161	12949.65
845.346	12411.03
845.53	12189.85
845.714	12654.74
845.898	13160.59
846.082	12357.78
846.266	12495
846.45	12730.52
846.634	12548.25
846.818	12042.4
847.002	12574.87
847.186	12615.83
847.37	12212.38
847.554	12157.08
847.738	12370.07
847.922	12542.1
848.106	12648.6
848.29	12048.54
848.473	12177.56
848.657	12478.61
848.841	12578.97
849.025	12228.76
849.209	12019.87
849.392	12591.25
849.576	12497.05
849.76	11753.63
849.944	12408.98
850.127	12855.44
850.311	12095.64
850.495	11911.33
850.678	12159.13
850.862	12662.93
851.046	12585.11
851.229	12159.13
851.413	12060.83
851.596	12265.63
851.78	12124.32
851.964	12294.3
852.147	11903.14
852.331	12974.22
852.514	12683.41
852.698	11970.72
852.881	11663.52
853.065	12402.84
853.248	12089.5
853.431	12011.68
853.615	12091.55
853.798	12728.47
853.982	12343.45
854.165	12079.26
854.348	11753.63
854.532	11716.77
854.715	12120.22
854.898	11913.38
855.081	11573.41
855.265	12333.21
855.448	12515.48
855.631	11442.34
855.814	11659.43
855.997	12087.45
856.181	12196
856.364	11776.16
856.547	11395.24
856.73	11991.2
856.913	12017.82
857.096	11444.39
857.279	11817.12
857.462	11851.94
857.645	12302.49
857.828	11847.84
858.011	11747.49
858.194	11716.77
858.377	12060.83
858.56	11307.18
858.743	11638.95
858.926	11661.48
859.109	11731.11
859.292	11485.35
859.475	11419.82
859.658	12003.49
859.841	11974.81
860.023	11395.24
860.206	11313.32
860.389	11542.69
860.572	11974.81
860.755	11255.98
860.937	11348.14
861.12	11501.73
861.303	11638.95
861.486	11294.89
861.668	11303.08
861.851	11692.19
862.034	11647.14
862.216	11188.39
862.399	10973.36
862.581	11294.89
862.764	11923.62
862.947	11307.18
863.129	11112.62
863.312	11020.46
863.494	11620.52
863.677	11376.81
863.859	10868.91
864.042	11565.22
864.224	11745.44
864.406	11229.35
864.589	10614.96
864.771	11350.18
864.954	11114.67
865.136	10832.05
865.318	10743.99
865.501	11075.76
865.683	10883.25
865.865	10985.65
866.048	10905.77
866.23	11200.68
866.412	11126.96
866.594	10778.8
866.777	10856.62
866.959	11086
867.141	10940.59
867.323	11026.61
867.505	10844.34
867.687	11042.99
867.869	10920.11
868.052	10827.95
868.234	10748.08
868.416	11174.06
868.598	11260.07
868.78	10891.44
868.962	10803.38
869.144	11315.37
869.326	11133.1
869.508	10492.09
869.69	10627.25
869.872	10856.62
870.054	11217.07
870.236	10416.31
870.417	10680.5
870.599	10870.96
870.781	11409.58
870.963	10889.39
871.145	10434.74
871.327	10520.76
871.508	11049.13
871.69	10592.44
871.872	10657.97
872.054	11102.38
872.235	10946.73
872.417	10647.73
872.599	10547.38
872.78	11511.97
872.962	11045.04
873.144	10477.75
873.325	10725.55
873.507	11327.66
873.689	11067.56
873.87	10535.09
874.052	10834.1
874.233	10713.27
874.415	11112.62
874.596	10776.75
874.778	10545.33
874.959	10950.83
875.141	11235.5
875.322	10508.47
875.503	10578.1
875.685	11165.87
875.866	10381.49
876.048	10823.86
876.229	10477.75
876.41	10795.18
876.592	11110.57
876.773	10754.23
876.954	10389.69
877.136	11227.31
877.317	10690.74
877.498	10643.63
877.679	10795.18
877.86	11090.09
878.042	10887.34
878.223	10586.29
878.404	10979.5
878.585	11231.4
878.766	11468.97
878.947	11264.17
879.128	11268.27
879.309	11129
879.49	11190.44
879.672	10815.66
879.853	10827.95
880.034	10700.98
880.215	10903.73
880.396	10893.49
880.576	10866.86
880.757	10889.39
880.938	11511.97
881.119	10936.49
881.3	10735.79
881.481	11241.64
881.662	12282.01
881.843	10811.57
882.023	10782.9
882.204	11362.47
882.385	11212.97
882.566	10803.38
882.747	10983.6
882.927	11311.27
883.108	11331.75
883.289	10975.41
883.469	11344.04
883.65	11354.28
883.831	11446.44
884.011	11309.22
884.192	11167.91
884.373	11792.55
884.553	11636.9
884.734	11208.87
884.914	11655.33
885.095	11972.77
885.275	11995.29
885.456	11579.56
885.636	11225.26
885.817	11458.73
885.997	11557.03
886.178	11081.9
886.358	11534.5
886.538	11686.05
886.719	12544.15
886.899	11153.58
887.08	11538.6
887.26	11913.38
887.44	11403.43
887.621	11358.38
887.801	11575.46
887.981	12468.38
888.161	11856.03
888.342	11520.17
888.522	11647.14
888.702	11940
888.882	12216.47
889.062	11571.36
889.242	11499.69
889.423	12056.73
889.603	11917.47
889.783	11796.64
889.963	11438.25
890.143	12200.09
890.323	12011.68
890.503	11528.36
890.683	11872.42
890.863	11765.92
891.043	11929.76
891.223	11583.65
891.403	11909.28
891.583	11993.25
891.763	12167.32
891.943	11831.46
892.122	11696.29
892.302	11925.66
892.482	11917.47
892.662	11860.13
892.842	11587.75
893.022	12069.02
893.201	11753.63
893.381	11843.74
893.561	11702.43
893.741	12193.95
893.92	12208.28
894.1	11745.44
894.28	11925.66
894.459	12112.03
894.639	12142.75
894.819	11788.45
894.998	11985.05
895.178	11980.96
895.357	12200.09
895.537	11718.82
895.716	11524.26
895.896	12007.58
896.075	12087.45
896.255	11786.4
896.434	11614.37
896.614	12187.8
896.793	12365.98
896.973	11935.9
897.152	11528.36
897.331	12165.28
897.511	12005.53
897.69	11489.45
897.87	11561.12
898.049	12140.7
898.228	11876.51
898.407	11698.34
898.587	11653.28
898.766	11624.61
898.945	11931.81
899.124	11856.03
899.304	11810.98
899.483	11743.39
899.662	12193.95
899.841	11417.77
900.02	11491.49
900.199	12206.24
900.378	11983.01
900.557	11651.24
900.737	11528.36
900.916	11974.81
901.095	11792.55
901.274	11655.33
901.453	11301.03
901.632	11647.14
901.811	11657.38
901.989	11290.79
902.168	11151.53
902.347	11940
902.526	11440.29
902.705	11315.37
902.884	11608.23
903.063	12157.08
903.242	11757.73
903.42	11126.96
903.599	11581.6
903.778	11862.18
903.957	12140.7
904.135	11536.55
904.314	11368.62
904.493	11569.32
904.672	11794.59
904.85	11036.84
905.029	11094.19
905.207	11522.21
905.386	12011.68
905.565	11223.21
905.743	11106.48
905.922	11186.35
906.1	11491.49
906.279	11188.39
906.457	11217.07
906.636	11212.97
906.814	11518.12
906.993	10897.58
907.171	11313.32
907.35	11434.15
907.528	11415.72
907.707	11212.97
907.885	10995.89
908.063	11645.09
908.242	10963.12
908.42	11008.17
908.598	10653.87
908.777	11307.18
908.955	11184.3
909.133	10842.29
909.311	10811.57
909.49	11006.13
909.668	10825.9
909.846	10868.91
910.024	10660.02
910.202	11028.65
910.38	10979.5
910.559	10608.82
910.737	10404.02
910.915	11096.24
911.093	10969.26
911.271	10668.21
911.449	10746.03
911.627	10901.68
911.805	11450.53
911.983	10440.89
912.161	10514.61
912.339	10909.87
912.517	11208.87
912.695	10660.02
912.872	10397.88
913.05	10610.87
913.228	10793.14
913.406	10328.25
913.584	10385.59
913.762	10676.4
913.939	10574
914.117	10203.32
914.295	9871.55
914.473	10723.51
914.65	10635.44
914.828	10092.73
915.006	9945.28
915.184	10164.41
915.361	10401.97
915.539	10322.1
915.716	10320.06
915.894	10330.3
916.072	10428.6
916.249	10139.83
916.427	10227.9
916.604	9969.85
916.782	10315.96
916.959	9797.82
917.137	9867.45
917.314	10254.52
917.492	10377.4
917.669	10076.35
917.847	9859.26
918.024	10229.95
918.201	9754.82
918.379	9926.85
918.556	9691.33
918.733	10221.75
918.911	9648.32
919.088	9740.48
919.265	9521.35
919.442	9789.63
919.62	9658.56
919.797	9416.9
919.974	9294.02
920.151	9898.17
920.328	9687.23
920.506	9240.78
920.683	9646.27
920.86	9398.47
921.037	9365.7
921.214	9367.75
921.391	9083.08
921.568	9750.72
921.745	9496.77
921.922	9412.81
922.099	9238.73
922.276	9803.97
922.453	9355.46
922.63	9052.36
922.807	9447.62
922.984	9539.78
923.161	9070.79
923.338	9072.84
923.514	8771.79
923.691	9238.73
923.868	9345.22
924.045	8739.02
924.222	8720.59
924.399	9216.2
924.575	9427.14
924.752	8696.02
924.929	8757.46
925.105	9101.51
925.282	8739.02
925.459	8536.28
925.635	8665.3
925.812	8689.87
925.989	8816.85
926.165	8900.81
926.342	8345.81
926.518	8440.02
926.695	8599.76
926.871	8589.52
927.048	8249.56
927.224	8825.04
927.401	8354.01
927.577	8480.98
927.754	8173.78
927.93	8710.35
928.107	8595.67
928.283	7993.56
928.459	8220.89
928.636	8399.06
928.812	8366.29
928.988	7952.6
929.165	8157.4
929.341	8255.7
929.517	8276.18
929.693	8202.46
929.87	7536.87
930.046	8300.76
930.222	7680.22
930.398	7751.9
930.574	7885.02
930.751	7991.52
930.927	7725.28
931.103	7794.91
931.279	7526.63
931.455	7649.5
931.631	7737.57
931.807	7325.93
931.983	7307.49
932.159	7235.81
932.335	7649.5
932.511	7395.56
932.687	7223.53
932.863	7579.87
933.039	7373.03
933.215	7000.3
933.391	6930.67
933.566	7362.79
933.742	7215.34
933.918	7076.07
934.094	6689.01
934.27	7074.03
934.445	7155.94
934.621	7051.5
934.797	6514.93
934.973	6893.8
935.148	6809.84
935.324	6373.62
935.5	6125.82
935.675	6850.8
935.851	6605.04
936.027	6174.97
936.202	6146.3
936.378	6459.63
936.553	6129.91
936.729	6332.66
936.904	5746.94
937.08	5835
937.255	5648.64
937.431	5462.27
937.606	5196.04
937.782	5585.15
937.957	5570.82
938.133	5150.98
938.308	5173.51
938.483	5357.83
938.659	5028.1
938.834	5118.22
939.009	4856.08
939.185	4983.05
939.36	4882.7
939.535	4348.18
939.71	4743.44
939.886	5060.87
940.061	4884.75
940.236	4612.37
940.411	4475.15
940.586	4636.94
940.761	4860.17
940.937	4282.64
941.112	4239.64
941.287	4610.32
941.462	4364.56
941.637	4055.32
941.812	4086.04
941.987	4430.1
942.162	4323.6
942.337	3985.69
942.512	3731.74
942.687	4385.04
942.862	4288.79
943.037	3807.52
943.212	3633.44
943.386	3848.47
943.561	4028.7
943.736	3881.24
943.911	4030.74
944.086	4110.61
944.26	4061.46
944.435	3746.08
944.61	3772.7
944.785	4282.64
944.959	4444.43
945.134	3639.58
945.309	3612.96
945.483	3649.82
945.658	4081.94
945.833	3330.34
946.007	3459.36
946.182	4266.26
946.357	3610.91
946.531	3463.46
946.706	3574.05
946.88	3655.97
947.055	3844.38
947.229	3623.2
947.404	3559.71
947.578	4077.85
947.752	3836.19
947.927	3422.5
948.101	3543.33
948.276	3782.94
948.45	3967.26
948.624	3760.41
948.799	3719.45
948.973	3971.35
949.147	3549.47
949.321	3674.4
949.496	3492.13
949.67	4075.8
949.844	3899.67
950.018	3549.47
950.193	3649.82
950.367	4344.08
950.541	3862.81
950.715	3782.94
950.889	3799.32
951.063	3893.53
951.237	4118.81
951.411	3516.7
951.585	3580.19
951.759	3944.73
951.933	3774.75
952.107	3549.47
952.281	3731.74
952.455	4274.45
952.629	3848.47
952.803	3582.24
952.977	3684.64
953.151	3991.83
953.325	3946.78
953.499	3717.4
953.672	3475.74
953.846	3598.62
954.02	3770.65
954.194	3465.5
954.368	3572
954.541	4088.09
954.715	3744.03
954.889	3733.79
955.062	3506.46
955.236	3836.19
955.41	3729.69
955.583	3660.06
955.757	3389.73
955.93	3600.67
956.104	3658.01
956.278	3596.57
956.451	3524.9
956.625	3864.86
956.798	4239.64
956.972	3805.47
957.145	3590.43
957.319	3766.56
957.492	3754.27
957.665	3739.93
957.839	3408.16
958.012	3942.68
958.185	3635.49
958.359	3485.98
958.532	3758.36
958.705	3901.72
958.879	3733.79
959.052	3572
959.225	3410.21
959.398	3713.31
959.572	3698.97
959.745	3449.12
959.918	3557.66
960.091	3543.33
960.264	3883.29
960.438	3356.96
960.611	3387.68
960.784	3770.65
960.957	3662.11
961.13	3793.18
961.303	3463.46
961.476	3721.5
961.649	3664.16
961.822	3295.52
961.995	3369.25
962.168	3746.08
962.341	3502.37
962.514	3375.39
962.686	3428.64
962.859	3684.64
963.032	3827.99
963.205	3359.01
963.378	3141.93
963.551	3692.83
963.723	3621.15
963.896	3526.94
964.069	3549.47
964.242	3658.01
964.414	3789.08
964.587	3391.78
964.76	3391.78
964.932	3555.62
965.105	3463.46
965.278	3420.45
965.45	3205.41
965.623	3565.85
965.795	3711.26
965.968	3342.63
966.14	3266.85
966.313	3442.98
966.485	3604.77
966.658	3234.08
966.83	3270.95
967.003	3682.59
967.175	3713.31
967.348	3373.35
967.52	3166.5
967.692	4032.79
967.865	3547.42
968.037	3250.47
968.209	3557.66
968.382	3594.53
968.554	3653.92
968.726	3340.58
968.898	3270.95
969.071	3447.07
969.243	3584.29
969.415	3260.71
969.587	3242.28
969.759	3871
969.932	3565.85
970.104	3191.08
970.276	2867.5
970.448	3348.77
970.62	3211.56
970.792	3268.9
970.964	3338.53
971.136	3729.69
971.308	3528.99
971.48	3064.1
971.652	3238.18
971.824	3811.61
971.996	3309.86
972.168	3242.28
972.339	3146.02
972.511	3561.76
972.683	3299.62
972.855	3387.68
973.027	3123.49
973.199	3379.49
973.37	3475.74
973.542	3213.6
973.714	3242.28
973.886	3332.39
974.057	3588.38
974.229	2967.85
974.401	3154.21
974.572	3014.95
974.744	2810.15
974.915	3070.25
975.087	3023.14
975.259	3526.94
975.43	3135.78
975.602	3049.77
975.773	2857.26
975.945	3211.56
976.116	3135.78
976.288	3062.05
976.459	3086.63
976.63	3090.73
976.802	3242.28
976.973	3045.67
977.145	3023.14
977.316	3578.14
977.487	3518.75
977.659	3078.44
977.83	2969.9
978.001	3447.07
978.172	3158.31
978.344	2918.7
978.515	2898.22
978.686	3041.57
978.857	3373.35
979.028	2820.39
979.2	2726.19
979.371	3336.48
979.542	2959.66
979.713	2875.69
979.884	2492.72
980.055	2967.85
980.226	3064.1
980.397	2718
980.568	2685.23
980.739	3270.95
980.91	3037.48
981.081	2982.18
981.252	2896.17
981.423	3123.49
981.594	3207.46
981.765	2767.15
981.936	2836.78
982.106	3062.05
982.277	3273
982.448	2744.62
982.619	2785.58
982.79	2818.35
982.96	3209.51
983.131	2918.7
983.302	2353.46
983.472	2847.02
983.643	2939.18
983.814	2779.43
983.984	2679.08
984.155	2781.48
984.326	3137.83
984.496	2730.28
984.667	2685.23
984.837	2787.63
985.008	3121.45
985.178	2695.47
985.349	2812.2
985.519	2937.13
985.69	2726.19
985.86	2664.75
986.031	2433.33
986.201	2984.23
986.371	3072.29
986.542	2490.67
986.712	2345.27
986.882	2910.5
987.053	3019.05
987.223	2472.24
987.393	2722.09
987.563	2736.43
987.734	2963.75
987.904	2857.26
988.074	2568.49
988.244	2812.2
988.414	2695.47
988.585	2560.3
988.755	2584.88
988.925	2638.13
989.095	3103.01
989.265	2335.03
989.435	2619.69
989.605	2756.91
989.775	2836.78
989.945	2765.1
990.115	2335.03
990.285	2648.36
990.455	2738.48
990.625	2527.53
990.795	2263.35
990.965	2820.39
991.134	2531.63
991.304	2343.22
991.474	2437.42
991.644	2713.9
991.814	3103.01
991.984	2281.78
992.153	2251.06
992.323	2705.71
992.493	2736.43
992.662	2191.67
992.832	2550.06
993.002	2652.46
993.171	2713.9
993.341	2271.54
993.511	2470.19
993.68	2353.46
993.85	2758.96
994.019	2056.5
994.189	2119.99
994.358	2646.32
994.528	2441.52
994.697	2040.12
994.867	2134.32
995.036	2689.32
995.206	2343.22
995.375	2249.01
995.544	2390.32
995.714	2562.35
995.883	2414.9
996.052	2416.94
996.222	2027.83
996.391	2986.28
996.56	2480.43
996.73	2068.79
996.899	2050.36
997.068	2758.96
997.237	2451.76
997.406	1964.34
997.576	1960.25
997.745	2347.31
997.914	2500.91
998.083	1904.95
998.252	2218.29
998.421	2392.37
998.59	2259.25
998.759	1945.91
998.928	1966.39
999.097	2603.31
999.266	2349.36
999.435	2109.75
999.604	1853.75
999.773	2777.39
999.942	2300.21
1000.111	1894.71
1000.28	1812.79
1000.448	2052.41
1000.617	2048.31
1000.786	2181.43
1000.955	1900.86
1001.124	2414.9
1001.292	2969.9
1001.461	1947.96
1001.63	1837.37
1001.798	2537.77
1001.967	2416.94
1002.136	1868.09
1002.304	1851.71
1002.473	2267.44
1002.642	2171.19
1002.81	1974.58
1002.979	1898.81
1003.147	2300.21
1003.316	2775.34
1003.484	1808.7
1003.653	1782.07
1003.821	2396.46
1003.99	2177.33
1004.158	2027.83
1004.327	1907
1004.495	2212.15
1004.663	1841.47
1004.832	1968.44
1005	1745.21
1005.168	2206
1005.337	2169.14
1005.505	1655.1
1005.673	1941.82
1005.842	2324.79
1006.01	2275.63
1006.178	1665.34
1006.346	1769.79
1006.514	2140.47
1006.683	2251.06
1006.851	1485.12
1007.019	1509.69
1007.187	1669.44
1007.355	1554.75
1007.523	1476.93
1007.691	1597.76
1007.859	1726.78
1008.027	2222.39
1008.195	1603.9
1008.363	1474.88
1008.531	2177.33
1008.699	1704.25
1008.867	1483.07
1009.035	1597.76
1009.203	2128.18
1009.37	1952.06
1009.538	1530.17
1009.706	1972.54
1009.874	1995.06
1010.042	1833.27
1010.209	1489.21
1010.377	1495.36
1010.545	2105.65
1010.713	1968.44
1010.88	1532.22
1011.048	1599.8
1011.216	1759.55
1011.383	2115.89
1011.551	1466.69
1011.718	1546.56
1011.886	2099.51
1012.054	1859.9
1012.221	1454.4
1012.389	1487.17
1012.556	1734.97
1012.724	2312.5
1012.891	1536.32
1013.058	1261.89
1013.226	2083.13
1013.393	1935.67
1013.561	1313.09
1013.728	1399.1
1013.895	1931.58
1014.063	1947.96
1014.23	1288.51
1014.397	1325.38
1014.565	1972.54
1014.732	1769.79
1014.899	1272.13
1015.066	1345.86
1015.233	1794.36
1015.401	1866.04
1015.568	1435.97
1015.735	1376.58
1015.902	1646.91
1016.069	1728.83
1016.236	1347.9
1016.403	1308.99
1016.57	1491.26
1016.737	1857.85
1016.904	1374.53
1017.071	1194.31
1017.238	1472.83
1017.405	1829.18
1017.572	1208.64
1017.739	1468.73
1017.906	1870.14
1018.073	1706.3
1018.24	1104.2
1018.407	1202.5
1018.573	1851.71
1018.74	1583.42
1018.907	1339.71
1019.074	1063.24
1019.241	1788.22
1019.407	1659.2
1019.574	1208.64
1019.741	1165.64
1019.907	1694.01
1020.074	1603.9
1020.241	969.03
1020.407	1147.2
1020.574	1612.09
1020.74	1679.68
1020.907	1169.73
1021.073	1147.2
1021.24	2074.93
1021.406	1874.23
1021.573	1089.86
1021.739	1149.25
1021.906	1669.44
1022.072	1403.2
1022.239	1141.06
1022.405	1120.58
1022.571	1456.45
1022.738	1352
1022.904	1157.44
1023.07	1083.72
1023.237	1554.75
1023.403	1655.1
1023.569	1063.24
1023.735	1073.48
1023.902	1470.78
1024.068	1454.4
1024.234	981.32
1024.4	1001.8
1024.566	1491.26
1024.732	1558.85
1024.898	942.41
1025.065	846.15
1025.231	1521.98
1025.397	1251.65
1025.563	1009.99
1025.729	952.65
1025.895	821.58
1026.061	1165.64
1026.227	762.19
1026.392	977.22
1026.558	1620.28
1026.724	1399.1
1026.89	895.3
1027.056	1009.99
1027.222	1491.26
1027.388	1186.12
1027.553	854.34
1027.719	995.65
1027.885	1638.72
1028.051	1464.64
1028.216	770.38
1028.382	932.17
1028.548	1352
1028.713	1218.88
1028.879	866.63
1029.045	1014.09
1029.21	1567.04
1029.376	1528.13
1029.541	907.59
1029.707	876.87
1029.873	1435.97
1030.038	1458.5
1030.204	850.25
1030.369	878.92
1030.534	1407.3
1030.7	1100.1
1030.865	870.73
1031.031	809.29
1031.196	1259.84
1031.361	1288.51
1031.527	850.25
1031.692	809.29
1031.857	747.85
1032.023	1270.08
1032.188	684.36
1032.353	854.34
1032.518	1501.5
1032.684	1233.22
1032.849	682.31
1033.014	827.72
1033.179	1325.38
1033.344	1311.04
1033.509	872.78
1033.674	715.08
1033.839	1302.85
1034.004	1399.1
1034.17	747.85
1034.335	645.45
1034.5	1134.92
1034.664	878.92
1034.829	735.56
1034.994	768.33
1035.159	1143.11
1035.324	1192.26
1035.489	751.95
1035.654	674.12
1035.819	1442.11
1035.984	1130.82
1036.148	702.79
1036.313	817.48
1036.478	1382.72
1036.643	1104.2
1036.807	657.74
1036.972	637.26
1037.137	1343.81
1037.301	1085.76
1037.466	481.61
1037.631	747.85
1037.795	1225.03
1037.96	1128.77
1038.124	878.92
1038.289	477.52
1038.454	1116.48
1038.618	1165.64
1038.783	706.89
1038.947	749.9
1039.111	1069.38
1039.276	948.55
1039.44	547.15
1039.605	1028.42
1039.769	885.06
1039.933	991.56
1040.098	682.31
1040.262	874.82
1040.426	1216.83
1040.591	1196.36
1040.755	461.13
1040.919	534.86
1041.083	1096
1041.248	880.97
1041.412	477.52
1041.576	536.91
1041.74	995.65
1041.904	1075.52
1042.068	508.24
1042.232	633.16
1042.397	1120.58
1042.561	946.5
1042.725	358.74
1042.889	784.71
1043.053	1089.86
1043.217	962.89
1043.381	608.59
1043.544	414.03
1043.708	1136.96
1043.872	694.6
1044.036	268.63
1044.2	356.69
1044.364	1075.52
1044.528	1263.94
1044.691	3803.42
1044.855	450.89
1045.019	1009.99
1045.183	942.41
1045.346	495.95
1045.51	471.37
1045.674	940.36
1045.837	1038.66
1046.001	436.56
1046.165	438.61
1046.328	1286.47
1046.492	991.56
1046.655	688.46
1046.819	516.43
1046.983	694.6
1047.146	911.69
1047.31	604.49
1047.473	221.52
1047.636	739.66
1047.8	751.95
1047.963	459.09
1048.127	391.5
1048.29	657.74
