Data from Ink_Intensity_USB4F045381__164__00164.txt Node

Date: Mon Jul 17 11:34:42 EDT 2023
User: mmckonesweet
Spectrometer: USB4F04538
Trigger mode: 4
Integration Time (sec): 9.000000E-1
Scans to average: 1
Electric dark correction enabled: true
Nonlinearity correction enabled: false
Boxcar width: 0
XAxis mode: Wavelengths
Number of Pixels in Spectrum: 3648
>>>>>Begin Spectral Data<<<<<
345.52	-984.56
345.736	-984.56
345.952	-984.56
346.168	-992.75
346.384	-972.27
346.6	-157.18
346.816	-255.48
347.032	-171.52
347.248	223.74
347.464	-171.52
347.68	-58.88
347.896	115.2
348.112	307.71
348.328	-71.17
348.544	-36.35
348.76	12.8
348.975	262.65
349.191	-275.96
349.407	-132.61
349.623	25.09
349.839	-54.78
350.055	-124.41
350.27	39.42
350.486	217.6
350.702	285.18
350.918	291.32
351.133	-210.43
351.349	162.3
351.565	375.29
351.781	-247.29
351.996	-42.5
352.212	289.28
352.428	-91.65
352.644	-165.37
352.859	-228.86
353.075	264.7
353.291	88.57
353.506	-165.37
353.722	-192
353.938	-50.69
354.153	455.16
354.369	141.82
354.584	-241.15
354.8	272.89
355.016	-378.36
355.231	-292.35
355.447	-46.59
355.662	84.48
355.878	817.65
356.093	-374.27
356.309	-112.13
356.524	-230.91
356.74	240.12
356.955	-163.33
357.171	-75.26
357.386	88.57
357.602	-216.57
357.817	-38.4
358.033	-206.33
358.248	346.62
358.464	84.48
358.679	-124.41
358.895	-359.93
359.11	4.61
359.325	268.8
359.541	57.86
359.756	49.66
359.972	-269.82
360.187	197.12
360.402	-171.52
360.618	-136.7
360.833	989.68
361.048	145.92
361.264	-220.67
361.479	-15.87
361.694	18.94
361.909	180.73
362.125	-206.33
362.34	-67.07
362.555	256.51
362.77	74.24
362.986	-329.21
363.201	-202.24
363.416	168.45
363.631	-1.54
363.847	-255.48
364.062	-171.52
364.277	217.6
364.492	100.86
364.707	-185.85
364.922	-402.94
365.138	256.51
365.353	365.05
365.568	-269.82
365.783	-38.4
365.998	29.18
366.213	537.08
366.428	-275.96
366.643	84.48
366.858	227.84
367.073	141.82
367.288	-146.94
367.503	-325.12
367.718	113.15
367.933	311.8
368.148	-255.48
368.363	-153.09
368.578	-19.97
368.793	446.97
369.008	-155.13
369.223	-261.63
369.438	199.16
369.653	371.19
369.868	-185.85
370.083	-222.72
370.298	125.44
370.513	305.66
370.728	-3.58
370.943	-198.14
371.157	-161.28
371.372	483.83
371.587	-247.29
371.802	-253.44
372.017	64
372.232	363
372.446	18.94
372.661	-284.16
372.876	219.64
373.091	139.77
373.306	-103.93
373.52	-267.77
373.735	-200.19
373.95	383.48
374.165	-58.88
374.379	-159.23
374.594	-118.27
374.809	109.05
375.023	150.01
375.238	-226.81
375.453	270.84
375.667	-282.11
375.882	-81.41
376.097	-220.67
376.311	-38.4
376.526	-44.54
376.741	-232.96
376.955	84.48
377.17	592.37
377.384	481.78
377.599	-52.74
377.813	-341.5
378.028	563.7
378.242	170.49
378.457	-46.59
378.672	-402.94
378.886	168.45
379.101	88.57
379.315	-294.4
379.53	-124.41
379.744	158.21
379.958	92.67
380.173	-167.42
380.387	-153.09
380.602	121.34
380.816	-120.32
381.031	-185.85
381.245	-212.48
381.459	250.36
381.674	2671.06
381.888	-185.85
382.103	125.44
382.317	-177.66
382.531	481.78
382.746	-50.69
382.96	-196.09
383.174	-52.74
383.388	477.69
383.603	90.62
383.817	-310.78
384.031	119.29
384.246	469.5
384.46	-38.4
384.674	377.34
384.888	55.81
385.103	78.33
385.317	-271.87
385.531	-146.94
385.745	350.71
385.959	272.89
386.174	-206.33
386.388	-288.25
386.602	47.62
386.816	-97.79
387.03	-124.41
387.244	-120.32
387.458	141.82
387.672	336.38
387.887	-312.83
388.101	-361.98
388.315	383.48
388.529	137.73
388.743	-142.85
388.957	-247.29
389.171	387.58
389.385	-251.39
389.599	-138.75
389.813	45.57
390.027	133.63
390.241	633.33
390.455	-155.13
390.669	-161.28
390.883	-112.13
391.097	340.47
391.311	100.86
391.525	-216.57
391.738	162.3
391.952	176.64
392.166	-79.36
392.38	-226.81
392.594	262.65
392.808	348.67
393.022	-83.45
393.236	-103.93
393.449	141.82
393.663	211.45
393.877	-329.21
394.091	-128.51
394.305	-99.84
394.518	-144.89
394.732	-278.01
394.946	-146.94
395.16	399.87
395.373	47.62
395.587	-286.2
395.801	-218.62
396.015	270.84
396.228	203.26
396.442	-304.64
396.656	-439.8
396.869	281.08
397.083	440.83
397.297	-54.78
397.51	-112.13
397.724	403.96
397.938	113.15
398.151	-394.75
398.365	-349.69
398.578	211.45
398.792	403.96
399.005	-108.03
399.219	-173.57
399.433	203.26
399.646	223.74
399.86	18.94
400.073	55.81
400.287	242.17
400.5	-28.16
400.714	-65.02
400.927	-24.06
401.141	184.83
401.354	1186.29
401.567	100.86
401.781	-181.76
401.994	268.8
402.208	528.89
402.421	-87.55
402.635	-79.36
402.848	35.33
403.061	266.75
403.275	-75.26
403.488	-259.58
403.701	455.16
403.915	258.56
404.128	31.23
404.341	-218.62
404.555	195.07
404.768	-34.3
404.981	4.61
405.195	-198.14
405.408	496.12
405.621	182.78
405.834	-11.78
406.048	-296.44
406.261	438.78
406.474	426.49
406.687	-232.96
406.9	-93.69
407.114	25.09
407.327	119.29
407.54	-390.65
407.753	-335.35
407.966	-60.93
408.179	236.03
408.392	-210.43
408.605	-329.21
408.819	135.68
409.032	162.3
409.245	-169.47
409.458	-46.59
409.671	219.64
409.884	279.04
410.097	-316.92
410.31	27.14
410.523	205.31
410.736	6.66
410.949	-67.07
411.162	-89.6
411.375	475.64
411.588	209.4
411.801	39.42
412.014	-249.34
412.227	18.94
412.44	-124.41
412.653	-226.81
412.865	4.61
413.078	193.02
413.291	195.07
413.504	-112.13
413.717	-251.39
413.93	297.47
414.143	-173.57
414.356	-142.85
414.568	-321.02
414.781	297.47
414.994	174.59
415.207	-128.51
415.42	-103.93
415.632	244.22
415.845	518.65
416.058	-290.3
416.271	-259.58
416.483	-22.02
416.696	477.69
416.909	-159.23
417.121	-163.33
417.334	166.4
417.547	502.26
417.759	-263.68
417.972	-218.62
418.185	-112.13
418.397	289.28
418.61	-142.85
418.823	-235
419.035	469.5
419.248	125.44
419.46	-79.36
419.673	-85.5
419.885	164.35
420.098	47.62
420.311	-185.85
420.523	-429.56
420.736	262.65
420.948	139.77
421.161	-212.48
421.373	-337.4
421.586	111.1
421.798	-155.13
422.01	-308.73
422.223	-67.07
422.435	-95.74
422.648	86.53
422.86	-169.47
423.073	-243.2
423.285	274.94
423.497	-298.49
423.71	-194.05
423.922	-275.96
424.134	45.57
424.347	436.73
424.559	-13.82
424.771	90.62
424.984	-26.11
425.196	199.16
425.408	-402.94
425.621	-357.88
425.833	313.85
426.045	354.81
426.257	-226.81
426.47	-239.1
426.682	186.88
426.894	158.21
427.106	-153.09
427.318	-120.32
427.531	-128.51
427.743	281.08
427.955	-210.43
428.167	203.26
428.379	215.55
428.591	-81.41
428.804	-89.6
429.016	-235
429.228	-28.16
429.44	102.91
429.652	121.34
429.864	-341.5
430.076	-32.26
430.288	-132.61
430.5	-83.45
430.712	-87.55
430.924	252.41
431.136	104.96
431.348	-345.59
431.56	-173.57
431.772	51.71
431.984	-97.79
432.196	-218.62
432.408	-296.44
432.62	-71.17
432.832	135.68
433.044	129.53
433.256	-91.65
433.468	170.49
433.679	-275.96
433.891	-316.92
434.103	-3.58
434.315	379.39
434.527	150.01
434.739	-62.98
434.95	-179.71
435.162	217.6
435.374	-148.99
435.586	-75.26
435.798	-232.96
436.009	-161.28
436.221	-46.59
436.433	-112.13
436.645	-124.41
436.856	-79.36
437.068	229.88
437.28	-306.68
437.491	141.82
437.703	117.25
437.915	143.87
438.126	-187.9
438.338	51.71
438.55	-105.98
438.761	184.83
438.973	-183.81
439.184	-153.09
439.396	-9.73
439.608	262.65
439.819	-267.77
440.031	-134.65
440.242	197.12
440.454	166.4
440.665	-235
440.877	-40.45
441.088	215.55
441.3	-7.68
441.511	-341.5
441.723	-220.67
441.934	68.09
442.146	127.49
442.357	-32.26
442.569	43.52
442.78	211.45
442.991	436.73
443.203	55.81
443.414	-253.44
443.626	338.43
443.837	-185.85
444.048	-278.01
444.26	-296.44
444.471	123.39
444.682	289.28
444.894	-337.4
445.105	-294.4
445.316	365.05
445.528	168.45
445.739	-181.76
445.95	-110.08
446.161	68.09
446.373	264.7
446.584	-230.91
446.795	-222.72
447.006	127.49
447.217	457.21
447.429	-382.46
447.64	-325.12
447.851	322.04
448.062	-34.3
448.273	-398.84
448.484	-198.14
448.695	217.6
448.907	-9.73
449.118	-198.14
449.329	25.09
449.54	-163.33
449.751	-169.47
449.962	-157.18
450.173	-212.48
450.384	313.85
450.595	424.44
450.806	-275.96
451.017	-159.23
451.228	342.52
451.439	303.61
451.65	-212.48
451.861	-407.03
452.072	-218.62
452.283	4.61
452.494	8.7
452.705	-232.96
452.915	453.11
453.126	129.53
453.337	-161.28
453.548	-144.89
453.759	281.08
453.97	610.81
454.181	51.71
454.391	-128.51
454.602	29.18
454.813	219.64
455.024	-196.09
455.235	-218.62
455.445	162.3
455.656	121.34
455.867	-42.5
456.078	-194.05
456.288	-103.93
456.499	166.4
456.71	-282.11
456.921	88.57
457.131	203.26
457.342	115.2
457.553	-159.23
457.763	-202.24
457.974	229.88
458.184	186.88
458.395	-247.29
458.606	-351.74
458.816	346.62
459.027	535.03
459.237	-54.78
459.448	-333.31
459.659	276.99
459.869	553.46
460.08	-357.88
460.29	-5.63
460.501	510.46
460.711	-202.24
460.922	-308.73
461.132	-202.24
461.343	664.05
461.553	-312.83
461.764	-214.52
461.974	-189.95
462.184	215.55
462.395	96.77
462.605	-202.24
462.816	-316.92
463.026	70.14
463.236	328.19
463.447	-349.69
463.657	-210.43
463.867	182.78
464.078	16.9
464.288	-134.65
464.498	-265.72
464.709	12.8
464.919	-9.73
465.129	-134.65
465.339	-392.7
465.55	127.49
465.76	193.02
465.97	-128.51
466.18	-275.96
466.391	178.69
466.601	109.05
466.811	-200.19
467.021	-398.84
467.231	154.11
467.441	428.54
467.651	-228.86
467.862	-437.75
468.072	-34.3
468.282	307.71
468.492	-298.49
468.702	-194.05
468.912	-3.58
469.122	606.71
469.332	51.71
469.542	-273.92
469.752	141.82
469.962	66.05
470.172	-339.45
470.382	-286.2
470.592	203.26
470.802	252.41
471.012	-67.07
471.222	-273.92
471.432	227.84
471.642	248.32
471.852	-77.31
472.062	-204.28
472.272	6.66
472.482	-337.4
472.691	-302.59
472.901	-366.07
473.111	119.29
473.321	545.27
473.531	-376.31
473.741	-167.42
473.95	131.58
474.16	115.2
474.37	-189.95
474.58	-312.83
474.79	489.98
474.999	158.21
475.209	-284.16
475.419	-259.58
475.628	-22.02
475.838	289.28
476.048	-204.28
476.258	-304.64
476.467	387.58
476.677	-126.46
476.886	20.99
477.096	-192
477.306	-126.46
477.515	330.23
477.725	-142.85
477.935	-101.89
478.144	344.57
478.354	-97.79
478.563	-259.58
478.773	-308.73
478.982	92.67
479.192	297.47
479.401	-175.61
479.611	-323.07
479.82	-202.24
480.03	125.44
480.239	-257.53
480.449	-357.88
480.658	381.43
480.868	-50.69
481.077	-169.47
481.287	-259.58
481.496	137.73
481.705	367.1
481.915	18.94
482.124	-3.58
482.333	111.1
482.543	371.19
482.752	-136.7
482.961	-243.2
483.171	188.93
483.38	33.28
483.589	-69.12
483.799	-353.79
484.008	10.75
484.217	233.98
484.426	-142.85
484.636	-345.59
484.845	18.94
485.054	-189.95
485.263	20.99
485.472	-310.78
485.682	440.83
485.891	74.24
486.1	-380.41
486.309	-208.38
486.518	150.01
486.727	420.35
486.936	-300.54
487.146	-87.55
487.355	440.83
487.564	-183.81
487.773	-214.52
487.982	-167.42
488.191	-15.87
488.4	-5.63
488.609	-210.43
488.818	-249.34
489.027	510.46
489.236	354.81
489.445	-224.76
489.654	-249.34
489.863	266.75
490.072	178.69
490.281	59.9
490.49	-237.05
490.698	401.91
490.907	373.24
491.116	-198.14
491.325	-327.16
491.534	385.53
491.743	152.06
491.952	-179.71
492.16	-239.1
492.369	242.17
492.578	297.47
492.787	-103.93
492.996	-308.73
493.204	-99.84
493.413	602.61
493.622	-413.18
493.831	-407.03
494.039	434.68
494.248	-163.33
494.457	-267.77
494.665	-400.89
494.874	119.29
495.083	532.98
495.291	-175.61
495.5	-302.59
495.709	201.21
495.917	96.77
496.126	-218.62
496.335	-235
496.543	-126.46
496.752	23.04
496.96	-17.92
497.169	-411.13
497.377	8.7
497.586	317.95
497.794	-175.61
498.003	-374.27
498.211	-26.11
498.42	350.71
498.628	-161.28
498.837	-337.4
499.045	131.58
499.254	84.48
499.462	-259.58
499.671	-323.07
499.879	444.92
500.087	297.47
500.296	-230.91
500.504	-243.2
500.713	109.05
500.921	545.27
501.129	-271.87
501.338	-275.96
501.546	117.25
501.754	41.47
501.962	-136.7
502.171	-284.16
502.379	84.48
502.587	481.78
502.795	-138.75
503.004	-165.37
503.212	57.86
503.42	199.16
503.628	-253.44
503.837	-126.46
504.045	221.69
504.253	539.13
504.461	-337.4
504.669	-374.27
504.877	229.88
505.085	412.15
505.294	-382.46
505.502	-11.78
505.71	131.58
505.918	225.79
506.126	-226.81
506.334	-380.41
506.542	-46.59
506.75	61.95
506.958	-138.75
507.166	-251.39
507.374	-132.61
507.582	504.31
507.79	-13.82
507.998	-196.09
508.206	207.36
508.414	199.16
508.622	-271.87
508.83	-214.52
509.037	545.27
509.245	-11.78
509.453	-288.25
509.661	-304.64
509.869	252.41
510.077	-91.65
510.285	-116.22
510.492	-470.52
510.7	627.19
510.908	-83.45
511.116	-210.43
511.324	-212.48
511.531	-114.17
511.739	35.33
511.947	-97.79
512.155	61.95
512.362	135.68
512.57	-226.81
512.778	-267.77
512.985	-413.18
513.193	363
513.401	459.26
513.608	-226.81
513.816	-177.66
514.024	203.26
514.231	322.04
514.439	-282.11
514.646	-183.81
514.854	213.5
515.061	371.19
515.269	-253.44
515.477	-232.96
515.684	-87.55
515.892	231.93
516.099	-361.98
516.307	-439.8
516.514	244.22
516.722	467.45
516.929	-185.85
517.136	-333.31
517.344	381.43
517.551	199.16
517.759	-294.4
517.966	-216.57
518.173	-50.69
518.381	55.81
518.588	-214.52
518.796	-312.83
519.003	414.2
519.21	-42.5
519.418	-312.83
519.625	39.42
519.832	12.8
520.039	117.25
520.247	-372.22
520.454	-263.68
520.661	223.74
520.868	139.77
521.076	-194.05
521.283	-103.93
521.49	578.04
521.697	119.29
521.904	-169.47
522.112	-214.52
522.319	182.78
522.526	14.85
522.733	-339.45
522.94	-288.25
523.147	59.9
523.354	225.79
523.561	-388.6
523.768	-161.28
523.975	315.9
524.183	113.15
524.39	-259.58
524.597	-407.03
524.804	4.61
525.011	-99.84
525.218	-278.01
525.425	-337.4
525.632	383.48
525.838	-144.89
526.045	-241.15
526.252	-251.39
526.459	1104.37
526.666	895.47
526.873	-284.16
527.08	-245.24
527.287	352.76
527.494	227.84
527.701	-398.84
527.907	-292.35
528.114	199.16
528.321	59.9
528.528	-165.37
528.735	-255.48
528.941	-138.75
529.148	-87.55
529.355	-220.67
529.562	-273.92
529.768	449.02
529.975	-30.21
530.182	-206.33
530.388	-337.4
530.595	281.08
530.802	-177.66
531.008	-22.02
531.215	-259.58
531.422	446.97
531.628	709.11
531.835	-153.09
532.042	-247.29
532.248	-89.6
532.455	125.44
532.661	-169.47
532.868	-296.44
533.074	121.34
533.281	305.66
533.487	-204.28
533.694	-275.96
533.9	-214.52
534.107	84.48
534.313	-278.01
534.52	-339.45
534.726	289.28
534.933	551.42
535.139	-394.75
535.345	-454.14
535.552	158.21
535.758	135.68
535.965	-208.38
536.171	-341.5
536.377	233.98
536.584	289.28
536.79	-275.96
536.996	-130.56
537.203	121.34
537.409	242.17
537.615	-157.18
537.821	-142.85
538.028	328.19
538.234	186.88
538.44	-349.69
538.646	-71.17
538.853	168.45
539.059	-42.5
539.265	137.73
539.471	-435.71
539.677	340.47
539.883	6.66
540.09	-247.29
540.296	332.28
540.502	57.86
540.708	-56.83
540.914	31.23
541.12	-210.43
541.326	174.59
541.532	68.09
541.738	-218.62
541.944	-228.86
542.15	289.28
542.356	-30.21
542.562	-263.68
542.768	-187.9
542.974	655.86
543.18	586.23
543.386	-267.77
543.592	-400.89
543.798	475.64
544.004	299.52
544.21	-284.16
544.415	-26.11
544.621	47.62
544.827	430.59
545.033	-333.31
545.239	2.56
545.445	-112.13
545.651	96.77
545.856	-222.72
546.062	-267.77
546.268	-13.82
546.474	23.04
546.679	-290.3
546.885	-206.33
547.091	-75.26
547.297	494.07
547.502	-118.27
547.708	-341.5
547.914	-87.55
548.119	215.55
548.325	-323.07
548.531	-251.39
548.736	414.2
548.942	-108.03
549.147	-251.39
549.353	-120.32
549.559	340.47
549.764	186.88
549.97	-206.33
550.175	-235
550.381	236.03
550.586	-44.54
550.792	-214.52
550.997	-187.9
551.203	129.53
551.408	272.89
551.614	-294.4
551.819	-294.4
552.025	557.56
552.23	506.36
552.435	-345.59
552.641	-187.9
552.846	-91.65
553.052	336.38
553.257	-97.79
553.462	-284.16
553.668	-95.74
553.873	250.36
554.078	-278.01
554.283	-267.77
554.489	119.29
554.694	39.42
554.899	-286.2
555.105	-46.59
555.31	231.93
555.515	168.45
555.72	-34.3
555.925	-243.2
556.131	168.45
556.336	-26.11
556.541	-314.88
556.746	-259.58
556.951	285.18
557.156	481.78
557.361	-99.84
557.567	-155.13
557.772	543.22
557.977	227.84
558.182	-216.57
558.387	-255.48
558.592	-9.73
558.797	322.04
559.002	-126.46
559.207	-128.51
559.412	109.05
559.617	498.17
559.822	-181.76
560.027	-292.35
560.232	158.21
560.437	252.41
560.642	-368.12
560.847	-226.81
561.051	129.53
561.256	53.76
561.461	-169.47
561.666	-368.12
561.871	43.52
562.076	250.36
562.281	-142.85
562.485	-247.29
562.69	215.55
562.895	305.66
563.1	-259.58
563.305	-249.34
563.509	350.71
563.714	633.33
563.919	-235
564.123	-261.63
564.328	76.29
564.533	401.91
564.737	-171.52
564.942	-226.81
565.147	434.68
565.351	530.94
565.556	-105.98
565.761	-136.7
565.965	186.88
566.17	-142.85
566.374	-167.42
566.579	-329.21
566.784	168.45
566.988	-3.58
567.193	-298.49
567.397	-327.16
567.602	-216.57
567.806	20.99
568.011	-247.29
568.215	-159.23
568.42	57.86
568.624	55.81
568.828	-232.96
569.033	-15.87
569.237	262.65
569.442	178.69
569.646	-241.15
569.85	-255.48
570.055	2.56
570.259	150.01
570.463	6.66
570.668	-155.13
570.872	-50.69
571.076	31.23
571.281	-79.36
571.485	-54.78
571.689	84.48
571.893	195.07
572.098	-46.59
572.302	-206.33
572.506	219.64
572.71	154.11
572.914	-165.37
573.119	-181.76
573.323	535.03
573.527	397.82
573.731	-192
573.935	-206.33
574.139	174.59
574.343	-101.89
574.547	-155.13
574.751	-157.18
574.955	469.5
575.159	313.85
575.364	-71.17
575.568	-300.54
575.772	68.09
575.976	422.39
576.18	-206.33
576.383	-402.94
576.587	385.53
576.791	223.74
576.995	-402.94
577.199	-415.23
577.403	354.81
577.607	385.53
577.811	-312.83
578.015	-48.64
578.219	166.4
578.422	217.6
578.626	-99.84
578.83	10.75
579.034	424.44
579.238	199.16
579.442	-286.2
579.645	129.53
579.849	57.86
580.053	131.58
580.257	-175.61
580.46	-87.55
580.664	348.67
580.868	186.88
581.071	61.95
581.275	-34.3
581.479	-87.55
581.682	205.31
581.886	-151.04
582.09	-34.3
582.293	231.93
582.497	281.08
582.7	10.75
582.904	-273.92
583.107	27.14
583.311	43.52
583.515	-148.99
583.718	-24.06
583.922	240.12
584.125	545.27
584.329	-208.38
584.532	-75.26
584.735	428.54
584.939	223.74
585.142	-353.79
585.346	-214.52
585.549	154.11
585.753	2.56
585.956	-153.09
586.159	-69.12
586.363	471.54
586.566	334.33
586.769	-189.95
586.973	-263.68
587.176	166.4
587.379	440.83
587.582	109.05
587.786	29.18
587.989	158.21
588.192	743.92
588.395	-44.54
588.599	190.97
588.802	283.13
589.005	385.53
589.208	-198.14
589.411	-179.71
589.615	344.57
589.818	475.64
590.021	10.75
590.224	-13.82
590.427	356.86
590.63	330.23
590.833	-310.78
591.036	-226.81
591.239	80.38
591.442	-17.92
591.645	23.04
591.848	-110.08
592.051	299.52
592.254	383.48
592.457	-153.09
592.66	-110.08
592.863	137.73
593.066	256.51
593.269	-128.51
593.472	-44.54
593.675	-62.98
593.878	305.66
594.081	-38.4
594.284	-183.81
594.486	309.76
594.689	207.36
594.892	-9.73
595.095	-56.83
595.298	322.04
595.5	94.72
595.703	-50.69
595.906	61.95
596.109	467.45
596.311	465.4
596.514	-316.92
596.717	-9.73
596.92	430.59
597.122	283.13
597.325	-327.16
597.528	-157.18
597.73	463.35
597.933	125.44
598.136	-97.79
598.338	-368.12
598.541	266.75
598.743	471.54
598.946	-181.76
599.148	-69.12
599.351	420.35
599.554	397.82
599.756	-62.98
599.959	-142.85
600.161	471.54
600.363	750.07
600.566	92.67
600.768	-161.28
600.971	522.74
601.173	412.15
601.376	-83.45
601.578	-22.02
601.78	326.14
601.983	752.12
602.185	-140.8
602.388	160.25
602.59	297.47
602.792	82.43
602.995	47.62
603.197	-103.93
603.399	387.58
603.601	264.7
603.804	-26.11
604.006	-138.75
604.208	90.62
604.41	-292.35
604.613	76.29
604.815	-116.22
605.017	752.12
605.219	53.76
605.421	281.08
605.623	-87.55
605.826	442.87
606.028	598.52
606.23	-13.82
606.432	-136.7
606.634	567.8
606.836	510.46
607.038	-177.66
607.24	35.33
607.442	168.45
607.644	231.93
607.846	82.43
608.048	-183.81
608.25	436.73
608.452	16.9
608.654	12.8
608.856	-345.59
609.058	154.11
609.26	242.17
609.462	31.23
609.664	-17.92
609.866	717.3
610.067	449.02
610.269	162.3
610.471	-50.69
610.673	166.4
610.875	395.77
611.077	-93.69
611.278	76.29
611.48	242.17
611.682	651.77
611.884	59.9
612.085	174.59
612.287	82.43
612.489	330.23
612.69	-218.62
612.892	33.28
613.094	455.16
613.295	211.45
613.497	-65.02
613.699	25.09
613.9	625.14
614.102	391.67
614.304	107.01
614.505	-187.9
614.707	236.03
614.908	233.98
615.11	-214.52
615.311	92.67
615.513	387.58
615.714	403.96
615.916	-136.7
616.117	-38.4
616.319	221.69
616.52	399.87
616.722	-81.41
616.923	-99.84
617.124	545.27
617.326	401.91
617.527	94.72
617.729	190.97
617.93	457.21
618.131	371.19
618.333	31.23
618.534	27.14
618.735	102.91
618.937	702.97
619.138	-159.23
619.339	-148.99
619.54	422.39
619.742	231.93
619.943	127.49
620.144	64
620.345	496.12
620.546	629.24
620.748	-71.17
620.949	6.66
621.15	281.08
621.351	299.52
621.552	-62.98
621.753	-206.33
621.954	-97.79
622.155	805.36
622.356	-38.4
622.558	127.49
622.759	276.99
622.96	731.64
623.161	51.71
623.362	82.43
623.563	244.22
623.764	403.96
623.965	-17.92
624.166	211.45
624.366	252.41
624.567	313.85
624.768	-241.15
624.969	-15.87
625.17	244.22
625.371	434.68
625.572	82.43
625.773	-144.89
625.973	543.22
626.174	530.94
626.375	49.66
626.576	156.16
626.777	389.63
626.977	969.2
627.178	51.71
627.379	182.78
627.58	313.85
627.78	303.61
627.981	94.72
628.182	199.16
628.382	592.37
628.583	-40.45
628.784	-56.83
628.984	182.78
629.185	494.07
629.386	539.13
629.586	176.64
629.787	-87.55
629.987	444.92
630.188	313.85
630.388	94.72
630.589	180.73
630.79	938.48
630.99	365.05
631.191	109.05
631.391	227.84
631.591	446.97
631.792	698.87
631.992	201.21
632.193	113.15
632.393	678.39
632.594	270.84
632.794	86.53
632.994	240.12
633.195	328.19
633.395	350.71
633.595	51.71
633.796	262.65
633.996	178.69
634.196	625.14
634.397	-148.99
634.597	150.01
634.797	145.92
634.997	690.68
635.198	305.66
635.398	-95.74
635.598	463.35
635.798	725.49
635.998	606.71
636.199	41.47
636.399	182.78
636.599	92.67
636.799	10.75
636.999	209.4
637.199	489.98
637.399	610.81
637.599	76.29
637.799	188.93
637.999	246.27
638.199	700.92
638.399	45.57
638.599	92.67
638.799	440.83
638.999	735.73
639.199	250.36
639.399	291.32
639.599	633.33
639.799	195.07
639.999	20.99
640.199	-30.21
640.399	393.72
640.599	436.73
640.799	143.87
640.998	365.05
641.198	641.53
641.398	455.16
641.598	199.16
641.798	80.38
641.997	1354.22
642.197	416.25
642.397	352.76
642.597	86.53
642.796	508.41
642.996	739.83
643.196	262.65
643.395	6.66
643.595	502.26
643.795	18.94
643.994	125.44
644.194	203.26
644.394	616.95
644.593	500.22
644.793	-38.4
644.992	260.6
645.192	547.32
645.392	-62.98
645.591	281.08
645.791	145.92
645.99	625.14
646.19	285.18
646.389	215.55
646.589	211.45
646.788	612.85
646.987	586.23
647.187	399.87
647.386	408.06
647.586	399.87
647.785	676.34
647.984	147.97
648.184	221.69
648.383	371.19
648.582	322.04
648.782	182.78
648.981	291.32
649.18	233.98
649.38	496.12
649.579	141.82
649.778	59.9
649.977	430.59
650.177	580.09
650.376	150.01
650.575	152.06
650.774	741.88
650.973	342.52
651.173	135.68
651.372	332.28
651.571	596.47
651.77	592.37
651.969	268.8
652.168	317.95
652.367	195.07
652.566	446.97
652.765	164.35
652.964	489.98
653.163	885.23
653.362	418.3
653.561	195.07
653.76	311.8
653.959	315.9
654.158	569.85
654.357	414.2
654.556	203.26
654.755	578.04
654.954	612.85
655.153	225.79
655.352	213.5
655.551	752.12
655.749	252.41
655.948	313.85
656.147	412.15
656.346	604.66
656.545	471.54
656.743	305.66
656.942	334.33
657.141	549.37
657.34	229.88
657.538	248.32
657.737	305.66
657.936	387.58
658.135	592.37
658.333	258.56
658.532	340.47
658.731	874.99
658.929	698.87
659.128	514.55
659.326	207.36
659.525	889.33
659.724	440.83
659.922	16.9
660.121	152.06
660.319	555.51
660.518	264.7
660.716	197.12
660.915	274.94
661.113	846.32
661.312	150.01
661.51	367.1
661.709	141.82
661.907	659.96
662.105	850.42
662.304	219.64
662.502	369.15
662.701	825.84
662.899	608.76
663.097	598.52
663.296	137.73
663.494	741.88
663.692	905.71
663.891	227.84
664.089	201.21
664.287	653.81
664.485	877.04
664.684	244.22
664.882	322.04
665.08	449.02
665.278	600.57
665.476	211.45
665.675	645.62
665.873	1081.84
666.071	797.17
666.269	190.97
666.467	551.42
666.665	520.7
666.863	530.94
667.061	473.59
667.259	301.56
667.457	494.07
667.655	688.63
667.853	266.75
668.051	485.88
668.249	375.29
668.447	655.86
668.645	309.76
668.843	477.69
669.041	752.12
669.239	453.11
669.437	494.07
669.635	477.69
669.833	469.5
670.031	784.88
670.229	403.96
670.426	471.54
670.624	485.88
670.822	369.15
671.02	373.24
671.218	416.25
671.415	393.72
671.613	614.9
671.811	389.63
672.009	363
672.206	788.98
672.404	485.88
672.602	545.27
672.799	471.54
672.997	715.25
673.195	813.56
673.392	504.31
673.59	358.91
673.788	776.69
673.985	186.88
674.183	485.88
674.38	385.53
674.578	739.83
674.775	416.25
674.973	227.84
675.17	248.32
675.368	963.06
675.565	760.31
675.763	301.56
675.96	354.81
676.158	836.08
676.355	580.09
676.553	432.63
676.75	446.97
676.947	692.73
677.145	559.61
677.342	477.69
677.539	598.52
677.737	659.96
677.934	1202.67
678.131	543.22
678.329	463.35
678.526	952.82
678.723	825.84
678.92	430.59
679.118	389.63
679.315	256.51
679.512	991.73
679.709	469.5
679.906	465.4
680.104	987.63
680.301	608.76
680.498	303.61
680.695	317.95
680.892	471.54
681.089	543.22
681.286	483.83
681.483	313.85
681.68	823.8
681.877	817.65
682.075	436.73
682.272	537.08
682.469	692.73
682.665	596.47
682.862	330.23
683.059	305.66
683.256	668.15
683.453	731.64
683.65	590.33
683.847	446.97
684.044	588.28
684.241	403.96
684.438	612.85
684.635	324.09
684.831	1083.89
685.028	1176.05
685.225	510.46
685.422	582.14
685.619	616.95
685.815	672.25
686.012	457.21
686.209	535.03
686.405	416.25
686.602	891.38
686.799	297.47
686.996	340.47
687.192	367.1
687.389	1188.33
687.586	451.07
687.782	532.98
687.979	1026.54
688.175	903.67
688.372	461.3
688.568	522.74
688.765	633.33
688.962	1116.65
689.158	651.77
689.355	354.81
689.551	922.1
689.748	578.04
689.944	588.28
690.14	332.28
690.337	922.1
690.533	559.61
690.73	682.49
690.926	621.05
691.123	874.99
691.319	635.38
691.515	334.33
691.712	676.34
691.908	911.86
692.104	805.36
692.301	760.31
692.497	348.67
692.693	915.95
692.889	881.14
693.086	670.2
693.282	313.85
693.478	700.92
693.674	1077.74
693.87	512.5
694.067	365.05
694.263	838.13
694.459	575.99
694.655	686.58
694.851	657.91
695.047	881.14
695.243	918
695.439	711.16
695.635	510.46
695.831	838.13
696.027	803.32
696.224	502.26
696.42	850.42
696.615	1020.4
696.811	821.75
697.007	424.44
697.203	530.94
697.399	860.66
697.595	1010.16
697.791	516.6
697.987	678.39
698.183	561.66
698.379	590.33
698.575	516.6
698.77	635.38
698.966	922.1
699.162	1071.6
699.358	657.91
699.554	594.42
699.749	954.87
699.945	973.3
700.141	705.01
700.337	803.32
700.532	780.79
700.728	584.18
700.924	522.74
701.119	481.78
701.315	911.86
701.511	741.88
701.706	639.48
701.902	512.5
702.097	819.7
702.293	961.01
702.489	674.29
702.684	674.29
702.88	662.01
703.075	651.77
703.271	621.05
703.466	410.11
703.662	848.37
703.857	1010.16
704.053	512.5
704.248	651.77
704.443	1063.41
704.639	973.3
704.834	670.2
705.03	477.69
705.225	1022.45
705.42	1141.23
705.616	780.79
705.811	489.98
706.006	788.98
706.202	690.68
706.397	727.54
706.592	532.98
706.787	975.35
706.983	860.66
707.178	870.9
707.373	705.01
707.568	1049.07
707.763	1167.85
707.959	571.9
708.154	553.46
708.349	993.78
708.544	858.61
708.739	756.21
708.934	508.41
709.129	1032.69
709.324	1098.22
709.519	524.79
709.714	571.9
709.909	1114.61
710.104	1018.35
710.299	653.81
710.494	688.63
710.689	1122.8
710.884	838.13
711.079	815.6
711.274	879.09
711.469	965.11
711.664	1067.5
711.859	514.55
712.054	760.31
712.249	952.82
712.443	1126.89
712.638	504.31
712.833	629.24
713.028	807.41
713.223	946.67
713.417	961.01
713.612	696.82
713.807	997.87
714.002	1534.44
714.196	862.71
714.391	559.61
714.586	1069.55
714.78	864.75
714.975	672.25
715.17	668.15
715.364	764.4
715.559	1147.37
715.754	469.5
715.948	670.2
716.143	1403.37
716.337	944.63
716.532	1022.45
716.726	602.61
716.921	1108.46
717.115	1407.47
717.31	557.56
717.504	1239.53
717.699	887.28
717.893	1087.98
718.088	621.05
718.282	532.98
718.476	870.9
718.671	971.25
718.865	657.91
719.059	639.48
719.254	774.64
719.448	1264.11
719.642	1978.85
719.837	481.78
720.031	1202.67
720.225	1288.68
720.419	768.5
720.614	590.33
720.808	1217.01
721.002	807.41
721.196	690.68
721.39	748.02
721.585	1227.25
721.779	1030.64
721.973	829.94
722.167	561.66
722.361	1053.17
722.555	1245.68
722.749	713.21
722.943	731.64
723.137	752.12
723.331	971.25
723.525	743.92
723.719	737.78
723.913	1161.71
724.107	1341.93
724.301	625.14
724.495	797.17
724.689	1464.81
724.883	1309.16
725.077	711.16
725.271	713.21
725.465	1311.21
725.659	1004.02
725.853	821.75
726.046	477.69
726.24	760.31
726.434	1165.81
726.628	674.29
726.822	784.88
727.015	1341.93
727.209	1300.97
727.403	817.65
727.596	530.94
727.79	1190.38
727.984	1255.92
728.177	764.4
728.371	860.66
728.565	1237.49
728.758	766.45
728.952	643.57
729.146	694.77
729.339	1264.11
729.533	1028.59
729.726	879.09
729.92	682.49
730.113	1364.46
730.307	1055.22
730.5	715.25
730.694	760.31
730.887	965.11
731.081	1204.72
731.274	659.96
731.468	815.6
731.661	995.82
731.854	940.53
732.048	801.27
732.241	739.83
732.435	817.65
732.628	1083.89
732.821	852.47
733.014	616.95
733.208	799.22
733.401	1237.49
733.594	846.32
733.788	715.25
733.981	1298.92
734.174	1096.18
734.367	829.94
734.56	932.34
734.754	1311.21
734.947	1010.16
735.14	717.3
735.333	897.52
735.526	1202.67
735.719	1036.78
735.912	762.36
736.105	713.21
736.298	1102.32
736.491	1059.31
736.684	735.73
736.877	831.99
737.07	1100.27
737.263	1358.32
737.456	985.58
737.649	784.88
737.842	905.71
738.035	1102.32
738.228	868.85
738.421	932.34
738.614	1370.6
738.807	1266.16
739	676.34
739.192	758.26
739.385	1030.64
739.578	1251.82
739.771	1147.37
739.964	815.6
740.156	1235.44
740.349	1085.94
740.542	1030.64
740.735	756.21
740.927	764.4
741.12	905.71
741.313	743.92
741.505	926.19
741.698	1184.24
741.891	1145.33
742.083	1018.35
742.276	862.71
742.468	1067.5
742.661	1030.64
742.854	924.15
743.046	827.89
743.239	1466.86
743.431	1116.65
743.624	885.23
743.816	682.49
744.009	1114.61
744.201	1323.5
744.393	1124.85
744.586	813.56
744.778	1425.9
744.971	1137.13
745.163	973.3
745.355	975.35
745.548	1124.85
745.74	1098.22
745.932	967.15
746.125	891.38
746.317	1720.81
746.509	1227.25
746.702	879.09
746.894	997.87
747.086	1178.09
747.278	1436.14
747.471	1020.4
747.663	1004.02
747.855	1237.49
748.047	1583.59
748.239	846.32
748.431	801.27
748.623	1440.23
748.815	1491.43
749.008	813.56
749.2	868.85
749.392	1233.39
749.584	1335.79
749.776	993.78
749.968	1028.59
750.16	1632.74
750.352	1137.13
750.544	1030.64
750.736	774.64
750.928	1337.84
751.12	1092.08
751.311	1034.74
751.503	1034.74
751.695	1251.82
751.887	1151.47
752.079	711.16
752.271	915.95
752.463	1970.66
752.654	1497.58
752.846	969.2
753.038	874.99
753.23	973.3
753.421	1468.91
753.613	928.24
753.805	1108.46
753.997	1346.03
754.188	1380.84
754.38	842.23
754.572	954.87
754.763	1137.13
754.955	1366.51
755.146	985.58
755.338	1102.32
755.53	1296.88
755.721	1243.63
755.913	770.55
756.104	827.89
756.296	1200.62
756.487	1364.46
756.679	846.32
756.87	1006.06
757.062	1065.46
757.253	1329.64
757.445	954.87
757.636	1059.31
757.827	1184.24
758.019	1829.35
758.21	858.61
758.401	895.47
758.593	1698.28
758.784	1501.67
758.975	846.32
759.167	870.9
759.358	1315.31
759.549	1468.91
759.74	1073.65
759.932	807.41
760.123	1485.29
760.314	1141.23
760.505	1151.47
760.696	950.77
760.888	1632.74
761.079	1280.49
761.27	905.71
761.461	797.17
761.652	1714.66
761.843	1200.62
762.034	1116.65
762.225	1325.55
762.416	1231.34
762.607	1255.92
762.798	952.82
762.989	936.43
763.18	2001.38
763.371	1190.38
763.562	965.11
763.753	969.2
763.944	1493.48
764.135	1501.67
764.326	1204.72
764.517	1001.97
764.708	1317.36
764.899	1470.95
765.089	901.62
765.28	772.6
765.471	1266.16
765.662	1493.48
765.853	1042.93
766.043	928.24
766.234	1477.1
766.425	1524.2
766.615	1059.31
766.806	842.23
766.997	1499.63
767.187	1290.73
767.378	881.14
767.569	836.08
767.759	1413.61
767.95	1264.11
768.141	1231.34
768.331	1049.07
768.522	1227.25
768.712	1438.19
768.903	985.58
769.093	920.05
769.284	1681.89
769.474	1468.91
769.665	874.99
769.855	791.03
770.046	1468.91
770.236	1229.29
770.426	1200.62
770.617	915.95
770.807	1395.18
770.998	1233.39
771.188	1073.65
771.378	907.76
771.569	1462.76
771.759	1489.39
771.949	887.28
772.139	717.3
772.33	1346.03
772.52	1602.02
772.71	993.78
772.9	844.28
773.09	1810.92
773.281	1479.15
773.471	913.91
773.661	958.96
773.851	1495.53
774.041	1257.96
774.231	958.96
774.421	1116.65
774.611	1651.17
774.802	1321.45
774.992	1219.05
775.182	961.01
775.372	1219.05
775.562	1540.58
775.752	1047.02
775.942	1087.98
776.131	1593.83
776.321	1509.86
776.511	1042.93
776.701	879.09
776.891	1577.45
777.081	1075.7
777.271	1061.36
777.461	911.86
777.651	1505.77
777.84	1497.58
778.03	1253.87
778.22	952.82
778.41	1552.87
778.599	971.25
778.789	1108.46
778.979	901.62
779.169	1358.32
779.358	1354.22
779.548	1243.63
779.738	840.18
779.927	1395.18
780.117	1153.52
780.307	1085.94
780.496	715.25
780.686	1294.83
780.875	1731.05
781.065	1126.89
781.254	1055.22
781.444	1337.84
781.633	1329.64
781.823	930.29
782.012	940.53
782.202	1223.15
782.391	1155.57
782.581	940.53
782.77	1157.61
782.96	1477.1
783.149	1268.2
783.338	1044.98
783.528	809.46
783.717	1511.91
783.906	1575.4
784.096	1198.57
784.285	1014.26
784.474	1296.88
784.663	1079.79
784.853	1075.7
785.042	1100.27
785.231	1192.43
785.42	1556.97
785.61	1323.5
785.799	930.29
785.988	1241.58
786.177	1364.46
786.366	1212.91
786.555	1243.63
786.744	1589.74
786.933	1372.65
787.122	799.22
787.312	936.43
787.501	1071.6
787.69	1460.71
787.879	1096.18
788.068	991.73
788.257	1096.18
788.445	1169.9
788.634	1053.17
788.823	924.15
789.012	1933.79
789.201	1602.02
789.39	1075.7
789.579	967.15
789.768	1452.52
789.957	1290.73
790.145	1049.07
790.334	791.03
790.523	1247.72
790.712	1186.29
790.9	1059.31
791.089	924.15
791.278	1473
791.467	1272.3
791.655	1305.07
791.844	1534.44
792.033	1184.24
792.221	1198.57
792.41	1063.41
792.599	905.71
792.787	1438.19
792.976	1429.99
793.164	1001.97
793.353	1075.7
793.541	1554.92
793.73	1460.71
793.918	1176.05
794.107	1042.93
794.295	1413.61
794.484	1378.79
794.672	1092.08
794.861	1055.22
795.049	1507.82
795.238	1749.48
795.426	881.14
795.614	1087.98
795.803	1337.84
795.991	1681.89
796.179	1165.81
796.368	1100.27
796.556	1649.13
796.744	1231.34
796.932	1022.45
797.121	920.05
797.309	1413.61
797.497	1663.46
797.685	1159.66
797.874	1124.85
798.062	1231.34
798.25	1714.66
798.438	1030.64
798.626	1063.41
798.814	1440.23
799.002	1880.55
799.19	1249.77
799.378	1077.74
799.566	1681.89
799.755	1702.37
799.943	1341.93
800.131	1124.85
800.318	1362.41
800.506	1366.51
800.694	1104.37
800.882	1247.72
801.07	1726.95
801.258	1440.23
801.446	1098.22
801.634	1124.85
801.822	1427.95
802.01	1421.8
802.197	1280.49
802.385	1223.15
802.573	1532.39
802.761	1212.91
802.949	1198.57
803.136	963.06
803.324	1702.37
803.512	1384.94
803.699	1329.64
803.887	1044.98
804.075	1616.36
804.262	1288.68
804.45	983.54
804.638	1276.4
804.825	1194.48
805.013	1282.54
805.201	1227.25
805.388	1065.46
805.576	1458.67
805.763	1819.11
805.951	1083.89
806.138	1311.21
806.326	1808.87
806.513	1595.88
806.701	1202.67
806.888	1182.19
807.075	1659.37
807.263	1921.51
807.45	1143.28
807.638	1327.6
807.825	2005.47
808.012	1776.1
808.2	1288.68
808.387	1554.92
808.574	1753.57
808.761	1864.16
808.949	1143.28
809.136	1286.64
809.323	1452.52
809.51	1317.36
809.698	1542.63
809.885	1446.38
810.072	1616.36
810.259	1608.17
810.446	1403.37
810.633	1180.14
810.82	1792.48
811.008	1819.11
811.195	1366.51
811.382	1305.07
811.569	1454.57
811.756	1190.38
811.943	1382.89
812.13	1214.96
812.317	1466.86
812.504	1423.85
812.691	1378.79
812.878	1442.28
813.064	1794.53
813.251	1610.22
813.438	1196.53
813.625	1454.57
813.812	1542.63
813.999	1401.32
814.186	1366.51
814.372	1339.88
814.559	1573.35
814.746	1894.88
814.933	1307.12
815.12	1358.32
815.306	1391.08
815.493	1372.65
815.68	1176.05
815.866	1370.6
816.053	1780.2
816.24	1964.51
816.426	1505.77
816.613	1124.85
816.799	1769.96
816.986	1788.39
817.173	1190.38
817.359	1268.2
817.546	1626.6
817.732	1317.36
817.919	1065.46
818.105	1419.75
818.292	1440.23
818.478	1640.93
818.665	1485.29
818.851	1212.91
819.037	2107.87
819.224	1634.79
819.41	1141.23
819.597	1266.16
819.783	2019.81
819.969	1726.95
820.156	1466.86
820.342	1202.67
820.528	2517.47
820.714	1497.58
820.901	1763.81
821.087	1300.97
821.273	1984.99
821.459	1444.33
821.646	1247.72
821.832	1163.76
822.018	1591.78
822.204	1642.98
822.39	1405.42
822.576	1235.44
822.762	1786.34
822.948	1698.28
823.134	1620.46
823.32	1452.52
823.507	1348.08
823.693	1675.75
823.879	1862.12
824.065	1419.75
824.25	1608.17
824.436	1477.1
824.622	1268.2
824.808	1333.74
824.994	1489.39
825.18	1456.62
825.366	1292.78
825.552	1223.15
825.738	1561.06
825.923	1817.06
826.109	1599.98
826.295	1311.21
826.481	1456.62
826.667	1460.71
826.852	1495.53
827.038	1280.49
827.224	1982.95
827.409	1997.28
827.595	1249.77
827.781	1589.74
827.966	1862.12
828.152	1888.74
828.338	1460.71
828.523	1178.09
828.709	1460.71
828.894	1948.13
829.08	1421.8
829.266	1366.51
829.451	1487.34
829.637	1765.86
829.822	1386.99
830.008	1477.1
830.193	1782.24
830.378	2085.34
830.564	1415.66
830.749	1237.49
830.935	1747.43
831.12	1837.54
831.305	1321.45
831.491	1550.82
831.676	1325.55
831.861	1692.13
832.047	1528.3
832.232	1047.02
832.417	1921.51
832.602	1610.22
832.788	1288.68
832.973	1274.35
833.158	1587.69
833.343	1626.6
833.528	1450.47
833.714	1473
833.899	1722.85
834.084	1935.84
834.269	1513.96
834.454	1370.6
834.639	1907.17
834.824	1632.74
835.009	1462.76
835.194	1462.76
835.379	1751.53
835.564	1927.65
835.749	1585.64
835.934	1292.78
836.119	1804.77
836.304	1763.81
836.489	1389.03
836.674	1618.41
836.859	1513.96
837.044	1944.03
837.228	1315.31
837.413	1331.69
837.598	1737.19
837.783	1821.16
837.968	1421.8
838.152	1253.87
838.337	1225.2
838.522	2005.47
838.707	1878.5
838.891	1544.68
839.076	1683.94
839.261	1849.83
839.445	1436.14
839.63	1452.52
839.815	2071.01
839.999	1620.46
840.184	1526.25
840.368	1247.72
840.553	1862.12
840.737	1874.4
840.922	1364.46
841.106	1348.08
841.291	1454.57
841.475	1720.81
841.66	1372.65
841.844	1391.08
842.029	2372.06
842.213	1329.64
842.397	1329.64
842.582	1298.92
842.766	1878.5
842.951	1778.15
843.135	1477.1
843.319	1511.91
843.504	1810.92
843.688	1866.21
843.872	1247.72
844.056	1311.21
844.241	1737.19
844.425	1595.88
844.609	1544.68
844.793	1284.59
844.977	1923.55
845.161	1821.16
845.346	1370.6
845.53	1343.98
845.714	1599.98
845.898	2025.95
846.082	1227.25
846.266	1339.88
846.45	1780.2
846.634	1796.58
846.818	1427.95
847.002	1479.15
847.186	1821.16
847.37	1290.73
847.554	1350.12
847.738	1460.71
847.922	1690.09
848.106	1729
848.29	1348.08
848.473	1325.55
848.657	1927.65
848.841	1608.17
849.025	1432.04
849.209	1190.38
849.392	1911.27
849.576	1567.21
849.76	1063.41
849.944	1464.81
850.127	2019.81
850.311	1300.97
850.495	1178.09
850.678	1260.01
850.862	1802.72
851.046	2054.62
851.229	1538.54
851.413	1268.2
851.596	1606.12
851.78	1636.84
851.964	1473
852.147	1389.03
852.331	2365.92
852.514	1919.46
852.698	1561.06
852.881	1321.45
853.065	1903.07
853.248	1677.8
853.431	1579.5
853.615	1536.49
853.798	2224.61
853.982	1870.31
854.165	1538.54
854.348	1503.72
854.532	1444.33
854.715	1571.3
854.898	1550.82
855.081	1346.03
855.265	2095.58
855.448	2071.01
855.631	1288.68
855.814	1337.84
855.997	1886.69
856.181	1536.49
856.364	1503.72
856.547	1149.42
856.73	1685.99
856.913	1702.37
857.096	1264.11
857.279	1513.96
857.462	1495.53
857.645	1907.17
857.828	1536.49
858.011	1464.81
858.194	1550.82
858.377	1806.82
858.56	1317.36
858.743	1456.62
858.926	1337.84
859.109	1886.69
859.292	1352.17
859.475	1419.75
859.658	1974.75
859.841	1720.81
860.023	1200.62
860.206	1266.16
860.389	1704.42
860.572	2017.76
860.755	1411.56
860.937	1284.59
861.12	1671.65
861.303	1743.33
861.486	1489.39
861.668	1206.77
861.851	1788.39
862.034	1696.23
862.216	1520.1
862.399	1184.24
862.581	1763.81
862.764	2120.16
862.947	1405.42
863.129	1284.59
863.312	1434.09
863.494	1933.79
863.677	1714.66
863.859	1075.7
864.042	1890.79
864.224	1999.33
864.406	1354.22
864.589	1221.1
864.771	1685.99
864.954	1352.17
865.136	1235.44
865.318	1010.16
865.501	1939.94
865.683	1219.05
865.865	1327.6
866.048	1327.6
866.23	1792.48
866.412	1618.41
866.594	1147.37
866.777	1442.28
866.959	1780.2
867.141	1501.67
867.323	1651.17
867.505	1524.2
867.687	1577.45
867.869	1616.36
868.052	1325.55
868.234	1235.44
868.416	1702.37
868.598	1845.73
868.78	1464.81
868.962	1227.25
869.144	1849.83
869.326	1907.17
869.508	1364.46
869.69	1282.54
869.872	1483.24
870.054	1944.03
870.236	1139.18
870.417	1278.44
870.599	1456.62
870.781	1927.65
870.963	1550.82
871.145	1313.26
871.327	1417.71
871.508	1862.12
871.69	1366.51
871.872	1470.95
872.054	1659.37
872.235	1765.86
872.417	1559.02
872.599	1346.03
872.78	2050.53
872.962	1692.13
873.144	1249.77
873.325	1440.23
873.507	2095.58
873.689	1878.5
873.87	1272.3
874.052	1446.38
874.233	1563.11
874.415	1927.65
874.596	1372.65
874.778	1296.88
874.959	1722.85
875.141	1823.2
875.322	1397.23
875.503	1280.49
875.685	1800.68
875.866	1153.52
876.048	1358.32
876.229	1348.08
876.41	1659.37
876.592	1669.61
876.773	1421.8
876.954	1194.48
877.136	2107.87
877.317	1772
877.498	1130.99
877.679	1460.71
877.86	1802.72
878.042	1669.61
878.223	1411.56
878.404	1688.04
878.585	1882.6
878.766	2009.57
878.947	1749.48
879.128	1532.39
879.309	1851.88
879.49	1962.47
879.672	1458.67
879.853	1415.66
880.034	1436.14
880.215	1618.41
880.396	1481.19
880.576	1419.75
880.757	1528.3
880.938	1999.33
881.119	1313.26
881.3	1436.14
881.481	1647.08
881.662	2466.27
881.843	1354.22
882.023	1264.11
882.204	1896.93
882.385	1679.85
882.566	1534.44
882.747	1485.29
882.927	1733.09
883.108	1784.29
883.289	1468.91
883.469	1640.93
883.65	1679.85
883.831	1716.71
884.011	1630.7
884.192	1438.19
884.373	1905.12
884.553	1825.25
884.734	1661.41
884.914	1733.09
885.095	2410.97
885.275	2240.99
885.456	1819.11
885.636	1393.13
885.817	1657.32
885.997	1812.96
886.178	1464.81
886.358	1788.39
886.538	1798.63
886.719	2650.58
886.899	1571.3
887.08	1743.33
887.26	2103.78
887.44	1585.64
887.621	1432.04
887.801	1800.68
887.981	2357.72
888.161	1886.69
888.342	1587.69
888.522	1575.4
888.702	2058.72
888.882	2064.86
889.062	1698.28
889.242	1391.08
889.423	2300.38
889.603	1937.89
889.783	1868.26
889.963	1567.21
890.143	1968.61
890.323	2279.9
890.503	1694.18
890.683	1636.84
890.863	2023.91
891.043	2032.1
891.223	1808.87
891.403	1948.13
891.583	1999.33
891.763	1876.45
891.943	1729
892.122	1561.06
892.302	2025.95
892.482	1939.94
892.662	1878.5
892.842	1673.7
893.022	2077.15
893.201	1855.97
893.381	1808.87
893.561	1616.36
893.741	2197.98
893.92	2120.16
894.1	1724.9
894.28	1874.4
894.459	2173.41
894.639	2068.96
894.819	1757.67
894.998	1862.12
895.178	1984.99
895.357	2050.53
895.537	1649.13
895.716	1561.06
895.896	2040.29
896.075	2353.63
896.255	1757.67
896.434	1436.14
896.614	2159.07
896.793	2357.72
896.973	1733.09
897.152	1731.05
897.331	2202.08
897.511	2191.84
897.69	1640.93
897.87	1855.97
898.049	2232.8
898.228	1911.27
898.407	1901.03
898.587	1874.4
898.766	1794.53
898.945	2105.82
899.124	2103.78
899.304	1870.31
899.483	2105.82
899.662	2410.97
899.841	1700.33
900.02	1796.58
900.199	2271.71
900.378	2077.15
900.557	1692.13
900.737	1667.56
900.916	2202.08
901.095	2109.92
901.274	2017.76
901.453	1511.91
901.632	1866.21
901.811	1821.16
901.989	1567.21
902.168	1626.6
902.347	2214.37
902.526	1841.64
902.705	1722.85
902.884	1790.44
903.063	2290.14
903.242	2290.14
903.42	1651.17
903.599	1872.36
903.778	2159.07
903.957	2337.24
904.135	1894.88
904.314	1751.53
904.493	2157.02
904.672	2118.11
904.85	1765.86
905.029	1780.2
905.207	2154.98
905.386	2826.71
905.565	1544.68
905.743	1706.47
905.922	1925.6
906.1	2097.63
906.279	1663.46
906.457	1636.84
906.636	1937.89
906.814	1966.56
906.993	1821.16
907.171	1671.65
907.35	2220.51
907.528	2052.58
907.707	1966.56
907.885	1640.93
908.063	2271.71
908.242	1755.62
908.42	1747.43
908.598	1548.78
908.777	2036.19
908.955	1851.88
909.133	1968.61
909.311	1575.4
909.49	1774.05
909.668	1950.18
909.846	1706.47
910.024	1432.04
910.202	2005.47
910.38	2044.38
910.559	1573.35
910.737	1665.51
910.915	1915.36
911.093	2032.1
911.271	1716.71
911.449	1911.27
911.627	2038.24
911.805	2320.86
911.983	1726.95
912.161	1739.24
912.339	1944.03
912.517	2306.52
912.695	1759.72
912.872	1665.51
913.05	1853.92
913.228	1972.71
913.406	1731.05
913.584	1477.1
913.762	2007.52
913.939	1808.87
914.117	1700.33
914.295	1505.77
914.473	2099.68
914.65	1956.32
914.828	1593.83
915.006	1645.03
915.184	1661.41
915.361	2001.38
915.539	1669.61
915.716	1833.44
915.894	1866.21
916.072	1970.66
916.249	1870.31
916.427	1796.58
916.604	1698.28
916.782	1864.16
916.959	1532.39
917.137	1655.27
917.314	1944.03
917.492	1929.7
917.669	1624.55
917.847	1718.76
918.024	1958.37
918.201	1659.37
918.379	1604.07
918.556	1540.58
918.733	2136.54
918.911	1829.35
919.088	1786.34
919.265	1542.63
919.442	1935.84
919.62	1796.58
919.797	1485.29
919.974	1397.23
920.151	1823.2
920.328	1858.02
920.506	1466.86
920.683	1692.13
920.86	1540.58
921.037	1581.54
921.214	1626.6
921.391	1569.26
921.568	1989.09
921.745	1698.28
921.922	1653.22
922.099	1436.14
922.276	1933.79
922.453	1825.25
922.63	1499.63
922.807	1708.52
922.984	1774.05
923.161	1638.89
923.338	1624.55
923.514	1432.04
923.691	1749.48
923.868	1884.64
924.045	1405.42
924.222	1477.1
924.399	1716.71
924.575	1958.37
924.752	1520.1
924.929	1602.02
925.105	1780.2
925.282	1581.54
925.459	1526.25
925.635	1427.95
925.812	1632.74
925.989	1556.97
926.165	1569.26
926.342	1386.99
926.518	1372.65
926.695	1724.9
926.871	1370.6
927.048	1346.03
927.224	1839.59
927.401	1542.63
927.577	1456.62
927.754	1329.64
927.93	1941.99
928.107	1763.81
928.283	1206.77
928.459	1534.44
928.636	1726.95
928.812	1595.88
928.988	1325.55
929.165	1192.43
929.341	1585.64
929.517	1802.72
929.693	1624.55
929.87	1032.69
930.046	1681.89
930.222	1481.19
930.398	1231.34
930.574	1438.19
930.751	1528.3
930.927	1495.53
931.103	1397.23
931.279	1513.96
931.455	1362.41
931.631	1634.79
931.807	1100.27
931.983	1161.71
932.159	1208.81
932.335	1401.32
932.511	1331.69
932.687	1206.77
932.863	1591.78
933.039	1530.34
933.215	1190.38
933.391	1055.22
933.566	1389.03
933.742	1632.74
933.918	1202.67
934.094	989.68
934.27	1325.55
934.445	1417.71
934.621	1200.62
934.797	1094.13
934.973	1532.39
935.148	1444.33
935.324	1034.74
935.5	893.43
935.675	1567.21
935.851	1462.76
936.027	1024.5
936.202	1163.76
936.378	1405.42
936.553	1280.49
936.729	1534.44
936.904	1026.54
937.08	942.58
937.255	1085.94
937.431	1001.97
937.606	883.19
937.782	1034.74
937.957	1188.33
938.133	1049.07
938.308	713.21
938.483	1085.94
938.659	907.76
938.834	879.09
939.009	831.99
939.185	1028.59
939.36	905.71
939.535	514.55
939.71	879.09
939.886	1288.68
940.061	1196.53
940.236	1014.26
940.411	766.45
940.586	1100.27
940.761	1128.94
940.937	748.02
941.112	575.99
941.287	961.01
941.462	1026.54
941.637	561.66
941.812	739.83
941.987	1057.26
942.162	926.19
942.337	860.66
942.512	666.1
942.687	1208.81
942.862	1059.31
943.037	563.7
943.212	338.43
943.386	854.51
943.561	936.43
943.736	887.28
943.911	1042.93
944.086	985.58
944.26	1004.02
944.435	578.04
944.61	729.59
944.785	1204.72
944.959	1292.78
945.134	778.74
945.309	524.79
945.483	662.01
945.658	1112.56
945.833	338.43
946.007	442.87
946.182	1188.33
946.357	567.8
946.531	559.61
946.706	565.75
946.88	485.88
947.055	944.63
947.229	551.42
947.404	455.16
947.578	1061.36
947.752	756.21
947.927	485.88
948.101	403.96
948.276	981.49
948.45	901.62
948.624	791.03
948.799	604.66
948.973	956.91
949.147	526.84
949.321	721.4
949.496	612.85
949.67	1096.18
949.844	795.12
950.018	588.28
950.193	528.89
950.367	1372.65
950.541	815.6
950.715	719.35
950.889	881.14
951.063	762.36
951.237	1001.97
951.411	434.68
951.585	518.65
951.759	893.43
951.933	791.03
952.107	561.66
952.281	825.84
952.455	1231.34
952.629	1022.45
952.803	584.18
952.977	522.74
953.151	1059.31
953.325	889.33
953.499	739.83
953.672	498.17
953.846	731.64
954.02	743.92
954.194	659.96
954.368	553.46
954.541	893.43
954.715	641.53
954.889	754.16
955.062	567.8
955.236	825.84
955.41	776.69
955.583	741.88
955.757	522.74
955.93	707.06
956.104	567.8
956.278	590.33
956.451	657.91
956.625	961.01
956.798	1243.63
956.972	881.14
957.145	459.26
957.319	846.32
957.492	788.98
957.665	737.78
957.839	575.99
958.012	956.91
958.185	739.83
958.359	674.29
958.532	827.89
958.705	1008.11
958.879	930.29
959.052	772.6
959.225	391.67
959.398	778.74
959.572	1004.02
959.745	541.18
959.918	717.3
960.091	737.78
960.264	903.67
960.438	512.5
960.611	514.55
960.784	989.68
960.957	680.44
961.13	997.87
961.303	502.26
961.476	776.69
961.649	1030.64
961.822	469.5
961.995	657.91
962.168	958.96
962.341	766.45
962.514	524.79
962.686	586.23
962.859	954.87
963.032	825.84
963.205	479.74
963.378	375.29
963.551	1004.02
963.723	797.17
963.896	657.91
964.069	776.69
964.242	858.61
964.414	1120.75
964.587	608.76
964.76	674.29
964.932	940.53
965.105	750.07
965.278	637.43
965.45	555.51
965.623	872.95
965.795	879.09
965.968	541.18
966.14	666.1
966.313	774.64
966.485	895.47
966.658	524.79
966.83	535.03
967.003	1036.78
967.175	1032.69
967.348	549.37
967.52	668.15
967.692	1092.08
967.865	1001.97
968.037	600.57
968.209	885.23
968.382	760.31
968.554	991.73
968.726	598.52
968.898	446.97
969.071	862.71
969.243	932.34
969.415	621.05
969.587	678.39
969.759	1239.53
969.932	928.24
970.104	655.86
970.276	334.33
970.448	692.73
970.62	694.77
970.792	758.26
970.964	707.06
971.136	1346.03
971.308	903.67
971.48	481.78
971.652	565.75
971.824	1178.09
971.996	723.44
972.168	584.18
972.339	559.61
972.511	1032.69
972.683	719.35
972.855	821.75
973.027	666.1
973.199	803.32
973.37	971.25
973.542	686.58
973.714	702.97
973.886	784.88
974.057	967.15
974.229	578.04
974.401	498.17
974.572	559.61
974.744	365.05
974.915	565.75
975.087	455.16
975.259	1092.08
975.43	694.77
975.602	524.79
975.773	332.28
975.945	584.18
976.116	969.2
976.288	500.22
976.459	678.39
976.63	588.28
976.802	872.95
976.973	475.64
977.145	631.29
977.316	1110.51
977.487	1159.66
977.659	766.45
977.83	600.57
978.001	1151.47
978.172	858.61
978.344	594.42
978.515	575.99
978.686	666.1
978.857	1079.79
979.028	547.32
979.2	510.46
979.371	1069.55
979.542	780.79
979.713	643.57
979.884	92.67
980.055	631.29
980.226	707.06
980.397	461.3
980.568	463.35
980.739	952.82
980.91	717.3
981.081	735.73
981.252	412.15
981.423	932.34
981.594	1006.06
981.765	455.16
981.936	659.96
982.106	758.26
982.277	1001.97
982.448	502.26
982.619	715.25
982.79	653.81
982.96	979.44
983.131	698.87
983.302	256.51
983.472	649.72
983.643	834.04
983.814	604.66
983.984	518.65
984.155	731.64
984.326	987.63
984.496	571.9
984.667	494.07
984.837	625.14
985.008	1110.51
985.178	682.49
985.349	502.26
985.519	731.64
985.69	453.11
985.86	463.35
986.031	381.43
986.201	682.49
986.371	870.9
986.542	383.48
986.712	301.56
986.882	834.04
987.053	858.61
987.223	449.02
987.393	563.7
987.563	623.09
987.734	788.98
987.904	741.88
988.074	356.86
988.244	731.64
988.414	557.56
988.585	469.5
988.755	592.37
988.925	725.49
989.095	1006.06
989.265	371.19
989.435	543.22
989.605	825.84
989.775	897.52
989.945	690.68
990.115	338.43
990.285	659.96
990.455	834.04
990.625	520.7
990.795	418.3
990.965	952.82
991.134	428.54
991.304	360.95
991.474	395.77
991.644	772.6
991.814	1020.4
991.984	246.27
992.153	387.58
992.323	668.15
992.493	678.39
992.662	240.12
992.832	520.7
993.002	754.16
993.171	678.39
993.341	252.41
993.511	535.03
993.68	440.83
993.85	811.51
994.019	291.32
994.189	244.22
994.358	698.87
994.528	514.55
994.697	184.83
994.867	219.64
995.036	811.51
995.206	530.94
995.375	311.8
995.544	567.8
995.714	600.57
995.883	616.95
996.052	428.54
996.222	143.87
996.391	1085.94
996.56	737.78
996.73	246.27
996.899	242.17
997.068	977.39
997.237	690.68
997.406	317.95
997.576	145.92
997.745	694.77
997.914	723.44
998.083	125.44
998.252	266.75
998.421	647.67
998.59	412.15
998.759	172.54
998.928	160.25
999.097	872.95
999.266	664.05
999.435	397.82
999.604	100.86
999.773	1120.75
999.942	569.85
1000.111	100.86
1000.28	113.15
1000.448	313.85
1000.617	365.05
1000.786	479.74
1000.955	133.63
1001.124	674.29
1001.292	1251.82
1001.461	215.55
1001.63	201.21
1001.798	965.11
1001.967	799.22
1002.136	121.34
1002.304	197.12
1002.473	602.61
1002.642	651.77
1002.81	268.8
1002.979	197.12
1003.147	784.88
1003.316	1087.98
1003.484	315.9
1003.653	186.88
1003.821	840.18
1003.99	592.37
1004.158	406.01
1004.327	342.52
1004.495	627.19
1004.663	492.02
1004.832	371.19
1005	2.56
1005.168	610.81
1005.337	547.32
1005.505	117.25
1005.673	420.35
1005.842	651.77
1006.01	643.57
1006.178	94.72
1006.346	178.69
1006.514	643.57
1006.683	745.97
1006.851	160.25
1007.019	59.9
1007.187	346.62
1007.355	125.44
1007.523	-3.58
1007.691	80.38
1007.859	231.93
1008.027	1026.54
1008.195	150.01
1008.363	-5.63
1008.531	762.36
1008.699	379.39
1008.867	55.81
1009.035	141.82
1009.203	819.7
1009.37	424.44
1009.538	225.79
1009.706	578.04
1009.874	592.37
1010.042	461.3
1010.209	64
1010.377	66.05
1010.545	735.73
1010.713	553.46
1010.88	137.73
1011.048	256.51
1011.216	387.58
1011.383	780.79
1011.551	168.45
1011.718	131.58
1011.886	682.49
1012.054	506.36
1012.221	2.56
1012.389	168.45
1012.556	551.42
1012.724	950.77
1012.891	207.36
1013.058	-15.87
1013.226	596.47
1013.393	616.95
1013.561	-22.02
1013.728	-5.63
1013.895	780.79
1014.063	616.95
1014.23	-30.21
1014.397	129.53
1014.565	690.68
1014.732	399.87
1014.899	45.57
1015.066	25.09
1015.233	504.31
1015.401	563.7
1015.568	158.21
1015.735	147.97
1015.902	465.4
1016.069	485.88
1016.236	129.53
1016.403	37.38
1016.57	272.89
1016.737	723.44
1016.904	152.06
1017.071	23.04
1017.238	297.47
1017.405	647.67
1017.572	178.69
1017.739	268.8
1017.906	641.53
1018.073	680.44
1018.24	18.94
1018.407	117.25
1018.573	715.25
1018.74	375.29
1018.907	201.21
1019.074	-36.35
1019.241	641.53
1019.407	465.4
1019.574	16.9
1019.741	-50.69
1019.907	647.67
1020.074	502.26
1020.241	-99.84
1020.407	43.52
1020.574	561.66
1020.74	549.37
1020.907	184.83
1021.073	31.23
1021.24	936.43
1021.406	813.56
1021.573	-17.92
1021.739	10.75
1021.906	696.82
1022.072	373.24
1022.239	74.24
1022.405	78.33
1022.571	440.83
1022.738	281.08
1022.904	76.29
1023.07	113.15
1023.237	535.03
1023.403	639.48
1023.569	23.04
1023.735	117.25
1023.902	459.26
1024.068	524.79
1024.234	2.56
1024.4	57.86
1024.566	516.6
1024.732	633.33
1024.898	61.95
1025.065	-130.56
1025.231	555.51
1025.397	342.52
1025.563	27.14
1025.729	14.85
1025.895	113.15
1026.061	272.89
1026.227	-120.32
1026.392	143.87
1026.558	621.05
1026.724	553.46
1026.89	-38.4
1027.056	119.29
1027.222	455.16
1027.388	252.41
1027.553	6.66
1027.719	29.18
1027.885	780.79
1028.051	496.12
1028.216	-169.47
1028.382	150.01
1028.548	619
1028.713	328.19
1028.879	-159.23
1029.045	129.53
1029.21	666.1
1029.376	588.28
1029.541	57.86
1029.707	-46.59
1029.873	535.03
1030.038	619
1030.204	-69.12
1030.369	78.33
1030.534	602.61
1030.7	268.8
1030.865	35.33
1031.031	-5.63
1031.196	567.8
1031.361	375.29
1031.527	-24.06
1031.692	-79.36
1031.857	-40.45
1032.023	518.65
1032.188	31.23
1032.353	78.33
1032.518	702.97
1032.684	403.96
1032.849	-126.46
1033.014	51.71
1033.179	575.99
1033.344	516.6
1033.509	109.05
1033.674	37.38
1033.839	518.65
1034.004	502.26
1034.17	-46.59
1034.335	-230.91
1034.5	324.09
1034.664	281.08
1034.829	-91.65
1034.994	41.47
1035.159	377.34
1035.324	352.76
1035.489	64
1035.654	-75.26
1035.819	752.12
1035.984	449.02
1036.148	51.71
1036.313	14.85
1036.478	645.62
1036.643	299.52
1036.807	-56.83
1036.972	-91.65
1037.137	647.67
1037.301	387.58
1037.466	-222.72
1037.631	35.33
1037.795	532.98
1037.96	395.77
1038.124	127.49
1038.289	-93.69
1038.454	506.36
1038.618	580.09
1038.783	35.33
1038.947	39.42
1039.111	399.87
1039.276	217.6
1039.44	-60.93
1039.605	465.4
1039.769	297.47
1039.933	344.57
1040.098	-1.54
1040.262	88.57
1040.426	528.89
1040.591	457.21
1040.755	-120.32
1040.919	-17.92
1041.083	481.78
1041.248	205.31
1041.412	-189.95
1041.576	-73.21
1041.74	340.47
1041.904	561.66
1042.068	-155.13
1042.232	39.42
1042.397	578.04
1042.561	465.4
1042.725	-255.48
1042.889	109.05
1043.053	514.55
1043.217	487.93
1043.381	68.09
1043.544	-228.86
1043.708	614.9
1043.872	119.29
1044.036	-292.35
1044.2	-132.61
1044.364	655.86
1044.528	715.25
1044.691	2884.05
1044.855	-189.95
1045.019	539.13
1045.183	528.89
1045.346	-5.63
1045.51	-101.89
1045.674	416.25
1045.837	438.78
1046.001	-5.63
1046.165	-83.45
1046.328	918
1046.492	446.97
1046.655	133.63
1046.819	43.52
1046.983	121.34
1047.146	385.53
1047.31	113.15
1047.473	-169.47
1047.636	332.28
1047.8	199.16
1047.963	-36.35
1048.127	-93.69
1048.29	133.63
