Data from Ink_Intensity_USB4F045381__46__00046.txt Node

Date: Mon Jul 17 10:11:23 EDT 2023
User: mmckonesweet
Spectrometer: USB4F04538
Trigger mode: 4
Integration Time (sec): 9.000000E-1
Scans to average: 1
Electric dark correction enabled: true
Nonlinearity correction enabled: false
Boxcar width: 0
XAxis mode: Wavelengths
Number of Pixels in Spectrum: 3648
>>>>>Begin Spectral Data<<<<<
345.52	-1002.31
345.736	-1002.31
345.952	-1002.31
346.168	-975.69
346.384	-1063.75
346.6	-199.51
346.816	-234.32
347.032	-150.36
347.248	316.58
347.464	-260.95
347.68	-58.2
347.896	23.72
348.112	449.7
348.328	-74.58
348.544	-97.11
348.76	38.06
348.975	246.95
349.191	-285.52
349.407	-224.08
349.623	3.24
349.839	-105.3
350.055	-162.64
350.27	19.63
350.486	119.98
350.702	312.49
350.918	142.5
351.133	-258.9
351.349	130.22
351.565	443.56
351.781	-297.81
351.996	-33.62
352.212	283.81
352.428	-181.07
352.644	-265.04
352.859	-334.67
353.075	140.46
353.291	-88.92
353.506	-172.88
353.722	-246.61
353.938	-76.63
354.153	412.84
354.369	152.74
354.584	-246.61
354.8	216.23
355.016	-428.88
355.231	-301.9
355.447	-131.92
355.662	93.35
355.878	865.44
356.093	-351.06
356.309	-93.01
356.524	-322.38
356.74	232.62
356.955	-240.47
357.171	-43.86
357.386	99.5
357.602	-262.99
357.817	-111.44
358.033	-207.7
358.248	388.26
358.464	15.53
358.679	-166.74
358.895	-435.02
359.11	1.19
359.325	271.53
359.541	-21.33
359.756	-84.82
359.972	-328.53
360.187	111.78
360.402	-156.5
360.618	-236.37
360.833	996.51
361.048	160.94
361.264	-226.13
361.479	-109.4
361.694	-47.96
361.909	128.17
362.125	-336.72
362.34	-176.98
362.555	222.38
362.77	-37.72
362.986	-346.96
363.201	-201.55
363.416	142.5
363.631	-23.38
363.847	-207.7
364.062	-246.61
364.277	208.04
364.492	40.11
364.707	-189.27
364.922	-383.82
365.138	210.09
365.353	281.77
365.568	-246.61
365.783	-226.13
365.998	-35.67
366.213	511.14
366.428	-224.08
366.643	-29.52
366.858	289.96
367.073	156.84
367.288	-101.2
367.503	-240.47
367.718	54.44
367.933	208.04
368.148	-344.91
368.363	-80.72
368.578	5.29
368.793	361.64
369.008	-207.7
369.223	-224.08
369.438	238.76
369.653	390.31
369.868	-301.9
370.083	-306
370.298	5.29
370.513	406.69
370.728	-17.24
370.943	-148.31
371.157	-197.46
371.372	404.64
371.587	-265.04
371.802	-303.95
372.017	3.24
372.232	406.69
372.446	-52.05
372.661	-293.71
372.876	193.7
373.091	33.96
373.306	-84.82
373.52	-277.33
373.735	-277.33
373.95	404.64
374.165	-142.16
374.379	-123.73
374.594	-199.51
374.809	1.19
375.023	42.15
375.238	-267.09
375.453	136.36
375.667	-258.9
375.882	-215.89
376.097	-301.9
376.311	1.19
376.526	-84.82
376.741	-260.95
376.955	66.73
377.17	443.56
377.384	529.57
377.599	-82.77
377.813	-322.38
378.028	548
378.242	138.41
378.457	-183.12
378.672	-418.64
378.886	38.06
379.101	-86.87
379.315	-381.78
379.53	-160.59
379.744	70.83
379.958	201.9
380.173	-191.31
380.387	-232.27
380.602	179.37
380.816	-238.42
381.031	-150.36
381.245	-168.79
381.459	150.7
381.674	2567.3
381.888	-205.65
382.103	-37.72
382.317	-273.23
382.531	504.99
382.746	-179.03
382.96	-236.37
383.174	-158.55
383.388	351.4
383.603	-0.85
383.817	-355.15
384.031	124.07
384.246	404.64
384.46	-29.52
384.674	349.35
384.888	-72.53
385.103	21.67
385.317	-265.04
385.531	-105.3
385.745	347.3
385.959	230.57
386.174	-260.95
386.388	-248.66
386.602	-23.38
386.816	-29.52
387.03	-193.36
387.244	-88.92
387.458	85.16
387.672	226.47
387.887	-256.85
388.101	-344.91
388.315	304.29
388.529	7.34
388.743	-144.21
388.957	-279.38
389.171	265.38
389.385	-344.91
389.599	-158.55
389.813	-0.85
390.027	111.78
390.241	648.35
390.455	-162.64
390.669	-140.12
390.883	-54.1
391.097	349.35
391.311	-11.09
391.525	-248.66
391.738	134.31
391.952	29.87
392.166	-60.24
392.38	-324.43
392.594	214.18
392.808	314.53
393.022	-162.64
393.236	-84.82
393.449	156.84
393.663	97.45
393.877	-310.1
394.091	-70.48
394.305	-107.35
394.518	-207.7
394.732	-322.38
394.946	-224.08
395.16	431.27
395.373	103.59
395.587	-269.14
395.801	-228.18
396.015	232.62
396.228	199.85
396.442	-293.71
396.656	-412.5
396.869	226.47
397.083	384.16
397.297	-109.4
397.51	-250.71
397.724	294.05
397.938	56.49
398.151	-359.25
398.365	-314.19
398.578	242.85
398.792	304.29
399.005	-119.64
399.219	-189.27
399.433	38.06
399.646	128.17
399.86	-2.9
400.073	52.39
400.287	162.98
400.5	-52.05
400.714	-68.44
400.927	-133.97
401.141	212.14
401.354	1049.75
401.567	128.17
401.781	-252.75
401.994	187.56
402.208	572.58
402.421	-138.07
402.635	-172.88
402.848	-13.14
403.061	232.62
403.275	-105.3
403.488	-205.65
403.701	447.65
403.915	205.99
404.128	11.43
404.341	-260.95
404.555	97.45
404.768	-82.77
404.981	-99.16
405.195	-228.18
405.408	459.94
405.621	255.14
405.834	-29.52
406.048	-230.23
406.261	357.54
406.474	400.55
406.687	-209.75
406.9	-50
407.114	-95.06
407.327	122.02
407.54	-326.48
407.753	-400.21
407.966	-154.45
408.179	179.37
408.392	-240.47
408.605	-412.5
408.819	-4.95
409.032	175.27
409.245	-199.51
409.458	50.35
409.671	91.31
409.884	273.57
410.097	-336.72
410.31	-58.2
410.523	187.56
410.736	-56.15
410.949	-138.07
411.162	-199.51
411.375	349.35
411.588	201.9
411.801	33.96
412.014	-213.84
412.227	-4.95
412.44	-179.03
412.653	-187.22
412.865	-4.95
413.078	242.85
413.291	162.98
413.504	-101.2
413.717	-248.66
413.93	201.9
414.143	-105.3
414.356	-158.55
414.568	-367.44
414.781	187.56
414.994	97.45
415.207	-66.39
415.42	-58.2
415.632	173.22
415.845	412.84
416.058	-314.19
416.271	-334.67
416.483	-39.76
416.696	423.08
416.909	-248.66
417.121	-242.51
417.334	117.93
417.547	414.88
417.759	-213.84
417.972	-256.85
418.185	-78.68
418.397	177.32
418.61	-252.75
418.823	-224.08
419.035	447.65
419.248	13.48
419.46	-215.89
419.673	-119.64
419.885	124.07
420.098	-99.16
420.311	-117.59
420.523	-365.39
420.736	177.32
420.948	9.39
421.161	-138.07
421.373	-435.02
421.586	74.92
421.798	-121.68
422.01	-349.01
422.223	-52.05
422.435	-88.92
422.648	132.26
422.86	-224.08
423.073	-226.13
423.285	205.99
423.497	-312.14
423.71	-234.32
423.922	-224.08
424.134	74.92
424.347	226.47
424.559	38.06
424.771	7.34
424.984	-117.59
425.196	154.79
425.408	-420.69
425.621	-299.86
425.833	267.43
426.045	228.52
426.257	-289.62
426.47	-219.99
426.682	156.84
426.894	115.88
427.106	-236.37
427.318	-152.4
427.531	-103.25
427.743	162.98
427.955	-172.88
428.167	218.28
428.379	119.98
428.591	-66.39
428.804	-219.99
429.016	-267.09
429.228	-195.41
429.44	105.64
429.652	-2.9
429.864	-240.47
430.076	-11.09
430.288	-56.15
430.5	-146.26
430.712	-201.55
430.924	255.14
431.136	119.98
431.348	-402.26
431.56	-279.38
431.772	19.63
431.984	-148.31
432.196	-228.18
432.408	-236.37
432.62	-146.26
432.832	58.54
433.044	23.72
433.256	-121.68
433.468	195.75
433.679	-295.76
433.891	-254.8
434.103	15.53
434.315	287.91
434.527	165.03
434.739	-101.2
434.95	-199.51
435.162	255.14
435.374	-136.02
435.586	-187.22
435.798	-244.56
436.009	-265.04
436.221	-35.67
436.433	-238.42
436.645	-222.03
436.856	-72.53
437.068	308.39
437.28	-232.27
437.491	-0.85
437.703	142.5
437.915	113.83
438.126	-158.55
438.338	31.91
438.55	-113.49
438.761	210.09
438.973	-136.02
439.184	-123.73
439.396	-70.48
439.608	287.91
439.819	-271.19
440.031	-125.78
440.242	197.8
440.454	142.5
440.665	-181.07
440.877	-76.63
441.088	181.42
441.3	-41.81
441.511	-306
441.723	-205.65
441.934	99.5
442.146	81.07
442.357	9.39
442.569	126.12
442.78	25.77
442.991	457.89
443.203	138.41
443.414	-301.9
443.626	320.68
443.837	-174.93
444.048	-283.47
444.26	-322.38
444.471	-23.38
444.682	228.52
444.894	-367.44
445.105	-338.77
445.316	156.84
445.528	107.69
445.739	-27.48
445.95	-197.46
446.161	81.07
446.373	345.25
446.584	-166.74
446.795	-195.41
447.006	238.76
447.217	439.46
447.429	-361.3
447.64	-256.85
447.851	263.33
448.062	27.82
448.273	-363.34
448.484	-303.95
448.695	171.18
448.907	-41.81
449.118	-121.68
449.329	-7
449.54	-58.2
449.751	-219.99
449.962	-193.36
450.173	-164.69
450.384	330.92
450.595	357.54
450.806	-203.6
451.017	-183.12
451.228	339.11
451.439	210.09
451.65	-207.7
451.861	-361.3
452.072	-271.19
452.283	23.72
452.494	-70.48
452.705	-260.95
452.915	437.41
453.126	126.12
453.337	-74.58
453.548	-174.93
453.759	357.54
453.97	543.91
454.181	79.02
454.391	-232.27
454.602	124.07
454.813	189.61
455.024	-37.72
455.235	-170.83
455.445	15.53
455.656	111.78
455.867	-17.24
456.078	-215.89
456.288	-123.73
456.499	128.17
456.71	-230.23
456.921	23.72
457.131	105.64
457.342	46.25
457.553	-105.3
457.763	-201.55
457.974	185.51
458.184	171.18
458.395	-183.12
458.606	-281.43
458.816	324.77
459.027	476.32
459.237	-35.67
459.448	-355.15
459.659	341.16
459.869	459.94
460.08	-357.2
460.29	-123.73
460.501	410.79
460.711	-146.26
460.922	-355.15
461.132	-166.74
461.343	666.78
461.553	-236.37
461.764	-222.03
461.974	-217.94
462.184	152.74
462.395	156.84
462.605	-168.79
462.816	-226.13
463.026	3.24
463.236	312.49
463.447	-320.34
463.657	-201.55
463.867	275.62
464.078	-25.43
464.288	-117.59
464.498	-254.8
464.709	101.55
464.919	23.72
465.129	-82.77
465.339	-271.19
465.55	199.85
465.76	214.18
465.97	-189.27
466.18	-199.51
466.391	324.77
466.601	158.89
466.811	-117.59
467.021	-318.29
467.231	179.37
467.441	328.87
467.651	-133.97
467.862	-435.02
468.072	50.35
468.282	351.4
468.492	-244.56
468.702	-93.01
468.912	29.87
469.122	609.44
469.332	83.11
469.542	-209.75
469.752	275.62
469.962	38.06
470.172	-342.86
470.382	-279.38
470.592	306.34
470.802	322.73
471.012	-43.86
471.222	-195.41
471.432	312.49
471.642	197.8
471.852	-109.4
472.062	-215.89
472.272	21.67
472.482	-201.55
472.691	-316.24
472.901	-293.71
473.111	66.73
473.321	582.82
473.531	-287.57
473.741	-84.82
473.95	132.26
474.16	269.48
474.37	-68.44
474.58	-301.9
474.79	457.89
474.999	310.44
475.209	-189.27
475.419	-95.06
475.628	54.44
475.838	410.79
476.048	-125.78
476.258	-306
476.467	394.4
476.677	-7
476.886	50.35
477.096	-43.86
477.306	-27.48
477.515	355.49
477.725	-109.4
477.935	-133.97
478.144	382.12
478.354	-9.05
478.563	-113.49
478.773	-107.35
478.982	343.21
479.192	382.12
479.401	-107.35
479.611	-258.9
479.82	-19.29
480.03	103.59
480.239	-140.12
480.449	-287.57
480.658	382.12
480.868	-11.09
481.077	-21.33
481.287	-142.16
481.496	242.85
481.705	439.46
481.915	105.64
482.124	124.07
482.333	177.32
482.543	455.84
482.752	-88.92
482.961	-224.08
483.171	289.96
483.38	81.07
483.589	-9.05
483.799	-148.31
484.008	195.75
484.217	316.58
484.426	-39.76
484.636	-185.17
484.845	232.62
485.054	-230.23
485.263	222.38
485.472	-103.25
485.682	509.09
485.891	95.4
486.1	-166.74
486.309	-68.44
486.518	349.35
486.727	453.8
486.936	-97.11
487.146	38.06
487.355	359.59
487.564	-66.39
487.773	-90.96
487.982	-123.73
488.191	36.01
488.4	140.46
488.609	-82.77
488.818	-50
489.027	685.22
489.236	459.94
489.445	-123.73
489.654	-146.26
489.863	423.08
490.072	169.13
490.281	208.04
490.49	-72.53
490.698	552.1
490.907	584.87
491.116	36.01
491.325	-215.89
491.534	500.9
491.743	242.85
491.952	31.91
492.16	-70.48
492.369	328.87
492.578	423.08
492.787	-52.05
492.996	-189.27
493.204	83.11
493.413	668.83
493.622	-262.99
493.831	-219.99
494.039	525.47
494.248	-84.82
494.457	-125.78
494.665	-226.13
494.874	289.96
495.083	599.2
495.291	33.96
495.5	-133.97
495.709	345.25
495.917	318.63
496.126	54.44
496.335	-82.77
496.543	29.87
496.752	300.2
496.96	273.57
497.169	-158.55
497.377	111.78
497.586	511.14
497.794	115.88
498.003	-150.36
498.211	165.03
498.42	558.24
498.628	7.34
498.837	-119.64
499.045	367.78
499.254	253.09
499.462	-39.76
499.671	21.67
499.879	531.62
500.087	525.47
500.296	-4.95
500.504	-74.58
500.713	416.93
500.921	722.08
501.129	-68.44
501.338	-11.09
501.546	302.25
501.754	242.85
501.962	62.63
502.171	-111.44
502.379	353.45
502.587	674.98
502.795	89.26
503.004	23.72
503.212	218.28
503.42	640.16
503.628	-19.29
503.837	62.63
504.045	447.65
504.253	677.02
504.461	-9.05
504.669	-123.73
504.877	464.04
505.085	695.46
505.294	-146.26
505.502	246.95
505.71	324.77
505.918	529.57
506.126	-90.96
506.334	-52.05
506.542	203.94
506.75	343.21
506.958	115.88
507.166	70.83
507.374	199.85
507.582	717.98
507.79	103.59
507.998	56.49
508.206	445.6
508.414	349.35
508.622	62.63
508.83	74.92
509.037	748.7
509.245	228.52
509.453	33.96
509.661	-41.81
509.869	488.61
510.077	257.19
510.285	152.74
510.492	-156.5
510.7	998.56
510.908	324.77
511.116	72.87
511.324	56.49
511.531	195.75
511.739	410.79
511.947	181.42
512.155	418.98
512.362	316.58
512.57	56.49
512.778	-39.76
512.985	-101.2
513.193	548
513.401	767.13
513.608	109.74
513.816	111.78
514.024	388.26
514.231	640.16
514.439	130.22
514.646	52.39
514.854	595.11
515.061	601.25
515.269	91.31
515.477	91.31
515.684	148.65
515.892	574.63
516.099	-35.67
516.307	-50
516.514	566.43
516.722	693.41
516.929	144.55
517.136	-7
517.344	709.79
517.551	443.56
517.759	54.44
517.966	126.12
518.173	249
518.381	398.5
518.588	193.7
518.796	105.64
519.003	640.16
519.21	324.77
519.418	99.5
519.625	408.74
519.832	382.12
520.039	437.41
520.247	-60.24
520.454	117.93
520.661	541.86
520.868	507.04
521.076	171.18
521.283	203.94
521.49	892.06
521.697	459.94
521.904	242.85
522.112	244.9
522.319	615.59
522.526	480.42
522.733	91.31
522.94	64.68
523.147	474.28
523.354	588.96
523.561	-27.48
523.768	218.28
523.975	627.87
524.183	345.25
524.39	228.52
524.597	-56.15
524.804	398.5
525.011	283.81
525.218	144.55
525.425	169.13
525.632	740.51
525.838	259.24
526.045	124.07
526.252	148.65
526.459	1483.92
526.666	1272.98
526.873	169.13
527.08	208.04
527.287	816.29
527.494	599.2
527.701	5.29
527.907	185.51
528.114	490.66
528.321	404.64
528.528	115.88
528.735	187.56
528.941	285.86
529.148	267.43
529.355	308.39
529.562	189.61
529.768	988.32
529.975	431.27
530.182	232.62
530.388	115.88
530.595	730.27
530.802	234.66
531.008	365.73
531.215	226.47
531.422	1246.36
531.628	1170.58
531.835	435.36
532.042	281.77
532.248	332.97
532.455	521.38
532.661	285.86
532.868	263.33
533.074	541.86
533.281	701.6
533.487	292.01
533.694	122.02
533.9	285.86
534.107	591.01
534.313	214.18
534.52	165.03
534.726	701.6
534.933	986.27
535.139	189.61
535.345	201.9
535.552	658.59
535.758	496.8
535.965	263.33
536.171	238.76
536.377	775.33
536.584	804
536.79	326.82
536.996	392.36
537.203	605.35
537.409	588.96
537.615	271.53
537.821	472.23
538.028	797.85
538.234	660.64
538.44	332.97
538.646	425.12
538.853	754.85
539.059	482.47
539.265	705.7
539.471	117.93
539.677	750.75
539.883	533.67
540.09	265.38
540.296	726.18
540.502	492.71
540.708	406.69
540.914	466.08
541.12	306.34
541.326	812.19
541.532	509.09
541.738	392.36
541.944	414.88
542.15	883.87
542.356	539.81
542.562	246.95
542.768	408.74
542.974	1150.11
543.18	1033.37
543.386	312.49
543.592	210.09
543.798	1008.8
544.004	861.34
544.21	355.49
544.415	423.08
544.621	681.12
544.827	861.34
545.033	205.99
545.239	507.04
545.445	466.08
545.651	717.98
545.856	355.49
546.062	398.5
546.268	554.15
546.474	693.41
546.679	361.64
546.885	414.88
547.091	558.24
547.297	1100.95
547.502	480.42
547.708	421.03
547.914	535.71
548.119	763.04
548.325	363.69
548.531	259.24
548.736	982.17
548.942	484.52
549.147	318.63
549.353	640.16
549.559	971.93
549.764	834.72
549.97	418.98
550.175	445.6
550.381	758.94
550.586	539.81
550.792	427.17
550.997	451.75
551.203	818.33
551.408	890.01
551.614	347.3
551.819	363.69
552.025	1141.91
552.23	1086.62
552.435	396.45
552.641	683.17
552.846	488.61
553.052	1064.09
553.257	603.3
553.462	386.21
553.668	586.91
553.873	1010.84
554.078	371.88
554.283	453.8
554.489	881.82
554.694	709.79
554.899	435.36
555.105	724.13
555.31	873.63
555.515	898.2
555.72	525.47
555.925	427.17
556.131	1000.6
556.336	621.73
556.541	537.76
556.746	410.79
556.951	967.84
557.156	1287.32
557.361	666.78
557.567	677.02
557.772	1324.18
557.977	930.97
558.182	486.56
558.387	445.6
558.592	578.72
558.797	1115.29
559.002	642.21
559.207	720.03
559.412	906.4
559.617	1229.98
559.822	605.35
560.027	441.51
560.232	947.36
560.437	1047.71
560.642	408.74
560.847	375.97
561.051	869.53
561.256	955.55
561.461	556.19
561.666	447.65
561.871	928.92
562.076	996.51
562.281	623.78
562.485	529.57
562.69	1049.75
562.895	1037.47
563.1	617.63
563.305	396.45
563.509	1103
563.714	1363.09
563.919	556.19
564.123	572.58
564.328	699.55
564.533	1295.51
564.737	586.91
564.942	668.83
565.147	1281.18
565.351	1426.58
565.556	693.41
565.761	654.5
565.965	906.4
566.17	744.61
566.374	677.02
566.579	404.64
566.784	961.69
566.988	816.29
567.193	480.42
567.397	562.34
567.602	582.82
567.806	892.06
568.011	564.39
568.215	687.26
568.42	847.01
568.624	840.86
568.828	648.35
569.033	849.05
569.237	1123.48
569.442	1131.67
569.646	517.28
569.85	687.26
570.055	881.82
570.259	1074.33
570.463	1008.8
570.668	763.04
570.872	824.48
571.076	816.29
571.281	750.75
571.485	867.49
571.689	916.64
571.893	1137.82
572.098	783.52
572.302	687.26
572.506	973.98
572.71	969.88
572.914	689.31
573.119	631.97
573.323	1246.36
573.527	1268.89
573.731	695.46
573.935	726.18
574.139	1182.87
574.343	773.28
574.547	652.45
574.751	760.99
574.955	1287.32
575.159	1301.65
575.364	746.66
575.568	584.87
575.772	1049.75
575.976	1348.76
576.18	683.17
576.383	588.96
576.587	1279.13
576.791	1201.3
576.995	521.38
577.199	578.72
577.403	1307.8
577.607	1295.51
577.811	713.89
578.015	873.63
578.219	1070.23
578.422	1186.97
578.626	963.74
578.83	930.97
579.034	1191.06
579.238	1008.8
579.442	742.56
579.645	1088.67
579.849	949.4
580.053	1088.67
580.257	799.9
580.46	859.29
580.664	1238.17
580.868	1168.54
581.071	998.56
581.275	894.11
581.479	767.13
581.682	1197.21
581.886	853.15
582.09	945.31
582.293	1252.5
582.497	1254.55
582.7	1107.1
582.904	834.72
583.107	1176.73
583.311	1113.24
583.515	955.55
583.718	992.41
583.922	1217.69
584.125	1545.36
584.329	789.66
584.532	1000.6
584.735	1440.92
584.939	1252.5
585.142	713.89
585.346	777.37
585.549	1223.83
585.753	1004.7
585.956	885.92
586.159	1000.6
586.363	1518.74
586.566	1356.95
586.769	861.34
586.973	787.61
587.176	1240.22
587.379	1535.12
587.582	1260.7
587.786	1141.91
587.989	1078.43
588.192	1651.86
588.395	943.26
588.599	1342.61
588.802	1256.6
589.005	1369.24
589.208	988.32
589.411	865.44
589.615	1414.29
589.818	1582.23
590.021	1219.74
590.224	1160.34
590.427	1414.29
590.63	1531.03
590.833	760.99
591.036	822.43
591.239	1272.98
591.442	1103
591.645	1172.63
591.848	1021.08
592.051	1285.27
592.254	1504.4
592.457	1021.08
592.66	1059.99
592.863	1168.54
593.066	1227.93
593.269	1021.08
593.472	1066.14
593.675	1000.6
593.878	1526.93
594.081	1154.2
594.284	953.5
594.486	1365.14
594.689	1207.45
594.892	1152.15
595.095	992.41
595.298	1418.39
595.5	1174.68
595.703	1180.82
595.906	1115.29
596.109	1631.38
596.311	1549.46
596.514	806.05
596.717	1176.73
596.92	1647.76
597.122	1475.73
597.325	732.32
597.528	1053.85
597.73	1674.39
597.933	1375.38
598.136	1152.15
598.338	853.15
598.541	1514.64
598.743	1627.28
598.946	1078.43
599.148	1131.67
599.351	1588.37
599.554	1518.74
599.756	1307.8
599.959	1113.24
600.161	1627.28
600.363	1975.44
600.566	1457.3
600.768	1119.39
600.971	1770.64
601.173	1545.36
601.376	1137.82
601.578	1152.15
601.78	1498.26
601.983	1952.91
602.185	1014.94
602.388	1356.95
602.59	1494.16
602.792	1227.93
602.995	1383.57
603.197	1197.21
603.399	1598.61
603.601	1502.36
603.804	1254.55
604.006	1041.56
604.208	1449.11
604.41	947.36
604.613	1326.23
604.815	1133.72
605.017	2098.31
605.219	1275.03
605.421	1483.92
605.623	1223.83
605.826	1692.82
606.028	1893.52
606.23	1207.45
606.432	1250.46
606.634	1789.07
606.836	1746.06
607.038	1180.82
607.24	1307.8
607.442	1471.64
607.644	1393.81
607.846	1289.37
608.048	1221.78
608.25	1780.88
608.452	1311.89
608.654	1262.74
608.856	980.12
609.058	1455.25
609.26	1770.64
609.462	1332.37
609.664	1324.18
609.866	1959.05
610.067	1737.87
610.269	1438.87
610.471	1170.58
610.673	1410.2
610.875	1696.91
611.077	1082.52
611.278	1508.5
611.48	1539.22
611.682	2000.01
611.884	1428.63
612.085	1344.66
612.287	1322.13
612.489	1631.38
612.69	1203.35
612.892	1381.53
613.094	1803.41
613.295	1555.6
613.497	1225.88
613.699	1344.66
613.9	1891.47
614.102	1754.26
614.304	1361.05
614.505	1229.98
614.707	1531.03
614.908	1574.03
615.11	1133.72
615.311	1373.33
615.513	1684.62
615.714	1844.37
615.916	1227.93
616.117	1438.87
616.319	1541.27
616.52	1793.17
616.722	1340.57
616.923	1328.28
617.124	1825.93
617.326	1748.11
617.527	1361.05
617.729	1526.93
617.93	1744.02
618.131	1770.64
618.333	1539.22
618.534	1354.9
618.735	1510.55
618.937	2083.98
619.138	1213.59
619.339	1340.57
619.54	1653.91
619.742	1498.26
619.943	1596.56
620.144	1496.21
620.345	1852.56
620.546	1848.46
620.748	1352.85
620.949	1459.35
621.15	1705.1
621.351	1686.67
621.552	1395.86
621.753	1234.07
621.954	1311.89
622.155	2083.98
622.356	1287.32
622.558	1578.13
622.759	1639.57
622.96	2159.75
623.161	1414.29
623.362	1397.91
623.563	1600.66
623.764	1836.17
623.965	1377.43
624.166	1643.67
624.366	1467.54
624.567	1744.02
624.768	1197.21
624.969	1455.25
625.17	1592.47
625.371	1873.04
625.572	1594.51
625.773	1565.84
625.973	1895.57
626.174	1836.17
626.375	1537.17
626.576	1576.08
626.777	1922.19
626.977	2266.25
627.178	1518.74
627.379	1528.98
627.58	1658
627.78	1729.68
627.981	1528.98
628.182	1596.56
628.382	2016.4
628.583	1492.12
628.784	1383.57
628.984	1658
629.185	1954.96
629.386	2012.3
629.586	1698.96
629.787	1399.96
629.987	1803.41
630.188	1750.16
630.388	1619.09
630.589	1643.67
630.79	2356.36
630.99	1846.41
631.191	1612.95
631.391	1586.32
631.591	1983.63
631.792	2204.81
631.992	1617.04
632.193	1641.62
632.393	2145.42
632.594	1836.17
632.794	1629.33
632.994	1750.16
633.195	1840.27
633.395	1733.78
633.595	1528.98
633.796	1735.82
633.996	1633.43
634.196	2163.85
634.397	1559.7
634.597	1692.82
634.797	1559.7
634.997	2167.95
635.198	1914
635.398	1449.11
635.598	1940.62
635.798	2290.82
635.998	2077.83
636.199	1520.79
636.399	1748.11
636.599	1676.43
636.799	1633.43
636.999	1920.14
637.199	1963.15
637.399	2086.03
637.599	1643.67
637.799	1825.93
637.999	1823.89
638.199	2360.45
638.399	1551.51
638.599	1705.1
638.799	1936.53
638.999	2376.84
639.199	1903.76
639.399	1887.37
639.599	2235.53
639.799	1709.2
639.999	1625.23
640.199	1604.75
640.399	1959.05
640.599	2051.21
640.799	1877.13
640.998	2055.31
641.198	2249.86
641.398	1989.77
641.598	1768.59
641.798	1707.15
641.997	2880.64
642.197	1979.53
642.397	1723.54
642.597	1676.43
642.796	2147.47
642.996	2346.12
643.196	1881.23
643.395	1598.61
643.595	2063.5
643.795	1596.56
643.994	1711.25
644.194	1727.63
644.394	2225.29
644.593	2137.23
644.793	1621.14
644.992	2032.78
645.192	2174.09
645.392	1629.33
645.591	1795.22
645.791	1922.19
645.99	2131.08
646.19	1897.61
646.389	1813.65
646.589	1838.22
646.788	2182.28
646.987	2100.36
647.187	2061.45
647.386	2028.68
647.586	2169.99
647.785	2327.69
647.984	1805.46
648.184	1911.95
648.383	2036.88
648.582	2028.68
648.782	1858.7
648.981	1991.82
649.18	1842.32
649.38	2116.75
649.579	1848.46
649.778	1803.41
649.977	2290.82
650.177	2151.56
650.376	1744.02
650.575	1830.03
650.774	2475.14
650.973	1895.57
651.173	1725.58
651.372	1995.92
651.571	2090.12
651.77	2368.65
651.969	1776.78
652.168	2036.88
652.367	1778.83
652.566	2098.31
652.765	1868.94
652.964	2116.75
653.163	2606.21
653.362	2067.6
653.561	1920.14
653.76	1838.22
653.959	1936.53
654.158	2219.14
654.357	2329.74
654.556	1858.7
654.755	2303.11
654.954	2256.01
655.153	2065.55
655.352	1954.96
655.551	2536.58
655.749	2083.98
655.948	2008.2
656.147	2204.81
656.346	2333.83
656.545	2118.79
656.743	2096.27
656.942	2045.07
657.141	2204.81
657.34	1905.81
657.538	1905.81
657.737	1979.53
657.936	2126.99
658.135	2253.96
658.333	1911.95
658.532	1959.05
658.731	2651.27
658.929	2448.52
659.128	2344.07
659.326	1987.72
659.525	2466.95
659.724	2188.43
659.922	1754.26
660.121	1875.09
660.319	2299.02
660.518	1942.67
660.716	1891.47
660.915	1944.72
661.113	2561.16
661.312	2008.2
661.51	2159.75
661.709	2016.4
661.907	2432.13
662.105	2684.03
662.304	2045.07
662.502	2126.99
662.701	2522.24
662.899	2335.88
663.097	2452.61
663.296	1762.45
663.494	2438.28
663.692	2516.1
663.891	1987.72
664.089	1981.58
664.287	2391.17
664.485	2669.7
664.684	2143.37
664.882	2237.58
665.08	2270.34
665.278	2260.1
665.476	1924.24
665.675	2376.84
665.873	2720.9
666.071	2505.86
666.269	1987.72
666.467	2315.4
666.665	2286.73
666.863	2262.15
667.061	2256.01
667.259	1989.77
667.457	2319.5
667.655	2471.04
667.853	1997.96
668.051	2256.01
668.249	2051.21
668.447	2509.96
668.645	1989.77
668.843	2278.54
669.041	2403.46
669.239	2126.99
669.437	2178.19
669.635	2307.21
669.833	2231.43
670.031	2561.16
670.229	2172.04
670.426	2241.67
670.624	2186.38
670.822	2192.52
671.02	2180.23
671.218	2194.57
671.415	2030.73
671.613	2331.78
671.811	2225.29
672.009	2247.82
672.206	2661.51
672.404	2245.77
672.602	2370.69
672.799	2307.21
672.997	2423.94
673.195	2538.63
673.392	2264.2
673.59	2006.16
673.788	2595.97
673.985	1993.87
674.183	2274.44
674.38	2151.56
674.578	2628.74
674.775	2165.9
674.973	2202.76
675.17	2065.55
675.368	2847.87
675.565	2557.06
675.763	2061.45
675.96	2129.03
676.158	2714.75
676.355	2301.06
676.553	2124.94
676.75	2313.35
676.947	2364.55
677.145	2397.32
677.342	2301.06
677.539	2280.58
677.737	2471.04
677.934	2884.73
678.131	2411.65
678.329	2282.63
678.526	2817.15
678.723	2487.43
678.92	2403.46
679.118	2231.43
679.315	2108.55
679.512	2675.84
679.709	2278.54
679.906	2329.74
680.104	2630.79
680.301	2552.96
680.498	2110.6
680.695	2126.99
680.892	2268.3
681.089	2243.72
681.286	2380.93
681.483	2030.73
681.68	2630.79
681.877	2790.53
682.075	2266.25
682.272	2464.9
682.469	2485.38
682.665	2290.82
682.862	2231.43
683.059	1979.53
683.256	2575.49
683.453	2489.48
683.65	2296.97
683.847	2321.54
684.044	2372.74
684.241	2317.45
684.438	2448.52
684.635	2165.9
684.831	2919.55
685.028	2905.21
685.225	2172.04
685.422	2290.82
685.619	2415.75
685.815	2430.09
686.012	2442.37
686.209	2331.78
686.405	2225.29
686.602	2765.95
686.799	2213
686.996	2143.37
687.192	2251.91
687.389	2851.97
687.586	2258.06
687.782	2141.32
687.979	2811.01
688.175	2692.23
688.372	2331.78
688.568	2352.26
688.765	2303.11
688.962	2835.58
689.158	2446.47
689.355	2094.22
689.551	2559.11
689.748	2483.33
689.944	2425.99
690.14	2180.23
690.337	2679.94
690.533	2325.64
690.73	2548.87
690.926	2366.6
691.123	2614.4
691.319	2618.5
691.515	2153.61
691.712	2552.96
691.908	2704.51
692.104	2518.15
692.301	2428.04
692.497	2098.31
692.693	2704.51
692.889	2792.58
693.086	2417.8
693.282	2194.57
693.478	2450.57
693.674	2960.51
693.87	2249.86
694.067	2137.23
694.263	2729.09
694.459	2520.2
694.655	2485.38
694.851	2282.63
695.047	2550.92
695.243	2661.51
695.439	2536.58
695.635	2389.13
695.831	2655.36
696.027	2442.37
696.224	2301.06
696.42	2548.87
696.615	2956.41
696.811	2610.31
697.007	2137.23
697.203	2378.89
697.399	2651.27
697.595	2780.29
697.791	2219.14
697.987	2417.8
698.183	2315.4
698.379	2278.54
698.575	2258.06
698.77	2317.45
698.966	2714.75
699.162	2800.77
699.358	2475.14
699.554	2378.89
699.749	2743.42
699.945	2753.66
700.141	2475.14
700.337	2460.81
700.532	2411.65
700.728	2411.65
700.924	2282.63
701.119	2131.08
701.315	2720.9
701.511	2536.58
701.706	2321.54
701.902	2151.56
702.097	2530.44
702.293	2716.8
702.489	2475.14
702.684	2233.48
702.88	2559.11
703.075	2421.89
703.271	2380.93
703.466	2200.71
703.662	2522.24
703.857	2708.61
704.053	2399.37
704.248	2352.26
704.443	2636.93
704.639	2761.86
704.834	2473.09
705.03	2339.97
705.225	2733.18
705.42	2806.91
705.616	2550.92
705.811	2294.92
706.006	2477.19
706.202	2372.74
706.397	2479.24
706.592	2387.08
706.787	2550.92
706.983	2557.06
707.178	2628.74
707.373	2563.2
707.568	2763.9
707.763	2854.02
707.959	2309.26
708.154	2294.92
708.349	2669.7
708.544	2561.16
708.739	2647.17
708.934	2352.26
709.129	2784.38
709.324	2882.69
709.519	2329.74
709.714	2286.73
709.909	2886.78
710.104	2604.16
710.299	2376.84
710.494	2401.41
710.689	2808.96
710.884	2450.57
711.079	2532.48
711.274	2612.35
711.469	2651.27
711.664	2602.11
711.859	2229.38
712.054	2456.71
712.249	2768
712.443	2849.92
712.638	2196.62
712.833	2348.17
713.028	2548.87
713.223	2495.62
713.417	2583.68
713.612	2284.68
713.807	2786.43
714.002	3140.73
714.196	2462.85
714.391	2335.88
714.586	2798.72
714.78	2540.68
714.975	2425.99
715.17	2389.13
715.364	2491.52
715.559	2743.42
715.754	2012.3
715.948	2368.65
716.143	3028.09
716.337	2696.32
716.532	2673.79
716.726	2239.62
716.921	2686.08
717.115	2999.42
717.31	2303.11
717.504	2817.15
717.699	2540.68
717.893	2837.63
718.088	2145.42
718.282	2237.58
718.476	2532.48
718.671	2718.85
718.865	2360.45
719.059	2374.79
719.254	2595.97
719.448	2776.19
719.642	3720.31
719.837	2274.44
720.031	2784.38
720.225	2905.21
720.419	2565.25
720.614	2460.81
720.808	2770.05
721.002	2481.28
721.196	2391.17
721.39	2448.52
721.585	2995.32
721.779	2821.25
721.973	2401.41
722.167	2190.47
722.361	2636.93
722.555	2712.71
722.749	2372.74
722.943	2460.81
723.137	2358.41
723.331	2692.23
723.525	2438.28
723.719	2282.63
723.913	2800.77
724.107	2864.25
724.301	2282.63
724.495	2292.87
724.689	3001.47
724.883	2827.39
725.077	2313.35
725.271	2419.85
725.465	2901.12
725.659	2563.2
725.853	2421.89
726.046	2309.26
726.24	2432.13
726.434	2825.34
726.628	2329.74
726.822	2507.91
727.015	2983.04
727.209	2958.46
727.403	2434.18
727.596	2239.62
727.79	2876.54
727.984	2843.78
728.177	2503.81
728.371	2466.95
728.565	2788.48
728.758	2403.46
728.952	2221.19
729.146	2309.26
729.339	2927.74
729.533	2632.83
729.726	2505.86
729.92	2339.97
730.113	3069.05
730.307	2905.21
730.5	2350.21
730.694	2337.93
730.887	2505.86
731.081	2782.34
731.274	2307.21
731.468	2321.54
731.661	2542.72
731.854	2557.06
732.048	2540.68
732.241	2292.87
732.435	2415.75
732.628	2591.88
732.821	2524.29
733.014	2348.17
733.208	2356.36
733.401	2665.6
733.594	2458.76
733.788	2380.93
733.981	2864.25
734.174	2761.86
734.367	2382.98
734.56	2481.28
734.754	2919.55
734.947	2581.64
735.14	2382.98
735.333	2516.1
735.526	2880.64
735.719	2481.28
735.912	2325.64
736.105	2387.08
736.298	2788.48
736.491	2415.75
736.684	2415.75
736.877	2475.14
737.07	2798.72
737.263	2999.42
737.456	2462.85
737.649	2307.21
737.842	2446.47
738.035	2602.11
738.228	2417.8
738.421	2546.82
738.614	3019.9
738.807	2851.97
739	2346.12
739.192	2397.32
739.385	2778.24
739.578	2770.05
739.771	2641.03
739.964	2385.03
740.156	2860.16
740.349	2475.14
740.542	2739.33
740.735	2438.28
740.927	2452.61
741.12	2495.62
741.313	2337.93
741.505	2546.82
741.698	2755.71
741.891	2874.49
742.083	2628.74
742.276	2471.04
742.468	2743.42
742.661	2489.48
742.854	2481.28
743.046	2372.74
743.239	3054.72
743.431	2724.99
743.624	2516.1
743.816	2299.02
744.009	2698.37
744.201	2686.08
744.393	2690.18
744.586	2407.56
744.778	2823.3
744.971	2567.3
745.163	2530.44
745.355	2577.54
745.548	2645.12
745.74	2501.76
745.932	2542.72
746.125	2454.66
746.317	3155.07
746.509	2788.48
746.702	2585.73
746.894	2471.04
747.086	2657.41
747.278	2978.94
747.471	2595.97
747.663	2569.35
747.855	2657.41
748.047	3142.78
748.239	2450.57
748.431	2413.7
748.623	2993.28
748.815	3030.14
749.008	2407.56
749.2	2358.41
749.392	2878.59
749.584	2796.67
749.776	2417.8
749.968	2622.59
750.16	3064.96
750.352	2526.34
750.544	2532.48
750.736	2354.31
750.928	2868.35
751.12	2716.8
751.311	2413.7
751.503	2614.4
751.695	2788.48
751.887	2641.03
752.079	2339.97
752.271	2299.02
752.463	3433.59
752.654	2808.96
752.846	2450.57
753.038	2528.39
753.23	2579.59
753.421	2921.6
753.613	2518.15
753.805	2655.36
753.997	2952.32
754.188	2880.64
754.38	2266.25
754.572	2405.51
754.763	2581.64
754.955	2905.21
755.146	2653.31
755.338	2536.58
755.53	2673.79
755.721	2702.47
755.913	2354.31
756.104	2301.06
756.296	2503.81
756.487	2899.07
756.679	2409.61
756.87	2542.72
757.062	2602.11
757.253	2792.58
757.445	2479.24
757.636	2708.61
757.827	2552.96
758.019	3261.56
758.21	2413.7
758.401	2462.85
758.593	3263.61
758.784	2876.54
758.975	2389.13
759.167	2331.78
759.358	2780.29
759.549	2878.59
759.74	2323.59
759.932	2313.35
760.123	2905.21
760.314	2643.07
760.505	2555.01
760.696	2434.18
760.888	3167.35
761.079	2598.02
761.27	2366.6
761.461	2233.48
761.652	2933.89
761.843	2612.35
762.034	2495.62
762.225	2675.84
762.416	2585.73
762.607	2622.59
762.798	2409.61
762.989	2464.9
763.18	3447.93
763.371	2503.81
763.562	2520.2
763.753	2436.23
763.944	2903.17
764.135	2854.02
764.326	2473.09
764.517	2446.47
764.708	2643.07
764.899	2839.68
765.089	2442.37
765.28	2233.48
765.471	2673.79
765.662	2817.15
765.853	2288.78
766.043	2131.08
766.234	2847.87
766.425	2804.86
766.615	2354.31
766.806	2319.5
766.997	2821.25
767.187	2739.33
767.378	2370.69
767.569	2143.37
767.759	2847.87
767.95	2741.38
768.141	2569.35
768.331	2319.5
768.522	2585.73
768.712	2753.66
768.903	2428.04
769.093	2264.2
769.284	2942.08
769.474	2630.79
769.665	2270.34
769.855	2245.77
770.046	2851.97
770.236	2632.83
770.426	2600.07
770.617	2223.24
770.807	2671.75
770.998	2503.81
771.188	2600.07
771.378	2143.37
771.569	2815.1
771.759	2786.43
771.949	2219.14
772.139	2092.17
772.33	2528.39
772.52	3085.44
772.71	2286.73
772.9	2153.61
773.09	2950.27
773.281	2894.97
773.471	2370.69
773.661	2313.35
773.851	2735.23
774.041	2548.87
774.231	2143.37
774.421	2512
774.611	2888.83
774.802	2638.98
774.992	2436.23
775.182	2227.34
775.372	2591.88
775.562	2638.98
775.752	2458.76
775.942	2305.16
776.131	2755.71
776.321	2696.32
776.511	2421.89
776.701	2278.54
776.891	2870.4
777.081	2456.71
777.271	2348.17
777.461	2247.82
777.651	2737.28
777.84	2753.66
778.03	2469
778.22	2194.57
778.41	2782.34
778.599	2155.66
778.789	2241.67
778.979	2198.67
779.169	2747.52
779.358	2647.17
779.548	2524.29
779.738	2141.32
779.927	2694.27
780.117	2442.37
780.307	2313.35
780.496	2008.2
780.686	2610.31
780.875	2980.99
781.065	2344.07
781.254	2290.82
781.444	2421.89
781.633	2563.2
781.823	2116.75
782.012	2292.87
782.202	2536.58
782.391	2595.97
782.581	2073.74
782.77	2411.65
782.96	2552.96
783.149	2376.84
783.338	2286.73
783.528	1957
783.717	2669.7
783.906	2780.29
784.096	2405.51
784.285	2206.86
784.474	2458.76
784.663	2301.06
784.853	2299.02
785.042	2241.67
785.231	2475.14
785.42	2802.82
785.61	2227.34
785.799	2145.42
785.988	2290.82
786.177	2505.86
786.366	2200.71
786.555	2413.7
786.744	2638.98
786.933	2417.8
787.122	2169.99
787.312	2149.51
787.501	2282.63
787.69	2516.1
787.879	2192.52
788.068	2178.19
788.257	2352.26
788.445	2315.4
788.634	2282.63
788.823	2081.93
789.012	3112.06
789.201	2722.95
789.39	2233.48
789.579	2149.51
789.768	2438.28
789.957	2561.16
790.145	2204.81
790.334	1891.47
790.523	2307.21
790.712	2364.55
790.9	2169.99
791.089	2135.18
791.278	2696.32
791.467	2499.72
791.655	2471.04
791.844	2722.95
792.033	2270.34
792.221	2376.84
792.41	2169.99
792.599	2038.92
792.787	2423.94
792.976	2714.75
793.164	2106.51
793.353	2073.74
793.541	2559.11
793.73	2444.42
793.918	2374.79
794.107	2176.14
794.295	2380.93
794.484	2438.28
794.672	2153.61
794.861	2213
795.049	2610.31
795.238	2798.72
795.426	2028.68
795.614	2253.96
795.803	2428.04
795.991	2677.89
796.179	2090.12
796.368	2172.04
796.556	2737.28
796.744	2292.87
796.932	2202.76
797.121	2098.31
797.309	2280.58
797.497	2702.47
797.685	2120.84
797.874	2016.4
798.062	2280.58
798.25	2614.4
798.438	2020.49
798.626	2147.47
798.814	2507.91
799.002	3048.57
799.19	2264.2
799.378	2274.44
799.566	2776.19
799.755	2851.97
799.943	2274.44
800.131	2278.54
800.318	2489.48
800.506	2532.48
800.694	2223.24
800.882	2325.64
801.07	2688.13
801.258	2346.12
801.446	2237.58
801.634	2237.58
801.822	2477.19
802.01	2430.09
802.197	2206.86
802.385	2389.13
802.573	2643.07
802.761	2382.98
802.949	2194.57
803.136	2086.03
803.324	2647.17
803.512	2485.38
803.699	2342.02
803.887	2110.6
804.075	2792.58
804.262	2309.26
804.45	2206.86
804.638	2262.15
804.825	2311.3
805.013	2284.68
805.201	2151.56
805.388	2165.9
805.576	2358.41
805.763	2870.4
805.951	2208.9
806.138	2509.96
806.326	2958.46
806.513	2583.68
806.701	2251.91
806.888	2192.52
807.075	2655.36
807.263	2878.59
807.45	2061.45
807.638	2425.99
807.825	2872.45
808.012	2698.37
808.2	2327.69
808.387	2460.81
808.574	2677.89
808.761	2878.59
808.949	2370.69
809.136	2434.18
809.323	2477.19
809.51	2585.73
809.698	2458.76
809.885	2448.52
810.072	2669.7
810.259	2831.49
810.446	2337.93
810.633	2188.43
810.82	2901.12
811.008	2917.5
811.195	2391.17
811.382	2296.97
811.569	2532.48
811.756	2200.71
811.943	2358.41
812.13	2360.45
812.317	2491.52
812.504	2397.32
812.691	2503.81
812.878	2376.84
813.064	2929.79
813.251	2681.99
813.438	2311.3
813.625	2546.82
813.812	2638.98
813.999	2479.24
814.186	2432.13
814.372	2419.85
814.559	2591.88
814.746	2946.17
814.933	2296.97
815.12	2552.96
815.306	2387.08
815.493	2348.17
815.68	2325.64
815.866	2339.97
816.053	2815.1
816.24	3120.25
816.426	2548.87
816.613	2268.3
816.799	2843.78
816.986	2815.1
817.173	2258.06
817.359	2215.05
817.546	2786.43
817.732	2262.15
817.919	2014.35
818.105	2407.56
818.292	2464.9
818.478	2716.8
818.665	2544.77
818.851	2233.48
819.037	3212.41
819.224	2610.31
819.41	2358.41
819.597	2335.88
819.783	2987.13
819.969	2694.27
820.156	2376.84
820.342	2225.29
820.528	3142.78
820.714	2573.44
820.901	2700.42
821.087	2276.49
821.273	3058.81
821.459	2606.21
821.646	2286.73
821.832	2348.17
822.018	2544.77
822.204	2364.55
822.39	2438.28
822.576	2241.67
822.762	2823.3
822.948	2671.75
823.134	2571.4
823.32	2319.5
823.507	2227.34
823.693	2587.78
823.879	2806.91
824.065	2342.02
824.25	2679.94
824.436	2337.93
824.622	2282.63
824.808	2237.58
824.994	2473.09
825.18	2346.12
825.366	2313.35
825.552	2251.91
825.738	2505.86
825.923	2882.69
826.109	2471.04
826.295	2315.4
826.481	2550.92
826.667	2563.2
826.852	2368.65
827.038	2247.82
827.224	2780.29
827.409	3003.52
827.595	2131.08
827.781	2473.09
827.966	2786.43
828.152	2702.47
828.338	2323.59
828.523	2108.55
828.709	2473.09
828.894	2952.32
829.08	2264.2
829.266	2229.38
829.451	2415.75
829.637	2710.66
829.822	2536.58
830.008	2241.67
830.193	2770.05
830.378	2862.21
830.564	2425.99
830.749	2114.7
830.935	2729.09
831.12	2806.91
831.305	2143.37
831.491	2366.6
831.676	2135.18
831.861	2780.29
832.047	2376.84
832.232	2114.7
832.417	2856.06
832.602	2452.61
832.788	2188.43
832.973	2200.71
833.158	2448.52
833.343	2618.5
833.528	2352.26
833.714	2403.46
833.899	2667.65
834.084	3091.58
834.269	2520.2
834.454	2378.89
834.639	2706.56
834.824	2456.71
835.009	2407.56
835.194	2391.17
835.379	2706.56
835.564	2811.01
835.749	2382.98
835.934	2079.88
836.119	2602.11
836.304	2430.09
836.489	2360.45
836.674	2483.33
836.859	2313.35
837.044	2681.99
837.228	2223.24
837.413	2204.81
837.598	2462.85
837.783	2688.13
837.968	2215.05
838.152	2061.45
838.337	2055.31
838.522	2741.38
838.707	2581.64
838.891	2251.91
839.076	2528.39
839.261	2698.37
839.445	2182.28
839.63	2376.84
839.815	2823.3
839.999	2380.93
840.184	2045.07
840.368	2208.9
840.553	2692.23
840.737	2657.41
840.922	2030.73
841.106	2008.2
841.291	2163.85
841.475	2489.48
841.66	2198.67
841.844	2145.42
842.029	3105.92
842.213	2088.07
842.397	2213
842.582	2106.51
842.766	2720.9
842.951	2704.51
843.135	2213
843.319	2088.07
843.504	2591.88
843.688	2770.05
843.872	2012.3
844.056	2114.7
844.241	2339.97
844.425	2186.38
844.609	2339.97
844.793	1987.72
844.977	2653.31
845.161	2407.56
845.346	1991.82
845.53	2137.23
845.714	2434.18
845.898	2638.98
846.082	2104.46
846.266	1987.72
846.45	2380.93
846.634	2313.35
846.818	2000.01
847.002	2204.81
847.186	2432.13
847.37	2182.28
847.554	2036.88
847.738	2192.52
847.922	2464.9
848.106	2589.83
848.29	1887.37
848.473	2223.24
848.657	2548.87
848.841	2208.9
849.025	2081.93
849.209	1905.81
849.392	2589.83
849.576	2241.67
849.76	1774.74
849.944	2163.85
850.127	2552.96
850.311	2024.59
850.495	1985.68
850.678	1797.26
850.862	2538.63
851.046	2622.59
851.229	2219.14
851.413	2012.3
851.596	2491.52
851.78	2393.22
851.964	2219.14
852.147	2129.03
852.331	3173.5
852.514	2516.1
852.698	2186.38
852.881	1967.24
853.065	2466.95
853.248	2129.03
853.431	2270.34
853.615	2245.77
853.798	2804.86
853.982	2294.92
854.165	2247.82
854.348	2100.36
854.532	2077.83
854.715	2169.99
854.898	1961.1
855.081	2239.62
855.265	2581.64
855.448	2811.01
855.631	1967.24
855.814	1967.24
855.997	2503.81
856.181	2288.78
856.364	2124.94
856.547	1836.17
856.73	2335.88
856.913	2253.96
857.096	1946.76
857.279	1895.57
857.462	2110.6
857.645	2454.66
857.828	2223.24
858.011	2139.27
858.194	2229.38
858.377	2536.58
858.56	1922.19
858.743	2053.26
858.926	2022.54
859.109	2374.79
859.292	1914
859.475	1858.7
859.658	2391.17
859.841	2411.65
860.023	1819.79
860.206	1901.71
860.389	2292.87
860.572	2577.54
860.755	2018.44
860.937	1983.63
861.12	2120.84
861.303	2223.24
861.486	1981.58
861.668	2102.41
861.851	2364.55
862.034	2290.82
862.216	2094.22
862.399	1866.89
862.581	2380.93
862.764	2450.57
862.947	1936.53
863.129	2018.44
863.312	2000.01
863.494	2647.17
863.677	2204.81
863.859	1678.48
864.042	2448.52
864.224	2569.35
864.406	2063.5
864.589	1823.89
864.771	2280.58
864.954	1977.48
865.136	1914
865.318	1766.54
865.501	2210.95
865.683	1758.35
865.865	1817.74
866.048	1942.67
866.23	2217.1
866.412	2153.61
866.594	1739.92
866.777	1991.82
866.959	2247.82
867.141	2040.97
867.323	2163.85
867.505	2045.07
867.687	2092.17
867.869	2282.63
868.052	1918.09
868.234	1907.85
868.416	1985.68
868.598	2405.51
868.78	1914
868.962	1711.25
869.144	2321.54
869.326	2241.67
869.508	1762.45
869.69	1717.39
869.872	2053.26
870.054	2374.79
870.236	1768.59
870.417	1774.74
870.599	2088.07
870.781	2532.48
870.963	2133.13
871.145	1873.04
871.327	1846.41
871.508	2407.56
871.69	1844.37
871.872	1879.18
872.054	2024.59
872.235	2241.67
872.417	1924.24
872.599	1850.51
872.78	2585.73
872.962	2159.75
873.144	1701.01
873.325	1936.53
873.507	2520.2
873.689	2133.13
873.87	1836.17
874.052	1997.96
874.233	2022.54
874.415	2321.54
874.596	1889.42
874.778	1780.88
874.959	2169.99
875.141	2364.55
875.322	1920.14
875.503	1887.37
875.685	2192.52
875.866	1641.62
876.048	1784.98
876.229	1784.98
876.41	2126.99
876.592	2192.52
876.773	1793.17
876.954	1766.54
877.136	2563.2
877.317	1965.2
877.498	1705.1
877.679	2002.06
877.86	2202.76
878.042	2077.83
878.223	1787.02
878.404	2143.37
878.585	2372.74
878.766	2589.83
878.947	2149.51
879.128	2157.71
879.309	2339.97
879.49	2503.81
879.672	2051.21
879.853	1993.87
880.034	1948.81
880.215	2194.57
880.396	1950.86
880.576	2034.83
880.757	1971.34
880.938	2540.68
881.119	1801.36
881.3	1842.32
881.481	2016.4
881.662	2958.46
881.843	1959.05
882.023	1862.8
882.204	2251.91
882.385	2161.8
882.566	1922.19
882.747	1897.61
882.927	2147.47
883.108	2241.67
883.289	1950.86
883.469	2151.56
883.65	2053.26
883.831	2079.88
884.011	2096.27
884.192	1987.72
884.373	2372.74
884.553	2360.45
884.734	2118.79
884.914	2188.43
885.095	3009.66
885.275	2684.03
885.456	2245.77
885.636	1768.59
885.817	2319.5
885.997	2249.86
886.178	1897.61
886.358	2061.45
886.538	2358.41
886.719	3120.25
886.899	1971.34
887.08	2268.3
887.26	2505.86
887.44	2012.3
887.621	2012.3
887.801	2245.77
887.981	2847.87
888.161	2479.24
888.342	2040.97
888.522	2028.68
888.702	2563.2
888.882	2573.44
889.062	2190.47
889.242	1819.79
889.423	2622.59
889.603	2575.49
889.783	2112.65
889.963	2106.51
890.143	2415.75
890.323	2546.82
890.503	2081.93
890.683	2079.88
890.863	2389.13
891.043	2417.8
891.223	2133.13
891.403	2399.37
891.583	2385.03
891.763	2344.07
891.943	2225.29
892.122	2090.12
892.302	2356.36
892.482	2350.21
892.662	2217.1
892.842	2198.67
893.022	2385.03
893.201	2163.85
893.381	2225.29
893.561	2040.97
893.741	2589.83
893.92	2483.33
894.1	2176.14
894.28	2141.32
894.459	2546.82
894.639	2512
894.819	2165.9
894.998	2174.09
895.178	2477.19
895.357	2440.33
895.537	2122.89
895.716	1856.65
895.896	2294.92
896.075	2741.38
896.255	2133.13
896.434	1954.96
896.614	2602.11
896.793	2673.79
896.973	2282.63
897.152	2090.12
897.331	2464.9
897.511	2555.01
897.69	2055.31
897.87	2176.14
898.049	2606.21
898.228	2405.51
898.407	2382.98
898.587	2301.06
898.766	2186.38
898.945	2593.92
899.124	2399.37
899.304	2206.86
899.483	2555.01
899.662	2919.55
899.841	2149.51
900.02	2129.03
900.199	2702.47
900.378	2342.02
900.557	2139.27
900.737	2030.73
900.916	2561.16
901.095	2649.22
901.274	2530.44
901.453	1887.37
901.632	2192.52
901.811	2192.52
901.989	1993.87
902.168	2038.92
902.347	2505.86
902.526	2200.71
902.705	2163.85
902.884	2163.85
903.063	2651.27
903.242	2638.98
903.42	2036.88
903.599	2178.19
903.778	2528.39
903.957	2604.16
904.135	2182.28
904.314	2243.72
904.493	2278.54
904.672	2460.81
904.85	2196.62
905.029	2069.64
905.207	2456.71
905.386	3052.67
905.565	2061.45
905.743	2036.88
905.922	2192.52
906.1	2514.05
906.279	1899.66
906.457	1995.92
906.636	2229.38
906.814	2169.99
906.993	2063.5
907.171	2016.4
907.35	2524.29
907.528	2538.63
907.707	2188.43
907.885	2047.12
908.063	2739.33
908.242	2245.77
908.42	2145.42
908.598	1889.42
908.777	2491.52
908.955	2133.13
909.133	2221.19
909.311	1844.37
909.49	2102.41
909.668	2124.94
909.846	2040.97
910.024	1782.93
910.202	2315.4
910.38	2466.95
910.559	1852.56
910.737	1891.47
910.915	2264.2
911.093	2315.4
911.271	1934.48
911.449	2167.95
911.627	2391.17
911.805	2655.36
911.983	1918.09
912.161	1944.72
912.339	2325.64
912.517	2587.78
912.695	2124.94
912.872	1997.96
913.05	2020.49
913.228	2389.13
913.406	1830.03
913.584	1899.66
913.762	2280.58
913.939	2057.36
914.117	1807.5
914.295	1662.1
914.473	2329.74
914.65	2169.99
914.828	1881.23
915.006	1916.05
915.184	1799.31
915.361	2112.65
915.539	2004.11
915.716	2180.23
915.894	2139.27
916.072	2442.37
916.249	1995.92
916.427	2004.11
916.604	1766.54
916.782	2188.43
916.959	1670.29
917.137	1881.23
917.314	2223.24
917.492	2221.19
917.669	1924.24
917.847	1879.18
918.024	2110.6
918.201	1856.65
918.379	1889.42
918.556	1932.43
918.733	2241.67
918.911	1993.87
919.088	2092.17
919.265	1834.13
919.442	2116.75
919.62	2030.73
919.797	1658
919.974	1649.81
920.151	2114.7
920.328	2196.62
920.506	1932.43
920.683	2059.4
920.86	1770.64
921.037	1844.37
921.214	1897.61
921.391	1709.2
921.568	2196.62
921.745	1750.16
921.922	1807.5
922.099	1557.65
922.276	2284.68
922.453	2055.31
922.63	1660.05
922.807	2110.6
922.984	2028.68
923.161	1868.94
923.338	1784.98
923.514	1741.97
923.691	1852.56
923.868	2014.35
924.045	1670.29
924.222	1578.13
924.399	1954.96
924.575	2116.75
924.752	1741.97
924.929	1729.68
925.105	2081.93
925.282	1551.51
925.459	1668.24
925.635	1737.87
925.812	1789.07
925.989	1674.39
926.165	1670.29
926.342	1395.86
926.518	1576.08
926.695	1739.92
926.871	1541.27
927.048	1451.16
927.224	1991.82
927.401	1752.21
927.577	1629.33
927.754	1426.58
927.93	1975.44
928.107	1926.29
928.283	1533.08
928.459	1664.15
928.636	1879.18
928.812	1588.37
928.988	1438.87
929.165	1279.13
929.341	1844.37
929.517	1758.35
929.693	1727.63
929.87	1258.65
930.046	1860.75
930.222	1557.65
930.398	1412.25
930.574	1625.23
930.751	1602.71
930.927	1526.93
931.103	1414.29
931.279	1436.82
931.455	1328.28
931.631	1756.3
931.807	1262.74
931.983	1414.29
932.159	1178.78
932.335	1658
932.511	1426.58
932.687	1332.37
932.863	1692.82
933.039	1574.03
933.215	1238.17
933.391	1125.53
933.566	1545.36
933.742	1610.9
933.918	1293.46
934.094	1135.77
934.27	1660.05
934.445	1647.76
934.621	1318.04
934.797	1103
934.973	1725.58
935.148	1637.52
935.324	1137.82
935.5	1025.18
935.675	1614.99
935.851	1422.48
936.027	1217.69
936.202	1246.36
936.378	1420.44
936.553	1354.9
936.729	1520.79
936.904	1107.1
937.08	1098.91
937.255	1225.88
937.431	1000.6
937.606	957.6
937.782	1082.52
937.957	1256.6
938.133	1150.11
938.308	855.2
938.483	1080.47
938.659	857.25
938.834	982.17
939.009	801.95
939.185	1025.18
939.36	867.49
939.535	668.83
939.71	885.92
939.886	1213.59
940.061	1154.2
940.236	1006.75
940.411	793.76
940.586	1090.71
940.761	1152.15
940.937	785.57
941.112	699.55
941.287	988.32
941.462	1012.89
941.637	619.68
941.812	674.98
941.987	1000.6
942.162	922.78
942.337	789.66
942.512	742.56
942.687	1111.19
942.862	1086.62
943.037	576.67
943.212	410.79
943.386	777.37
943.561	1008.8
943.736	859.29
943.911	933.02
944.086	900.25
944.26	947.36
944.435	662.69
944.61	734.37
944.785	1131.67
944.959	1377.43
945.134	687.26
945.309	586.91
945.483	646.3
945.658	1103
945.833	423.08
946.007	558.24
946.182	1137.82
946.357	619.68
946.531	634.02
946.706	548
946.88	449.7
947.055	906.4
947.229	627.87
947.404	507.04
947.578	986.27
947.752	758.94
947.927	580.77
948.101	455.84
948.276	873.63
948.45	834.72
948.624	804
948.799	560.29
948.973	939.16
949.147	613.54
949.321	668.83
949.496	611.49
949.67	1127.58
949.844	801.95
950.018	623.78
950.193	646.3
950.367	1383.57
950.541	836.77
950.715	789.66
950.889	849.05
951.063	820.38
951.237	1090.71
951.411	466.08
951.585	457.89
951.759	914.59
951.933	697.5
952.107	736.42
952.281	775.33
952.455	1303.7
952.629	971.93
952.803	629.92
952.977	611.49
953.151	1162.39
953.325	949.4
953.499	726.18
953.672	500.9
953.846	611.49
954.02	756.9
954.194	584.87
954.368	623.78
954.541	879.77
954.715	717.98
954.889	656.54
955.062	541.86
955.236	760.99
955.41	791.71
955.583	771.23
955.757	474.28
955.93	758.94
956.104	513.19
956.278	640.16
956.451	660.64
956.625	935.07
956.798	1252.5
956.972	847.01
957.145	437.41
957.319	810.14
957.492	703.65
957.665	715.94
957.839	543.91
958.012	883.87
958.185	689.31
958.359	588.96
958.532	801.95
958.705	1014.94
958.879	902.3
959.052	627.87
959.225	437.41
959.398	781.47
959.572	853.15
959.745	558.24
959.918	597.15
960.091	681.12
960.264	914.59
960.438	529.57
960.611	545.95
960.784	980.12
960.957	636.06
961.13	969.88
961.303	613.54
961.476	754.85
961.649	996.51
961.822	490.66
961.995	574.63
962.168	980.12
962.341	963.74
962.514	695.46
962.686	582.82
962.859	834.72
963.032	851.1
963.205	627.87
963.378	435.36
963.551	855.2
963.723	779.42
963.896	670.88
964.069	818.33
964.242	717.98
964.414	971.93
964.587	595.11
964.76	668.83
964.932	826.53
965.105	787.61
965.278	574.63
965.45	468.13
965.623	857.25
965.795	1043.61
965.968	545.95
966.14	552.1
966.313	738.46
966.485	789.66
966.658	644.26
966.83	394.4
967.003	1131.67
967.175	959.64
967.348	461.99
967.52	543.91
967.692	1055.9
967.865	795.81
968.037	580.77
968.209	804
968.382	756.9
968.554	881.82
968.726	601.25
968.898	507.04
969.071	806.05
969.243	885.92
969.415	634.02
969.587	562.34
969.759	1356.95
969.932	859.29
970.104	537.76
970.276	222.38
970.448	668.83
970.62	611.49
970.792	664.74
970.964	433.32
971.136	1193.11
971.308	752.8
971.48	455.84
971.652	490.66
971.824	1133.72
971.996	668.83
972.168	515.23
972.339	564.39
972.511	996.51
972.683	644.26
972.855	812.19
973.027	568.48
973.199	744.61
973.37	963.74
973.542	658.59
973.714	744.61
973.886	765.09
974.057	976.03
974.229	427.17
974.401	390.31
974.572	523.43
974.744	332.97
974.915	353.45
975.087	332.97
975.259	1023.13
975.43	591.01
975.602	507.04
975.773	369.83
975.945	492.71
976.116	894.11
976.288	509.09
976.459	728.22
976.63	662.69
976.802	797.85
976.973	484.52
977.145	627.87
977.316	1213.59
977.487	1041.56
977.659	648.35
977.83	566.43
978.001	1092.76
978.172	754.85
978.344	414.88
978.515	517.28
978.686	568.48
978.857	1006.75
979.028	488.61
979.2	449.7
979.371	957.6
979.542	822.43
979.713	685.22
979.884	33.96
980.055	488.61
980.226	582.82
980.397	509.09
980.568	310.44
980.739	890.01
980.91	679.07
981.081	629.92
981.252	367.78
981.423	894.11
981.594	922.78
981.765	398.5
981.936	597.15
982.106	773.28
982.277	902.3
982.448	406.69
982.619	609.44
982.79	509.09
982.96	978.08
983.131	584.87
983.302	242.85
983.472	597.15
983.643	720.03
983.814	595.11
983.984	398.5
984.155	595.11
984.326	963.74
984.496	554.15
984.667	455.84
984.837	513.19
985.008	910.49
985.178	668.83
985.349	496.8
985.519	677.02
985.69	511.14
985.86	443.56
986.031	390.31
986.201	703.65
986.371	672.93
986.542	357.54
986.712	298.15
986.882	928.92
987.053	734.37
987.223	214.18
987.393	494.76
987.563	476.32
987.734	808.09
987.904	748.7
988.074	365.73
988.244	726.18
988.414	535.71
988.585	400.55
988.755	480.42
988.925	617.63
989.095	967.84
989.265	308.39
989.435	431.27
989.605	869.53
989.775	695.46
989.945	646.3
990.115	244.9
990.285	605.35
990.455	668.83
990.625	423.08
990.795	242.85
990.965	941.21
991.134	414.88
991.304	300.2
991.474	441.51
991.644	754.85
991.814	996.51
991.984	255.14
992.153	312.49
992.323	548
992.493	578.72
992.662	152.74
992.832	513.19
993.002	656.54
993.171	726.18
993.341	263.33
993.511	517.28
993.68	404.64
993.85	777.37
994.019	212.14
994.189	222.38
994.358	701.6
994.528	486.56
994.697	48.3
994.867	257.19
995.036	677.02
995.206	464.04
995.375	236.71
995.544	390.31
995.714	521.38
995.883	464.04
996.052	447.65
996.222	115.88
996.391	1088.67
996.56	588.96
996.73	160.94
996.899	152.74
997.068	865.44
997.237	496.8
997.406	146.6
997.576	162.98
997.745	570.53
997.914	490.66
998.083	89.26
998.252	279.72
998.421	615.59
998.59	330.92
998.759	201.9
998.928	144.55
999.097	717.98
999.266	558.24
999.435	400.55
999.604	46.25
999.773	1027.23
999.942	470.18
1000.111	72.87
1000.28	70.83
1000.448	312.49
1000.617	249
1000.786	421.03
1000.955	101.55
1001.124	588.96
1001.292	1070.23
1001.461	183.46
1001.63	201.9
1001.798	795.81
1001.967	713.89
1002.136	60.59
1002.304	54.44
1002.473	595.11
1002.642	586.91
1002.81	236.71
1002.979	138.41
1003.147	679.07
1003.316	1062.04
1003.484	136.36
1003.653	95.4
1003.821	750.75
1003.99	455.84
1004.158	324.77
1004.327	257.19
1004.495	674.98
1004.663	283.81
1004.832	193.7
1005	38.06
1005.168	640.16
1005.337	515.23
1005.505	29.87
1005.673	337.06
1005.842	638.11
1006.01	572.58
1006.178	79.02
1006.346	150.7
1006.514	593.06
1006.683	681.12
1006.851	95.4
1007.019	17.58
1007.187	216.23
1007.355	52.39
1007.523	-60.24
1007.691	5.29
1007.859	240.81
1008.027	722.08
1008.195	175.27
1008.363	74.92
1008.531	726.18
1008.699	324.77
1008.867	9.39
1009.035	27.82
1009.203	689.31
1009.37	433.32
1009.538	261.29
1009.706	611.49
1009.874	464.04
1010.042	398.5
1010.209	17.58
1010.377	52.39
1010.545	691.36
1010.713	439.46
1010.88	79.02
1011.048	167.08
1011.216	318.63
1011.383	697.5
1011.551	62.63
1011.718	58.54
1011.886	634.02
1012.054	347.3
1012.221	-15.19
1012.389	44.2
1012.556	359.59
1012.724	781.47
1012.891	234.66
1013.058	-56.15
1013.226	586.91
1013.393	586.91
1013.561	-90.96
1013.728	-66.39
1013.895	572.58
1014.063	562.34
1014.23	-11.09
1014.397	-25.43
1014.565	578.72
1014.732	359.59
1014.899	5.29
1015.066	-58.2
1015.233	414.88
1015.401	502.95
1015.568	113.83
1015.735	162.98
1015.902	394.4
1016.069	418.98
1016.236	-58.2
1016.403	13.48
1016.57	140.46
1016.737	545.95
1016.904	64.68
1017.071	-11.09
1017.238	167.08
1017.405	515.23
1017.572	38.06
1017.739	185.51
1017.906	431.27
1018.073	613.54
1018.24	-52.05
1018.407	56.49
1018.573	662.69
1018.74	390.31
1018.907	122.02
1019.074	-121.68
1019.241	525.47
1019.407	330.92
1019.574	-39.76
1019.741	-170.83
1019.907	347.3
1020.074	449.7
1020.241	-113.49
1020.407	-84.82
1020.574	490.66
1020.74	498.85
1020.907	-15.19
1021.073	-52.05
1021.24	914.59
1021.406	623.78
1021.573	-72.53
1021.739	-31.57
1021.906	609.44
1022.072	261.29
1022.239	-31.57
1022.405	13.48
1022.571	324.77
1022.738	205.99
1022.904	-33.62
1023.07	27.82
1023.237	369.83
1023.403	550.05
1023.569	15.53
1023.735	-7
1023.902	435.36
1024.068	488.61
1024.234	-127.83
1024.4	-33.62
1024.566	410.79
1024.732	537.76
1024.898	-25.43
1025.065	-179.03
1025.231	550.05
1025.397	230.57
1025.563	23.72
1025.729	-107.35
1025.895	-35.67
1026.061	70.83
1026.227	-219.99
1026.392	-25.43
1026.558	562.34
1026.724	310.44
1026.89	-158.55
1027.056	81.07
1027.222	316.58
1027.388	210.09
1027.553	-88.92
1027.719	-52.05
1027.885	674.98
1028.051	380.07
1028.216	-224.08
1028.382	-56.15
1028.548	466.08
1028.713	275.62
1028.879	-105.3
1029.045	64.68
1029.21	631.97
1029.376	607.39
1029.541	-27.48
1029.707	-15.19
1029.873	484.52
1030.038	513.19
1030.204	-58.2
1030.369	-25.43
1030.534	578.72
1030.7	230.57
1030.865	5.29
1031.031	-123.73
1031.196	431.27
1031.361	439.46
1031.527	-162.64
1031.692	-78.68
1031.857	-80.72
1032.023	435.36
1032.188	-187.22
1032.353	27.82
1032.518	654.5
1032.684	441.51
1032.849	-203.6
1033.014	-19.29
1033.179	504.99
1033.344	392.36
1033.509	50.35
1033.674	-45.91
1033.839	482.47
1034.004	461.99
1034.17	-117.59
1034.335	-179.03
1034.5	185.51
1034.664	136.36
1034.829	-121.68
1034.994	-47.96
1035.159	441.51
1035.324	302.25
1035.489	-37.72
1035.654	-125.78
1035.819	504.99
1035.984	320.68
1036.148	-21.33
1036.313	-29.52
1036.478	539.81
1036.643	230.57
1036.807	-84.82
1036.972	-35.67
1037.137	736.42
1037.301	369.83
1037.466	-234.32
1037.631	-19.29
1037.795	593.06
1037.96	312.49
1038.124	42.15
1038.289	-219.99
1038.454	382.12
1038.618	412.84
1038.783	-64.34
1038.947	29.87
1039.111	298.15
1039.276	201.9
1039.44	-93.01
1039.605	324.77
1039.769	208.04
1039.933	283.81
1040.098	-52.05
1040.262	175.27
1040.426	595.11
1040.591	480.42
1040.755	-125.78
1040.919	-45.91
1041.083	316.58
1041.248	283.81
1041.412	-232.27
1041.576	-127.83
1041.74	218.28
1041.904	466.08
1042.068	-133.97
1042.232	-101.2
1042.397	437.41
1042.561	359.59
1042.725	-219.99
1042.889	23.72
1043.053	363.69
1043.217	394.4
1043.381	-39.76
1043.544	-183.12
1043.708	621.73
1043.872	27.82
1044.036	-273.23
1044.2	-246.61
1044.364	570.53
1044.528	621.73
1044.691	3024
1044.855	-203.6
1045.019	474.28
1045.183	427.17
1045.346	46.25
1045.51	-150.36
1045.674	447.65
1045.837	392.36
1046.001	-107.35
1046.165	-138.07
1046.328	853.15
1046.492	466.08
1046.655	144.55
1046.819	11.43
1046.983	175.27
1047.146	384.16
1047.31	-13.14
1047.473	-183.12
1047.636	322.73
1047.8	138.41
1047.963	-72.53
1048.127	-172.88
1048.29	70.83
