Data from Ink_Intensity_USB4F045381__196__00196.txt Node

Date: Mon Jul 17 11:47:11 EDT 2023
User: mmckonesweet
Spectrometer: USB4F04538
Trigger mode: 4
Integration Time (sec): 9.000000E-1
Scans to average: 1
Electric dark correction enabled: true
Nonlinearity correction enabled: false
Boxcar width: 0
XAxis mode: Wavelengths
Number of Pixels in Spectrum: 3648
>>>>>Begin Spectral Data<<<<<
345.52	-1017.5
345.736	-1017.5
345.952	-1017.5
346.168	-1048.22
346.384	-1013.4
346.6	-50.86
346.816	-233.13
347.032	-247.46
347.248	285.01
347.464	-272.04
347.68	-136.87
347.896	143.7
348.112	414.03
348.328	-69.29
348.544	-132.78
348.76	63.83
348.975	235.86
349.191	-222.89
349.407	-214.7
349.623	33.11
349.839	-130.73
350.055	-128.68
350.27	14.68
350.486	153.94
350.702	307.54
350.918	168.27
351.133	-151.21
351.349	155.99
351.565	350.54
351.781	-308.9
351.996	24.92
352.212	250.19
352.428	-138.92
352.644	-163.5
352.859	-194.22
353.075	270.67
353.291	78.16
353.506	-67.24
353.722	-229.03
353.938	-38.57
354.153	385.36
354.369	24.92
354.584	-220.84
354.8	340.3
355.016	-306.85
355.231	-319.14
355.447	-67.24
355.662	84.31
355.878	737.61
356.093	-360.1
356.309	-18.09
356.524	-241.32
356.74	280.91
356.955	-157.35
357.171	-97.96
357.386	147.8
357.602	-183.98
357.817	-97.96
358.033	-151.21
358.248	354.64
358.464	106.84
358.679	-208.55
358.895	-382.63
359.11	-28.33
359.325	278.87
359.541	18.77
359.756	-30.38
359.972	-239.27
360.187	188.75
360.402	-276.13
360.618	-179.88
360.833	1012.04
361.048	72.02
361.264	-173.74
361.479	-20.14
361.694	-61.1
361.909	211.28
362.125	-231.08
362.34	-147.11
362.555	242
362.77	133.46
362.986	-272.04
363.201	-261.8
363.416	205.14
363.631	-13.99
363.847	-208.55
364.062	-183.98
364.277	207.19
364.492	139.6
364.707	-165.54
364.922	-364.2
365.138	211.28
365.353	282.96
365.568	-298.66
365.783	-153.26
365.998	41.3
366.213	530.77
366.428	-259.75
366.643	57.68
366.858	180.56
367.073	168.27
367.288	-81.58
367.503	-247.46
367.718	47.44
367.933	278.87
368.148	-347.81
368.363	-28.33
368.578	-11.95
368.793	452.94
369.008	-126.63
369.223	-171.69
369.438	174.42
369.653	393.55
369.868	-267.94
370.083	-233.13
370.298	129.36
370.513	411.98
370.728	37.2
370.943	-253.61
371.157	-151.21
371.372	495.95
371.587	-267.94
371.802	-317.09
372.017	110.93
372.232	336.21
372.446	-44.71
372.661	-313
372.876	164.18
373.091	125.27
373.306	-91.82
373.52	-206.5
373.735	-204.46
373.95	362.83
374.165	-175.78
374.379	-126.63
374.594	-192.17
374.809	102.74
375.023	2.39
375.238	-239.27
375.453	268.63
375.667	-269.99
375.882	-183.98
376.097	-265.89
376.311	86.36
376.526	6.49
376.741	-286.37
376.955	69.97
377.17	524.62
377.384	463.18
377.599	-157.35
377.813	-229.03
378.028	618.83
378.242	133.46
378.457	-138.92
378.672	-327.33
378.886	45.4
379.101	-73.39
379.315	-356.01
379.53	-241.32
379.744	215.38
379.958	139.6
380.173	-157.35
380.387	-265.89
380.602	100.69
380.816	-134.82
381.031	-183.98
381.245	-171.69
381.459	250.19
381.674	926.02
381.888	-173.74
382.103	53.59
382.317	-159.4
382.531	389.46
382.746	-147.11
382.96	-132.78
383.174	-38.57
383.388	471.37
383.603	49.49
383.817	-306.85
384.031	135.51
384.246	498
384.46	-50.86
384.674	205.14
384.888	26.96
385.103	65.88
385.317	-263.85
385.531	-147.11
385.745	289.1
385.959	309.58
386.174	-214.7
386.388	-368.29
386.602	41.3
386.816	-159.4
387.03	-114.34
387.244	-151.21
387.458	53.59
387.672	328.02
387.887	-356.01
388.101	-280.23
388.315	246.1
388.529	49.49
388.743	-145.06
388.957	-261.8
389.171	307.54
389.385	-171.69
389.599	-130.73
389.813	22.87
390.027	153.94
390.241	590.16
390.455	-235.18
390.669	-124.58
390.883	-97.96
391.097	315.73
391.311	14.68
391.525	-229.03
391.738	57.68
391.952	149.84
392.166	-102.06
392.38	-294.57
392.594	270.67
392.808	334.16
393.022	-126.63
393.236	-212.65
393.449	90.45
393.663	184.66
393.877	-319.14
394.091	-126.63
394.305	-89.77
394.518	-175.78
394.732	-315.05
394.946	-104.11
395.16	381.26
395.373	72.02
395.587	-243.37
395.801	-259.75
396.015	391.5
396.228	203.09
396.442	-411.3
396.656	-411.3
396.869	276.82
397.083	448.85
397.297	-147.11
397.51	-149.16
397.724	289.1
397.938	104.79
398.151	-278.18
398.365	-323.24
398.578	201.04
398.792	352.59
399.005	-77.48
399.219	-110.25
399.433	135.51
399.646	129.36
399.86	-18.09
400.073	-57
400.287	229.71
400.5	-59.05
400.714	-118.44
400.927	-61.1
401.141	184.66
401.354	1063.24
401.567	149.84
401.781	-347.81
401.994	184.66
402.208	557.39
402.421	-151.21
402.635	-81.58
402.848	53.59
403.061	115.03
403.275	-34.47
403.488	-204.46
403.701	397.65
403.915	192.85
404.128	16.73
404.341	-204.46
404.555	229.71
404.768	22.87
404.981	-77.48
405.195	-190.12
405.408	465.23
405.621	229.71
405.834	29.01
406.048	-253.61
406.261	364.88
406.474	485.71
406.687	-315.05
406.9	-126.63
407.114	22.87
407.327	141.65
407.54	-286.37
407.753	-265.89
407.966	-206.5
408.179	244.05
408.392	-222.89
408.605	-310.95
408.819	102.74
409.032	139.6
409.245	-294.57
409.458	-34.47
409.671	223.57
409.884	231.76
410.097	-300.71
410.31	2.39
410.523	90.45
410.736	-65.19
410.949	-97.96
411.162	-118.44
411.375	338.26
411.588	315.73
411.801	-54.95
412.014	-241.32
412.227	57.68
412.44	-91.82
412.653	-188.07
412.865	-87.72
413.078	211.28
413.291	164.18
413.504	-132.78
413.717	-226.98
413.93	239.95
414.143	-233.13
414.356	-175.78
414.568	-396.96
414.781	217.43
414.994	145.75
415.207	-120.49
415.42	-87.72
415.632	303.44
415.845	465.23
416.058	-288.42
416.271	-249.51
416.483	57.68
416.696	434.51
416.909	-188.07
417.121	-269.99
417.334	135.51
417.547	569.68
417.759	-167.59
417.972	-292.52
418.185	-9.9
418.397	293.2
418.61	-229.03
418.823	-190.12
419.035	389.46
419.248	-44.71
419.46	-102.06
419.673	-114.34
419.885	168.27
420.098	-93.87
420.311	-220.84
420.523	-368.29
420.736	237.91
420.948	98.64
421.161	-190.12
421.373	-249.51
421.586	69.97
421.798	-122.54
422.01	-290.47
422.223	-16.04
422.435	-75.43
422.648	201.04
422.86	-106.15
423.073	-224.94
423.285	377.17
423.497	-175.78
423.71	-251.56
423.922	-224.94
424.134	153.94
424.347	500.05
424.559	14.68
424.771	90.45
424.984	-26.28
425.196	158.03
425.408	-327.33
425.621	-278.18
425.833	256.34
426.045	311.63
426.257	-331.43
426.47	-188.07
426.682	76.12
426.894	266.58
427.106	-114.34
427.318	-165.54
427.531	-77.48
427.743	176.47
427.955	-231.08
428.167	338.26
428.379	194.9
428.591	-16.04
428.804	-85.67
429.016	-274.09
429.228	-71.34
429.44	213.33
429.652	47.44
429.864	-294.57
430.076	-42.67
430.288	-106.15
430.5	-69.29
430.712	-147.11
430.924	225.62
431.136	149.84
431.348	-431.78
431.56	-243.37
431.772	45.4
431.984	-57
432.196	-257.7
432.408	-200.36
432.62	-93.87
432.832	203.09
433.044	102.74
433.256	-104.11
433.468	160.08
433.679	-290.47
433.891	-364.2
434.103	-52.91
434.315	360.78
434.527	248.15
434.739	-100.01
434.95	-214.7
435.162	227.67
435.374	-149.16
435.586	-196.26
435.798	-69.29
436.009	-198.31
436.221	-16.04
436.433	-231.08
436.645	-165.54
436.856	-85.67
437.068	270.67
437.28	-364.2
437.491	45.4
437.703	141.65
437.915	147.8
438.126	-161.45
438.338	110.93
438.55	-22.19
438.761	164.18
438.973	-136.87
439.184	-229.03
439.396	94.55
439.608	209.23
439.819	-263.85
440.031	-71.34
440.242	278.87
440.454	201.04
440.665	-128.68
440.877	-151.21
441.088	141.65
441.3	-28.33
441.511	-306.85
441.723	-263.85
441.934	53.59
442.146	57.68
442.357	-83.63
442.569	74.07
442.78	29.01
442.991	403.79
443.203	106.84
443.414	-333.48
443.626	323.92
443.837	-175.78
444.048	-339.62
444.26	-382.63
444.471	69.97
444.682	266.58
444.894	-470.69
445.105	-411.3
445.316	155.99
445.528	211.28
445.739	-81.58
445.95	-190.12
446.161	192.85
446.373	293.2
446.584	-190.12
446.795	-231.08
447.006	233.81
447.217	317.78
447.429	-388.77
447.64	-300.71
447.851	373.07
448.062	-40.62
448.273	-356.01
448.484	-249.51
448.695	176.47
448.907	-5.8
449.118	-179.88
449.329	74.07
449.54	-128.68
449.751	-196.26
449.962	-296.61
450.173	-212.65
450.384	282.96
450.595	356.69
450.806	-288.42
451.017	-132.78
451.228	424.27
451.439	285.01
451.65	-251.56
451.861	-368.29
452.072	-102.06
452.283	37.2
452.494	-5.8
452.705	-360.1
452.915	381.26
453.126	112.98
453.337	-202.41
453.548	-306.85
453.759	371.02
453.97	551.24
454.181	-20.14
454.391	-126.63
454.602	74.07
454.813	186.71
455.024	-186.02
455.235	-206.5
455.445	131.41
455.656	112.98
455.867	-159.4
456.078	-274.09
456.288	-89.77
456.499	196.95
456.71	-282.28
456.921	22.87
457.131	149.84
457.342	100.69
457.553	-151.21
457.763	-149.16
457.974	176.47
458.184	246.1
458.395	-278.18
458.606	-239.27
458.816	246.1
459.027	487.76
459.237	-24.23
459.448	-388.77
459.659	280.91
459.869	559.44
460.08	-370.34
460.29	-91.82
460.501	506.19
460.711	-157.35
460.922	-353.96
461.132	-220.84
461.343	682.31
461.553	-263.85
461.764	-335.53
461.974	-206.5
462.184	192.85
462.395	57.68
462.605	-132.78
462.816	-356.01
463.026	65.88
463.236	313.68
463.447	-200.36
463.657	-208.55
463.867	256.34
464.078	-77.48
464.288	-167.59
464.498	-259.75
464.709	-5.8
464.919	-9.9
465.129	-124.58
465.339	-265.89
465.55	59.73
465.76	246.1
465.97	-200.36
466.18	-206.5
466.391	307.54
466.601	121.17
466.811	-143.02
467.021	-323.24
467.231	117.08
467.441	291.15
467.651	-159.4
467.862	-401.06
468.072	33.11
468.282	350.54
468.492	-224.94
468.702	-85.67
468.912	39.25
469.122	598.35
469.332	86.36
469.542	-272.04
469.752	153.94
469.962	149.84
470.172	-280.23
470.382	-263.85
470.592	131.41
470.802	379.22
471.012	-130.73
471.222	-274.09
471.432	274.77
471.642	190.8
471.852	-104.11
472.062	-345.77
472.272	-124.58
472.482	-192.17
472.691	-347.81
472.901	-437.92
473.111	-52.91
473.321	563.53
473.531	-319.14
473.741	-179.88
473.95	74.07
474.16	194.9
474.37	-134.82
474.58	-282.28
474.79	538.96
474.999	209.23
475.209	-329.38
475.419	-202.41
475.628	-77.48
475.838	307.54
476.048	-134.82
476.258	-302.76
476.467	330.06
476.677	16.73
476.886	-52.91
477.096	-79.53
477.306	-200.36
477.515	301.39
477.725	-204.46
477.935	-165.54
478.144	377.17
478.354	-155.3
478.563	-179.88
478.773	-343.72
478.982	219.47
479.192	295.25
479.401	-132.78
479.611	-304.81
479.82	-155.3
480.03	119.12
480.239	-282.28
480.449	-370.34
480.658	518.48
480.868	-147.11
481.077	-177.83
481.287	-257.7
481.496	217.43
481.705	371.02
481.915	-24.23
482.124	14.68
482.333	102.74
482.543	356.69
482.752	-181.93
482.961	-255.65
483.171	237.91
483.38	26.96
483.589	-161.45
483.799	-331.43
484.008	94.55
484.217	203.09
484.426	-241.32
484.636	-364.2
484.845	57.68
485.054	-200.36
485.263	20.82
485.472	-233.13
485.682	426.32
485.891	-54.95
486.1	-376.48
486.309	-335.53
486.518	110.93
486.727	325.97
486.936	-296.61
487.146	-13.99
487.355	268.63
487.564	-224.94
487.773	-214.7
487.982	-269.99
488.191	-134.82
488.4	-28.33
488.609	-210.6
488.818	-222.89
489.027	579.92
489.236	383.31
489.445	-241.32
489.654	-290.47
489.863	266.58
490.072	65.88
490.281	29.01
490.49	-249.51
490.698	444.75
490.907	368.98
491.116	-288.42
491.325	-319.14
491.534	368.98
491.743	121.17
491.952	-145.06
492.16	-220.84
492.369	172.37
492.578	184.66
492.787	-175.78
492.996	-368.29
493.204	-140.97
493.413	434.51
493.622	-433.83
493.831	-364.2
494.039	334.16
494.248	-161.45
494.457	-233.13
494.665	-302.76
494.874	164.18
495.083	495.95
495.291	-175.78
495.5	-292.52
495.709	266.58
495.917	57.68
496.126	-192.17
496.335	-358.05
496.543	-57
496.752	123.22
496.96	-89.77
497.169	-403.11
497.377	78.16
497.586	293.2
497.794	-179.88
498.003	-482.98
498.211	20.82
498.42	364.88
498.628	-190.12
498.837	-401.06
499.045	229.71
499.254	100.69
499.462	-347.81
499.671	-306.85
499.879	465.23
500.087	319.82
500.296	-261.8
500.504	-233.13
500.713	115.03
500.921	526.67
501.129	-241.32
501.338	-265.89
501.546	59.73
501.754	0.34
501.962	-216.74
502.171	-329.38
502.379	139.6
502.587	440.65
502.795	-239.27
503.004	-175.78
503.212	100.69
503.42	237.91
503.628	-249.51
503.837	-192.17
504.045	170.32
504.253	434.51
504.461	-249.51
504.669	-407.2
504.877	168.27
505.085	430.41
505.294	-362.15
505.502	-93.87
505.71	123.22
505.918	213.33
506.126	-282.28
506.334	-392.87
506.542	8.53
506.75	78.16
506.958	-126.63
507.166	-200.36
507.374	-65.19
507.582	547.15
507.79	-167.59
507.998	-347.81
508.206	94.55
508.414	139.6
508.622	-292.52
508.83	-261.8
509.037	381.26
509.245	-18.09
509.453	-280.23
509.661	-308.9
509.869	178.51
510.077	-44.71
510.285	-52.91
510.492	-548.51
510.7	524.62
510.908	-26.28
511.116	-208.55
511.324	-257.7
511.531	-7.85
511.739	94.55
511.947	-153.26
512.155	24.92
512.362	14.68
512.57	-171.69
512.778	-351.91
512.985	-415.4
513.193	303.44
513.401	305.49
513.608	-192.17
513.816	-212.65
514.024	229.71
514.231	315.73
514.439	-276.13
514.646	-249.51
514.854	158.03
515.061	338.26
515.269	-253.61
515.477	-308.9
515.684	-130.73
515.892	221.52
516.099	-343.72
516.307	-399.01
516.514	203.09
516.722	364.88
516.929	-245.41
517.136	-380.58
517.344	315.73
517.551	125.27
517.759	-337.57
517.966	-261.8
518.173	-163.5
518.381	72.02
518.588	-210.6
518.796	-253.61
519.003	244.05
519.21	-16.04
519.418	-265.89
519.625	29.01
519.832	49.49
520.039	242
520.247	-464.55
520.454	-358.05
520.661	276.82
520.868	108.88
521.076	-218.79
521.283	-241.32
521.49	686.41
521.697	192.85
521.904	-253.61
522.112	-233.13
522.319	203.09
522.526	98.64
522.733	-313
522.94	-331.43
523.147	0.34
523.354	227.67
523.561	-380.58
523.768	-159.4
523.975	280.91
524.183	33.11
524.39	-206.5
524.597	-337.57
524.804	110.93
525.011	-120.49
525.218	-396.96
525.425	-280.23
525.632	336.21
525.838	-89.77
526.045	-292.52
526.252	-278.18
526.459	1098.05
526.666	844.1
526.873	-294.57
527.08	-165.54
527.287	334.16
527.494	244.05
527.701	-353.96
527.907	-366.25
528.114	135.51
528.321	51.54
528.528	-233.13
528.735	-298.66
528.941	-50.86
529.148	-95.91
529.355	-120.49
529.562	-349.86
529.768	303.44
529.975	-61.1
530.182	-220.84
530.388	-276.13
530.595	311.63
530.802	-171.69
531.008	-126.63
531.215	-265.89
531.422	364.88
531.628	622.92
531.835	-181.93
532.042	-169.64
532.248	49.49
532.455	10.58
532.661	-214.7
532.868	-212.65
533.074	65.88
533.281	217.43
533.487	-235.18
533.694	-261.8
533.9	-155.3
534.107	168.27
534.313	-341.67
534.52	-323.24
534.726	201.04
534.933	446.8
535.139	-362.15
535.345	-343.72
535.552	18.77
535.758	4.44
535.965	-233.13
536.171	-335.53
536.377	248.15
536.584	323.92
536.79	-206.5
536.996	-198.31
537.203	-7.85
537.409	102.74
537.615	-206.5
537.821	-149.16
538.028	225.62
538.234	289.1
538.44	-222.89
538.646	-183.98
538.853	174.42
539.059	-67.24
539.265	69.97
539.471	-482.98
539.677	278.87
539.883	-59.05
540.09	-253.61
540.296	61.78
540.502	100.69
540.708	-173.74
540.914	-147.11
541.12	-257.7
541.326	172.37
541.532	-16.04
541.738	-179.88
541.944	-186.02
542.15	305.49
542.356	2.39
542.562	-368.29
542.768	-226.98
542.974	584.01
543.18	432.46
543.386	-237.22
543.592	-364.2
543.798	295.25
544.004	270.67
544.21	-274.09
544.415	-192.17
544.621	43.35
544.827	307.54
545.033	-413.35
545.239	-116.39
545.445	-196.26
545.651	115.03
545.856	-360.1
546.062	-284.33
546.268	-73.39
546.474	4.44
546.679	-237.22
546.885	-263.85
547.091	-177.83
547.297	475.47
547.502	-167.59
547.708	-421.54
547.914	-110.25
548.119	203.09
548.325	-349.86
548.531	-313
548.736	319.82
548.942	-106.15
549.147	-302.76
549.353	4.44
549.559	229.71
549.764	96.6
549.97	-269.99
550.175	-296.61
550.381	133.46
550.586	-40.62
550.792	-253.61
550.997	-214.7
551.203	233.81
551.408	188.75
551.614	-405.16
551.819	-337.57
552.025	442.7
552.23	469.33
552.435	-362.15
552.641	-73.39
552.846	-188.07
553.052	274.77
553.257	-198.31
553.462	-237.22
553.668	-24.23
553.873	282.96
554.078	-323.24
554.283	-278.18
554.489	67.92
554.694	-30.38
554.899	-364.2
555.105	-100.01
555.31	225.62
555.515	223.57
555.72	-208.55
555.925	-353.96
556.131	110.93
556.336	-7.85
556.541	-331.43
556.746	-360.1
556.951	303.44
557.156	409.94
557.361	-245.41
557.567	-171.69
557.772	528.72
557.977	211.28
558.182	-300.71
558.387	-370.34
558.592	-67.24
558.797	336.21
559.002	-175.78
559.207	-147.11
559.412	-32.43
559.617	454.99
559.822	-278.18
560.027	-302.76
560.232	106.84
560.437	274.77
560.642	-493.22
560.847	-302.76
561.051	98.64
561.256	-1.71
561.461	-200.36
561.666	-376.48
561.871	147.8
562.076	184.66
562.281	-159.4
562.485	-351.91
562.69	203.09
562.895	256.34
563.1	-188.07
563.305	-347.81
563.509	303.44
563.714	588.11
563.919	-339.62
564.123	-349.86
564.328	-28.33
564.533	250.19
564.737	-194.22
564.942	-272.04
565.147	479.57
565.351	500.05
565.556	-163.5
565.761	-145.06
565.965	72.02
566.17	-118.44
566.374	-294.57
566.579	-323.24
566.784	65.88
566.988	-104.11
567.193	-386.72
567.397	-290.47
567.602	-259.75
567.806	29.01
568.011	-276.13
568.215	-224.94
568.42	45.4
568.624	-71.34
568.828	-341.67
569.033	-112.3
569.237	92.5
569.442	190.8
569.646	-380.58
569.85	-339.62
570.055	-93.87
570.259	59.73
570.463	-106.15
570.668	-280.23
570.872	78.16
571.076	31.06
571.281	-181.93
571.485	-157.35
571.689	61.78
571.893	307.54
572.098	-157.35
572.302	-339.62
572.506	166.23
572.71	82.26
572.914	-214.7
573.119	-265.89
573.323	418.13
573.527	342.35
573.731	-274.09
573.935	-298.66
574.139	86.36
574.343	-224.94
574.547	-263.85
574.751	-237.22
574.955	368.98
575.159	262.48
575.364	-356.01
575.568	-366.25
575.772	35.16
575.976	315.73
576.18	-325.29
576.383	-378.53
576.587	252.24
576.791	270.67
576.995	-460.45
577.199	-458.4
577.403	244.05
577.607	217.43
577.811	-370.34
578.015	-126.63
578.219	35.16
578.422	291.15
578.626	-247.46
578.83	-89.77
579.034	274.77
579.238	26.96
579.442	-372.39
579.645	80.21
579.849	-13.99
580.053	67.92
580.257	-265.89
580.46	-190.12
580.664	229.71
580.868	143.7
581.071	-85.67
581.275	-196.26
581.479	-278.18
581.682	207.19
581.886	-237.22
582.09	-192.17
582.293	225.62
582.497	246.1
582.7	-97.96
582.904	-364.2
583.107	-3.75
583.311	-93.87
583.515	-196.26
583.718	-159.4
583.922	129.36
584.125	426.32
584.329	-231.08
584.532	-11.95
584.735	319.82
584.939	168.27
585.142	-351.91
585.346	-288.42
585.549	74.07
585.753	-118.44
585.956	-251.56
586.159	-196.26
586.363	416.08
586.566	153.94
586.769	-306.85
586.973	-278.18
587.176	239.95
587.379	344.4
587.582	86.36
587.786	-34.47
587.989	33.11
588.192	627.02
588.395	-149.16
588.599	29.01
588.802	88.4
589.005	198.99
589.208	-276.13
589.411	-204.46
589.615	301.39
589.818	385.36
590.021	16.73
590.224	-120.49
590.427	198.99
590.63	242
590.833	-269.99
591.036	-245.41
591.239	16.73
591.442	-122.54
591.645	-20.14
591.848	-200.36
592.051	125.27
592.254	244.05
592.457	-233.13
592.66	-222.89
592.863	-118.44
593.066	184.66
593.269	-249.51
593.472	-145.06
593.675	-194.22
593.878	221.52
594.081	-169.64
594.284	-347.81
594.486	162.13
594.689	131.41
594.892	-165.54
595.095	-196.26
595.298	168.27
595.5	-44.71
595.703	-89.77
595.906	-91.82
596.109	366.93
596.311	242
596.514	-517.79
596.717	-249.51
596.92	385.36
597.122	221.52
597.325	-450.21
597.528	-245.41
597.73	276.82
597.933	88.4
598.136	-249.51
598.338	-472.74
598.541	160.08
598.743	387.41
598.946	-224.94
599.148	-239.27
599.351	356.69
599.554	356.69
599.756	-147.11
599.959	-208.55
600.161	379.22
600.363	549.2
600.566	6.49
600.768	-206.5
600.971	450.89
601.173	274.77
601.376	-218.79
601.578	-116.39
601.78	174.42
601.983	618.83
602.185	-343.72
602.388	-138.92
602.59	188.75
602.792	-91.82
602.995	-71.34
603.197	-284.33
603.399	299.34
603.601	137.56
603.804	-222.89
604.006	-198.31
604.208	31.06
604.41	-329.38
604.613	-44.71
604.815	-298.66
605.017	643.4
605.219	-65.19
605.421	94.55
605.623	-239.27
605.826	287.06
606.028	409.94
606.23	-188.07
606.432	-286.37
606.634	375.12
606.836	411.98
607.038	-290.47
607.24	-77.48
607.442	14.68
607.644	24.92
607.846	-54.95
608.048	-269.99
608.25	442.7
608.452	-155.3
608.654	-212.65
608.856	-448.16
609.058	72.02
609.26	112.98
609.462	-104.11
609.664	-241.32
609.866	491.85
610.067	248.15
610.269	-77.48
610.471	-200.36
610.673	-75.43
610.875	276.82
611.077	-382.63
611.278	-138.92
611.48	45.4
611.682	487.76
611.884	-126.63
612.085	-143.02
612.287	-181.93
612.489	153.94
612.69	-294.57
612.892	-138.92
613.094	289.1
613.295	184.66
613.497	-257.7
613.699	-194.22
613.9	420.17
614.102	246.1
614.304	-134.82
614.505	-396.96
614.707	-28.33
614.908	-11.95
615.11	-353.96
615.311	-126.63
615.513	176.47
615.714	242
615.916	-331.43
616.117	-155.3
616.319	65.88
616.52	201.04
616.722	-216.74
616.923	-292.52
617.124	287.06
617.326	231.76
617.527	-112.3
617.729	69.97
617.93	186.71
618.131	291.15
618.333	-167.59
618.534	-100.01
618.735	-77.48
618.937	414.03
619.138	-329.38
619.339	-263.85
619.54	203.09
619.742	-50.86
619.943	-50.86
620.144	-165.54
620.345	303.44
620.546	348.5
620.748	-296.61
620.949	-173.74
621.15	155.99
621.351	149.84
621.552	-200.36
621.753	-401.06
621.954	-306.85
622.155	416.08
622.356	-329.38
622.558	4.44
622.759	41.3
622.96	471.37
623.161	-280.23
623.362	-155.3
623.563	78.16
623.764	80.21
623.965	-214.7
624.166	-40.62
624.366	33.11
624.567	147.8
624.768	-493.22
624.969	-237.22
625.17	14.68
625.371	221.52
625.572	-147.11
625.773	-333.48
625.973	231.76
626.174	219.47
626.375	-206.5
626.576	-149.16
626.777	215.38
626.977	663.88
627.178	-290.47
627.379	-138.92
627.58	-20.14
627.78	121.17
627.981	-120.49
628.182	-136.87
628.382	348.5
628.583	-212.65
628.784	-265.89
628.984	4.44
629.185	287.06
629.386	215.38
629.586	-79.53
629.787	-284.33
629.987	192.85
630.188	31.06
630.388	-116.39
630.589	-204.46
630.79	657.74
630.99	49.49
631.191	-128.68
631.391	-118.44
631.591	256.34
631.792	434.51
631.992	-3.75
632.193	-183.98
632.393	475.47
632.594	104.79
632.794	-190.12
632.994	-102.06
633.195	147.8
633.395	106.84
633.595	-241.32
633.796	51.54
633.996	-81.58
634.196	373.07
634.397	-280.23
634.597	-89.77
634.797	24.92
634.997	498
635.198	-22.19
635.398	-269.99
635.598	41.3
635.798	422.22
635.998	162.13
636.199	-220.84
636.399	-112.3
636.599	-167.59
636.799	-278.18
636.999	22.87
637.199	207.19
637.399	323.92
637.599	-216.74
637.799	-79.53
637.999	-30.38
638.199	450.89
638.399	-153.26
638.599	-183.98
638.799	227.67
638.999	563.53
639.199	69.97
639.399	-102.06
639.599	422.22
639.799	-134.82
639.999	-280.23
640.199	-272.04
640.399	225.62
640.599	184.66
640.799	-71.34
640.998	35.16
641.198	393.55
641.398	215.38
641.598	-16.04
641.798	-206.5
641.997	1012.04
642.197	72.02
642.397	-69.29
642.597	-208.55
642.796	176.47
642.996	454.99
643.196	8.53
643.395	-265.89
643.595	231.76
643.795	-356.01
643.994	-136.87
644.194	-81.58
644.394	285.01
644.593	141.65
644.793	-341.67
644.992	-85.67
645.192	180.56
645.392	-218.79
645.591	-38.57
645.791	-143.02
645.99	213.33
646.19	18.77
646.389	-134.82
646.589	-85.67
646.788	315.73
646.987	233.81
647.187	160.08
647.386	74.07
647.586	147.8
647.785	377.17
647.984	-122.54
648.184	-198.31
648.383	-81.58
648.582	51.54
648.782	-165.54
648.981	-42.67
649.18	-122.54
649.38	178.51
649.579	-124.58
649.778	-257.7
649.977	213.33
650.177	147.8
650.376	-218.79
650.575	-134.82
650.774	452.94
650.973	-52.91
651.173	-272.04
651.372	-16.04
651.571	205.14
651.77	375.12
651.969	-202.41
652.168	-50.86
652.367	-108.2
652.566	51.54
652.765	-100.01
652.964	155.99
653.163	561.48
653.362	121.17
653.561	-95.91
653.76	-116.39
653.959	24.92
654.158	203.09
654.357	69.97
654.556	-155.3
654.755	264.53
654.954	285.01
655.153	-63.15
655.352	-106.15
655.551	409.94
655.749	-28.33
655.948	-65.19
656.147	-13.99
656.346	233.81
656.545	41.3
656.743	-81.58
656.942	-110.25
657.141	57.68
657.34	-122.54
657.538	29.01
657.737	-143.02
657.936	12.63
658.135	196.95
658.333	-165.54
658.532	-59.05
658.731	584.01
658.929	266.58
659.128	190.8
659.326	-143.02
659.525	475.47
659.724	123.22
659.922	-382.63
660.121	-325.29
660.319	102.74
660.518	-9.9
660.716	-212.65
660.915	-153.26
661.113	442.7
661.312	-100.01
661.51	-5.8
661.709	-218.79
661.907	422.22
662.105	520.53
662.304	-204.46
662.502	-91.82
662.701	362.83
662.899	80.21
663.097	141.65
663.296	-261.8
663.494	340.3
663.692	424.27
663.891	-194.22
664.089	-167.59
664.287	151.89
664.485	444.75
664.684	-126.63
664.882	41.3
665.08	190.8
665.278	108.88
665.476	-286.37
665.675	188.75
665.873	555.34
666.071	424.27
666.269	-143.02
666.467	94.55
666.665	215.38
666.863	90.45
667.061	33.11
667.259	-169.64
667.457	186.71
667.655	268.63
667.853	-278.18
668.051	-61.1
668.249	-42.67
668.447	285.01
668.645	-171.69
668.843	92.5
669.041	225.62
669.239	57.68
669.437	16.73
669.635	6.49
669.833	31.06
670.031	282.96
670.229	41.3
670.426	6.49
670.624	63.83
670.822	-26.28
671.02	-110.25
671.218	-89.77
671.415	-118.44
671.613	129.36
671.811	-16.04
672.009	-75.43
672.206	278.87
672.404	221.52
672.602	74.07
672.799	31.06
672.997	170.32
673.195	352.59
673.392	61.78
673.59	-200.36
673.788	274.77
673.985	-335.53
674.183	-57
674.38	-87.72
674.578	297.3
674.775	-63.15
674.973	-183.98
675.17	-218.79
675.368	436.56
675.565	303.44
675.763	-186.02
675.96	-186.02
676.158	418.13
676.355	143.7
676.553	-114.34
676.75	-167.59
676.947	166.23
677.145	63.83
677.342	78.16
677.539	65.88
677.737	203.09
677.934	620.88
678.131	82.26
678.329	-52.91
678.526	584.01
678.723	307.54
678.92	-24.23
679.118	-57
679.315	-204.46
679.512	457.04
679.709	-81.58
679.906	-32.43
680.104	350.54
680.301	160.08
680.498	-224.94
680.695	-208.55
680.892	16.73
681.089	-26.28
681.286	37.2
681.483	-280.23
681.68	303.44
681.877	334.16
682.075	-104.11
682.272	135.51
682.469	282.96
682.665	112.98
682.862	-81.58
683.059	-222.89
683.256	219.47
683.453	213.33
683.65	18.77
683.847	-20.14
684.044	135.51
684.241	-130.73
684.438	39.25
684.635	-151.21
684.831	618.83
685.028	618.83
685.225	-32.43
685.422	55.64
685.619	121.17
685.815	201.04
686.012	-44.71
686.209	-7.85
686.405	-134.82
686.602	387.41
686.799	-85.67
686.996	-167.59
687.192	-32.43
687.389	581.96
687.586	-155.3
687.782	-102.06
687.979	588.11
688.175	481.61
688.372	43.35
688.568	-149.16
688.765	119.12
688.962	489.81
689.158	139.6
689.355	-265.89
689.551	383.31
689.748	10.58
689.944	10.58
690.14	-233.13
690.337	368.98
690.533	63.83
690.73	174.42
690.926	-16.04
691.123	397.65
691.319	112.98
691.515	-159.4
691.712	168.27
691.908	356.69
692.104	233.81
692.301	51.54
692.497	-196.26
692.693	405.84
692.889	325.97
693.086	86.36
693.282	-214.7
693.478	168.27
693.674	588.11
693.87	31.06
694.067	-190.12
694.263	155.99
694.459	82.26
694.655	96.6
694.851	112.98
695.047	328.02
695.243	387.41
695.439	16.73
695.635	-18.09
695.831	336.21
696.027	317.78
696.224	-122.54
696.42	313.68
696.615	545.1
696.811	266.58
697.007	-132.78
697.203	4.44
697.399	246.1
697.595	532.81
697.791	-69.29
697.987	76.12
698.183	-118.44
698.379	-9.9
698.575	55.64
698.77	4.44
698.966	375.12
699.162	536.91
699.358	-5.8
699.554	-20.14
699.749	387.41
699.945	368.98
700.141	151.89
700.337	100.69
700.532	149.84
700.728	-18.09
700.924	-38.57
701.119	-138.92
701.315	348.5
701.511	131.41
701.706	92.5
701.902	-222.89
702.097	223.57
702.293	405.84
702.489	41.3
702.684	-69.29
702.88	139.6
703.075	78.16
703.271	-50.86
703.466	-138.92
703.662	244.05
703.857	366.93
704.053	-102.06
704.248	26.96
704.443	328.02
704.639	403.79
704.834	29.01
705.03	-73.39
705.225	401.74
705.42	457.04
705.616	137.56
705.811	-65.19
706.006	153.94
706.202	94.55
706.397	102.74
706.592	-57
706.787	229.71
706.983	328.02
707.178	256.34
707.373	69.97
707.568	393.55
707.763	479.57
707.959	8.53
708.154	-44.71
708.349	280.91
708.544	309.58
708.739	229.71
708.934	-138.92
709.129	379.22
709.324	567.63
709.519	-73.39
709.714	-167.59
709.909	452.94
710.104	424.27
710.299	-20.14
710.494	0.34
710.689	389.46
710.884	266.58
711.079	135.51
711.274	178.51
711.469	336.21
711.664	332.11
711.859	-11.95
712.054	110.93
712.249	414.03
712.443	446.8
712.638	-75.43
712.833	-50.86
713.028	119.12
713.223	209.23
713.417	201.04
713.612	-83.63
713.807	389.46
714.002	874.82
714.196	139.6
714.391	-36.52
714.586	467.28
714.78	242
714.975	10.58
715.17	4.44
715.364	131.41
715.559	471.37
715.754	-257.7
715.948	-28.33
716.143	710.99
716.337	291.15
716.532	244.05
716.726	-114.34
716.921	375.12
717.115	684.36
717.31	-106.15
717.504	604.49
717.699	149.84
717.893	479.57
718.088	-106.15
718.282	-102.06
718.476	260.43
718.671	440.65
718.865	84.31
719.059	-65.19
719.254	246.1
719.448	610.64
719.642	1411.39
719.837	-128.68
720.031	395.6
720.225	452.94
720.419	127.32
720.614	20.82
720.808	479.57
721.002	188.75
721.196	-48.81
721.39	69.97
721.585	561.48
721.779	393.55
721.973	110.93
722.167	-233.13
722.361	235.86
722.555	424.27
722.749	12.63
722.943	-13.99
723.137	29.01
723.331	405.84
723.525	-1.71
723.719	0.34
723.913	446.8
724.107	618.83
724.301	-5.8
724.495	78.16
724.689	811.34
724.883	569.68
725.077	-5.8
725.271	8.53
725.465	508.24
725.659	242
725.853	74.07
726.046	-116.39
726.24	153.94
726.434	479.57
726.628	12.63
726.822	39.25
727.015	541.01
727.209	547.15
727.403	24.92
727.596	-75.43
727.79	557.39
727.984	457.04
728.177	26.96
728.371	115.03
728.565	520.53
728.758	-91.82
728.952	-69.29
729.146	78.16
729.339	520.53
729.533	227.67
729.726	51.54
729.92	-167.59
730.113	545.1
730.307	387.41
730.5	-11.95
730.694	41.3
730.887	149.84
731.081	389.46
731.274	-75.43
731.468	135.51
731.661	295.25
731.854	153.94
732.048	-28.33
732.241	-120.49
732.435	149.84
732.628	418.13
732.821	139.6
733.014	-61.1
733.208	0.34
733.401	436.56
733.594	141.65
733.788	-34.47
733.981	659.79
734.174	375.12
734.367	41.3
734.56	125.27
734.754	454.99
734.947	221.52
735.14	-22.19
735.333	88.4
735.526	495.95
735.719	131.41
735.912	-13.99
736.105	-32.43
736.298	272.72
736.491	201.04
736.684	47.44
736.877	74.07
737.07	356.69
737.263	610.64
737.456	20.82
737.649	-95.91
737.842	237.91
738.035	287.06
738.228	115.03
738.421	145.75
738.614	577.87
738.807	487.76
739	-81.58
739.192	-52.91
739.385	391.5
739.578	446.8
739.771	305.49
739.964	94.55
740.156	397.65
740.349	239.95
740.542	180.56
740.735	-57
740.927	72.02
741.12	168.27
741.313	-42.67
741.505	192.85
741.698	315.73
741.891	332.11
742.083	182.61
742.276	110.93
742.468	250.19
742.661	227.67
742.854	24.92
743.046	-16.04
743.239	645.45
743.431	246.1
743.624	160.08
743.816	-97.96
744.009	262.48
744.201	489.81
744.393	196.95
744.586	-87.72
744.778	616.78
744.971	276.82
745.163	149.84
745.355	182.61
745.548	291.15
745.74	239.95
745.932	67.92
746.125	37.2
746.317	805.19
746.509	366.93
746.702	78.16
746.894	196.95
747.086	391.5
747.278	629.07
747.471	328.02
747.663	213.33
747.855	278.87
748.047	641.36
748.239	-9.9
748.431	24.92
748.623	729.42
748.815	743.75
749.008	-48.81
749.2	-9.9
749.392	495.95
749.584	422.22
749.776	139.6
749.968	168.27
750.16	805.19
750.352	295.25
750.544	125.27
750.736	51.54
750.928	434.51
751.12	276.82
751.311	63.83
751.503	74.07
751.695	409.94
751.887	373.07
752.079	-165.54
752.271	-7.85
752.463	1120.58
752.654	471.37
752.846	170.32
753.038	41.3
753.23	213.33
753.421	502.09
753.613	149.84
753.805	242
753.997	545.1
754.188	532.81
754.38	29.01
754.572	125.27
754.763	248.15
754.955	524.62
755.146	178.51
755.338	155.99
755.53	424.27
755.721	268.63
755.913	-83.63
756.104	69.97
756.296	309.58
756.487	467.28
756.679	-26.28
756.87	162.13
757.062	268.63
757.253	538.96
757.445	65.88
757.636	291.15
757.827	295.25
758.019	948.55
758.21	22.87
758.401	102.74
758.593	794.95
758.784	614.73
758.975	-50.86
759.167	-38.57
759.358	418.13
759.549	577.87
759.74	172.37
759.932	63.83
760.123	651.6
760.314	201.04
760.505	250.19
760.696	14.68
760.888	776.52
761.079	309.58
761.27	-18.09
761.461	-40.62
761.652	692.55
761.843	334.16
762.034	76.12
762.225	409.94
762.416	364.88
762.607	313.68
762.798	108.88
762.989	92.5
763.18	1093.96
763.371	360.78
763.562	86.36
763.753	125.27
763.944	606.54
764.135	536.91
764.326	319.82
764.517	86.36
764.708	508.24
764.899	438.61
765.089	102.74
765.28	-106.15
765.471	444.75
765.662	543.05
765.853	221.52
766.043	-16.04
766.234	575.82
766.425	590.16
766.615	129.36
766.806	33.11
766.997	710.99
767.187	498
767.378	110.93
767.569	-102.06
767.759	520.53
767.95	424.27
768.141	295.25
768.331	69.97
768.522	436.56
768.712	530.77
768.903	127.32
769.093	47.44
769.284	745.8
769.474	500.05
769.665	22.87
769.855	-61.1
770.046	541.01
770.236	272.72
770.426	350.54
770.617	-18.09
770.807	524.62
770.998	344.4
771.188	356.69
771.378	53.59
771.569	532.81
771.759	573.77
771.949	-13.99
772.139	-210.6
772.33	422.22
772.52	743.75
772.71	45.4
772.9	-93.87
773.09	819.53
773.281	708.94
773.471	53.59
773.661	153.94
773.851	594.25
774.041	274.77
774.231	-24.23
774.421	229.71
774.611	651.6
774.802	360.78
774.992	219.47
775.182	24.92
775.372	381.26
775.562	672.08
775.752	164.18
775.942	201.04
776.131	737.61
776.321	454.99
776.511	209.23
776.701	84.31
776.891	653.64
777.081	129.36
777.271	285.01
777.461	106.84
777.651	618.83
777.84	639.31
778.03	256.34
778.22	29.01
778.41	727.37
778.599	125.27
778.789	96.6
778.979	98.64
779.169	514.38
779.358	356.69
779.548	446.8
779.738	24.92
779.927	459.09
780.117	227.67
780.307	186.71
780.496	-93.87
780.686	465.23
780.875	870.73
781.065	63.83
781.254	121.17
781.444	393.55
781.633	487.76
781.823	84.31
782.012	61.78
782.202	262.48
782.391	325.97
782.581	65.88
782.77	256.34
782.96	491.85
783.149	418.13
783.338	39.25
783.528	-71.34
783.717	586.06
783.906	647.5
784.096	221.52
784.285	26.96
784.474	356.69
784.663	190.8
784.853	155.99
785.042	168.27
785.231	264.53
785.42	598.35
785.61	227.67
785.799	-28.33
785.988	272.72
786.177	407.89
786.366	203.09
786.555	340.3
786.744	557.39
786.933	485.71
787.122	-3.75
787.312	61.78
787.501	233.81
787.69	491.85
787.879	127.32
788.068	78.16
788.257	205.14
788.445	285.01
788.634	209.23
788.823	0.34
789.012	995.65
789.201	749.9
789.39	201.04
789.579	57.68
789.768	467.28
789.957	463.18
790.145	110.93
790.334	-183.98
790.523	360.78
790.712	389.46
790.9	231.76
791.089	-52.91
791.278	686.41
791.467	446.8
791.655	350.54
791.844	588.11
792.033	272.72
792.221	225.62
792.41	196.95
792.599	-30.38
792.787	563.53
792.976	610.64
793.164	57.68
793.353	172.37
793.541	608.59
793.73	422.22
793.918	166.23
794.107	127.32
794.295	452.94
794.484	424.27
794.672	170.32
794.861	106.84
795.049	559.44
795.238	827.72
795.426	-24.23
795.614	332.11
795.803	450.89
795.991	727.37
796.179	69.97
796.368	35.16
796.556	651.6
796.744	285.01
796.932	80.21
797.121	94.55
797.309	373.07
797.497	573.77
797.685	176.47
797.874	133.46
798.062	319.82
798.25	733.51
798.438	92.5
798.626	143.7
798.814	565.58
799.002	1003.85
799.19	336.21
799.378	176.47
799.566	784.71
799.755	801.1
799.943	332.11
800.131	153.94
800.318	510.29
800.506	543.05
800.694	192.85
800.882	270.67
801.07	651.6
801.258	414.03
801.446	127.32
801.634	143.7
801.822	434.51
802.01	436.56
802.197	137.56
802.385	274.77
802.573	465.23
802.761	246.1
802.949	282.96
803.136	-81.58
803.324	624.97
803.512	438.61
803.699	244.05
803.887	121.17
804.075	813.38
804.262	315.73
804.45	-20.14
804.638	325.97
804.825	289.1
805.013	246.1
805.201	205.14
805.388	76.12
805.576	418.13
805.763	864.58
805.951	78.16
806.138	332.11
806.326	850.25
806.513	590.16
806.701	190.8
806.888	225.62
807.075	516.43
807.263	821.58
807.45	33.11
807.638	344.4
807.825	891.21
808.012	721.23
808.2	209.23
808.387	469.33
808.574	608.59
808.761	756.04
808.949	133.46
809.136	264.53
809.323	323.92
809.51	399.7
809.698	459.09
809.885	420.17
810.072	577.87
810.259	729.42
810.446	242
810.633	303.44
810.82	651.6
811.008	756.04
811.195	483.66
811.382	258.39
811.569	457.04
811.756	143.7
811.943	221.52
812.13	209.23
812.317	457.04
812.504	315.73
812.691	362.83
812.878	317.78
813.064	889.16
813.251	500.05
813.438	119.12
813.625	375.12
813.812	483.66
813.999	524.62
814.186	315.73
814.372	201.04
814.559	553.29
814.746	913.74
814.933	223.57
815.12	479.57
815.306	426.32
815.493	221.52
815.68	196.95
815.866	225.62
816.053	782.67
816.24	995.65
816.426	307.54
816.613	153.94
816.799	674.12
816.986	831.82
817.173	313.68
817.359	274.77
817.546	635.21
817.732	162.13
817.919	-1.71
818.105	422.22
818.292	426.32
818.478	680.27
818.665	364.88
818.851	139.6
819.037	934.22
819.224	559.44
819.41	172.37
819.597	219.47
819.783	932.17
819.969	657.74
820.156	293.2
820.342	153.94
820.528	1274.18
820.714	418.13
820.901	567.63
821.087	237.91
821.273	909.64
821.459	401.74
821.646	225.62
821.832	45.4
822.018	500.05
822.204	563.53
822.39	309.58
822.576	135.51
822.762	639.31
822.948	590.16
823.134	479.57
823.32	272.72
823.507	264.53
823.693	500.05
823.879	698.7
824.065	162.13
824.25	614.73
824.436	323.92
824.622	254.29
824.808	219.47
824.994	377.17
825.18	325.97
825.366	160.08
825.552	252.24
825.738	610.64
825.923	672.08
826.109	606.54
826.295	198.99
826.481	375.12
826.667	440.65
826.852	407.89
827.038	201.04
827.224	684.36
827.409	1057.09
827.595	213.33
827.781	416.08
827.966	688.46
828.152	756.04
828.338	293.2
828.523	176.47
828.709	389.46
828.894	969.03
829.08	332.11
829.266	217.43
829.451	418.13
829.637	682.31
829.822	381.26
830.008	205.14
830.193	840.01
830.378	895.3
830.564	278.87
830.749	147.8
830.935	692.55
831.12	690.51
831.305	235.86
831.491	381.26
831.676	258.39
831.861	760.14
832.047	328.02
832.232	237.91
832.417	856.39
832.602	565.58
832.788	235.86
832.973	215.38
833.158	579.92
833.343	581.96
833.528	420.17
833.714	377.17
833.899	692.55
834.084	1053
834.269	446.8
834.454	309.58
834.639	872.78
834.824	500.05
835.009	405.84
835.194	446.8
835.379	700.75
835.564	885.06
835.749	567.63
835.934	209.23
836.119	790.86
836.304	639.31
836.489	311.63
836.674	573.77
836.859	323.92
837.044	837.96
837.228	334.16
837.413	198.99
837.598	659.79
837.783	788.81
837.968	266.58
838.152	219.47
838.337	102.74
838.522	866.63
838.707	911.69
838.891	454.99
839.076	659.79
839.261	819.53
839.445	309.58
839.63	368.98
839.815	991.56
839.999	450.89
840.184	291.15
840.368	272.72
840.553	846.15
840.737	739.66
840.922	342.35
841.106	221.52
841.291	375.12
841.475	596.3
841.66	262.48
841.844	266.58
842.029	1245.51
842.213	336.21
842.397	274.77
842.582	149.84
842.766	872.78
842.951	774.47
843.135	270.67
843.319	360.78
843.504	676.17
843.688	799.05
843.872	104.79
844.056	254.29
844.241	760.14
844.425	528.72
844.609	538.96
844.793	131.41
844.977	770.38
845.161	606.54
845.346	164.18
845.53	307.54
845.714	508.24
845.898	946.5
846.082	147.8
846.266	274.77
846.45	606.54
846.634	586.06
846.818	362.83
847.002	383.31
847.186	760.14
847.37	311.63
847.554	287.06
847.738	479.57
847.922	653.64
848.106	647.5
848.29	168.27
848.473	319.82
848.657	786.76
848.841	479.57
849.025	332.11
849.209	112.98
849.392	819.53
849.576	545.1
849.76	33.11
849.944	495.95
850.127	932.17
850.311	385.36
850.495	145.75
850.678	164.18
850.862	868.68
851.046	948.55
851.229	604.49
851.413	323.92
851.596	581.96
851.78	612.68
851.964	446.8
852.147	336.21
852.331	1354.05
852.514	936.26
852.698	444.75
852.881	264.53
853.065	833.86
853.248	473.42
853.431	471.37
853.615	395.6
853.798	1147.2
853.982	733.51
854.165	520.53
854.348	282.96
854.532	350.54
854.715	545.1
854.898	420.17
855.081	438.61
855.265	958.79
855.448	1065.29
855.631	274.77
855.814	291.15
855.997	774.47
856.181	592.2
856.364	385.36
856.547	149.84
856.73	721.23
856.913	604.49
857.096	176.47
857.279	422.22
857.462	502.09
857.645	889.16
857.828	450.89
858.011	438.61
858.194	442.7
858.377	782.67
858.56	233.81
858.743	336.21
858.926	463.18
859.109	690.51
859.292	356.69
859.475	219.47
859.658	889.16
859.841	747.85
860.023	155.99
860.206	285.01
860.389	653.64
860.572	987.46
860.755	387.41
860.937	270.67
861.12	569.68
861.303	610.64
861.486	416.08
861.668	209.23
861.851	690.51
862.034	751.95
862.216	543.05
862.399	80.21
862.581	831.82
862.764	973.13
862.947	385.36
863.129	299.34
863.312	416.08
863.494	999.75
863.677	645.45
863.859	123.22
864.042	803.15
864.224	944.45
864.406	424.27
864.589	129.36
864.771	780.62
864.954	399.7
865.136	258.39
865.318	149.84
865.501	721.23
865.683	201.04
865.865	301.39
866.048	436.56
866.23	684.36
866.412	649.55
866.594	231.76
866.777	414.03
866.959	840.01
867.141	407.89
867.323	569.68
867.505	481.61
867.687	651.6
867.869	643.4
868.052	332.11
868.234	252.24
868.416	708.94
868.598	837.96
868.78	375.12
868.962	305.49
869.144	862.54
869.326	852.3
869.508	344.4
869.69	237.91
869.872	475.47
870.054	893.26
870.236	258.39
870.417	274.77
870.599	512.33
870.781	1007.94
870.963	483.66
871.145	178.51
871.327	440.65
871.508	803.15
871.69	336.21
871.872	356.69
872.054	596.3
872.235	745.8
872.417	471.37
872.599	176.47
872.78	991.56
872.962	682.31
873.144	90.45
873.325	434.51
873.507	960.84
873.689	676.17
873.87	280.91
874.052	438.61
874.233	643.4
874.415	860.49
874.596	422.22
874.778	244.05
874.959	713.03
875.141	790.86
875.322	399.7
875.503	328.02
875.685	676.17
875.866	313.68
876.048	387.41
876.229	242
876.41	604.49
876.592	751.95
876.773	371.02
876.954	170.32
877.136	975.17
877.317	502.09
877.498	196.95
877.679	366.93
877.86	786.76
878.042	674.12
878.223	356.69
878.404	661.84
878.585	751.95
878.766	1042.76
878.947	547.15
879.128	729.42
879.309	864.58
879.49	977.22
879.672	454.99
879.853	373.07
880.034	424.27
880.215	573.77
880.396	569.68
880.576	377.17
880.757	530.77
880.938	979.27
881.119	258.39
881.3	336.21
881.481	545.1
881.662	1540.41
881.843	246.1
882.023	162.13
882.204	753.99
882.385	635.21
882.566	338.26
882.747	373.07
882.927	596.3
883.108	702.79
883.289	323.92
883.469	573.77
883.65	569.68
883.831	694.6
884.011	678.22
884.192	364.88
884.373	885.06
884.553	766.28
884.734	465.23
884.914	674.12
885.095	1319.23
885.275	1134.92
885.456	715.08
885.636	278.87
885.817	610.64
885.997	645.45
886.178	418.13
886.358	483.66
886.538	698.7
886.719	1610.04
886.899	405.84
887.08	579.92
887.26	905.54
887.44	422.22
887.621	330.06
887.801	522.57
887.981	1294.66
888.161	932.17
888.342	424.27
888.522	518.48
888.702	817.48
888.882	903.5
889.062	524.62
889.242	237.91
889.423	1167.68
889.603	733.51
889.783	495.95
889.963	414.03
890.143	895.3
890.323	1012.04
890.503	543.05
890.683	424.27
890.863	770.38
891.043	833.86
891.223	586.06
891.403	637.26
891.583	680.27
891.763	878.92
891.943	559.44
892.122	368.98
892.302	717.13
892.482	766.28
892.662	655.69
892.842	504.14
893.022	840.01
893.201	663.88
893.381	639.31
893.561	463.18
893.741	930.12
893.92	905.54
894.1	610.64
894.28	608.59
894.459	985.41
894.639	926.02
894.819	448.85
894.998	629.07
895.178	729.42
895.357	876.87
895.537	504.14
895.716	411.98
895.896	653.64
896.075	1048.9
896.255	543.05
896.434	266.58
896.614	938.31
896.793	1067.33
896.973	663.88
897.152	700.75
897.331	889.16
897.511	962.89
897.69	395.6
897.87	545.1
898.049	919.88
898.228	835.91
898.407	727.37
898.587	614.73
898.766	594.25
898.945	940.36
899.124	792.91
899.304	817.48
899.483	872.78
899.662	1198.4
899.841	428.37
900.02	502.09
900.199	1053
900.378	946.5
900.557	440.65
900.737	483.66
900.916	973.13
901.095	1009.99
901.274	887.11
901.453	416.08
901.632	692.55
901.811	635.21
901.989	493.9
902.168	489.81
902.347	856.39
902.526	584.01
902.705	512.33
902.884	627.02
903.063	1073.48
903.242	1122.63
903.42	387.41
903.599	641.36
903.778	1020.23
903.957	1157.44
904.135	655.69
904.314	747.85
904.493	891.21
904.672	1012.04
904.85	586.06
905.029	524.62
905.207	903.5
905.386	1597.76
905.565	454.99
905.743	469.33
905.922	674.12
906.1	971.08
906.279	352.59
906.457	438.61
906.636	760.14
906.814	719.18
906.993	586.06
907.171	430.41
907.35	958.79
907.528	1053
907.707	825.67
907.885	485.71
908.063	1268.03
908.242	528.72
908.42	508.24
908.598	323.92
908.777	952.65
908.955	710.99
909.133	643.4
909.311	459.09
909.49	753.99
909.668	809.29
909.846	598.35
910.024	354.64
910.202	907.59
910.38	995.65
910.559	405.84
910.737	448.85
910.915	885.06
911.093	829.77
911.271	553.29
911.449	733.51
911.627	934.22
911.805	1397.06
911.983	579.92
912.161	528.72
912.339	868.68
912.517	1053
912.695	706.89
912.872	514.38
913.05	588.11
913.228	844.1
913.406	598.35
913.584	446.8
913.762	964.93
913.939	647.5
914.117	442.7
914.295	487.76
914.473	928.07
914.65	823.62
914.828	504.14
915.006	498
915.184	538.96
915.361	901.45
915.539	688.46
915.716	766.28
915.894	971.08
916.072	991.56
916.249	825.67
916.427	725.32
916.604	586.06
916.782	921.93
916.959	411.98
917.137	493.9
917.314	874.82
917.492	801.1
917.669	577.87
917.847	602.44
918.024	903.5
918.201	639.31
918.379	620.88
918.556	612.68
918.733	993.61
918.911	684.36
919.088	801.1
919.265	524.62
919.442	807.24
919.62	776.52
919.797	473.42
919.974	432.46
920.151	934.22
920.328	805.19
920.506	491.85
920.683	758.09
920.86	618.83
921.037	592.2
921.214	506.19
921.391	399.7
921.568	971.08
921.745	604.49
921.922	579.92
922.099	477.52
922.276	1053
922.453	856.39
922.63	454.99
922.807	850.25
922.984	749.9
923.161	620.88
923.338	379.22
923.514	491.85
923.691	842.06
923.868	852.3
924.045	446.8
924.222	442.7
924.399	790.86
924.575	1098.05
924.752	530.77
924.929	620.88
925.105	799.05
925.282	608.59
925.459	500.05
925.635	516.43
925.812	692.55
925.989	649.55
926.165	590.16
926.342	315.73
926.518	608.59
926.695	639.31
926.871	426.32
927.048	385.36
927.224	880.97
927.401	608.59
927.577	602.44
927.754	330.06
927.93	948.55
928.107	1016.13
928.283	407.89
928.459	575.82
928.636	917.83
928.812	651.6
928.988	405.84
929.165	274.77
929.341	672.08
929.517	719.18
929.693	819.53
929.87	262.48
930.046	854.34
930.222	665.93
930.398	422.22
930.574	676.17
930.751	749.9
930.927	561.48
931.103	485.71
931.279	491.85
931.455	377.17
931.631	719.18
931.807	268.63
931.983	375.12
932.159	272.72
932.335	719.18
932.511	418.13
932.687	375.12
932.863	667.98
933.039	700.75
933.215	328.02
933.391	323.92
933.566	627.02
933.742	694.6
933.918	475.47
934.094	268.63
934.27	672.08
934.445	579.92
934.621	528.72
934.797	389.46
934.973	975.17
935.148	758.09
935.324	311.63
935.5	225.62
935.675	835.91
935.851	702.79
936.027	364.88
936.202	434.51
936.378	719.18
936.553	581.96
936.729	753.99
936.904	258.39
937.08	282.96
937.255	393.55
937.431	332.11
937.606	131.41
937.782	424.27
937.957	547.15
938.133	377.17
938.308	203.09
938.483	516.43
938.659	266.58
938.834	334.16
939.009	180.56
939.185	393.55
939.36	244.05
939.535	-11.95
939.71	344.4
939.886	702.79
940.061	651.6
940.236	405.84
940.411	213.33
940.586	512.33
940.761	663.88
940.937	301.39
941.112	207.19
941.287	475.47
941.462	432.46
941.637	104.79
941.812	225.62
941.987	506.19
942.162	428.37
942.337	340.3
942.512	170.32
942.687	751.95
942.862	577.87
943.037	135.51
943.212	-95.91
943.386	305.49
943.561	481.61
943.736	389.46
943.911	504.14
944.086	473.42
944.26	524.62
944.435	221.52
944.61	285.01
944.785	624.97
944.959	782.67
945.134	137.56
945.309	45.4
945.483	186.71
945.658	651.6
945.833	-89.77
946.007	20.82
946.182	733.51
946.357	155.99
946.531	88.4
946.706	127.32
946.88	-5.8
947.055	407.89
947.229	182.61
947.404	20.82
947.578	647.5
947.752	254.29
947.927	63.83
948.101	-102.06
948.276	434.51
948.45	354.64
948.624	364.88
948.799	82.26
948.973	446.8
949.147	176.47
949.321	221.52
949.496	106.84
949.67	594.25
949.844	364.88
950.018	137.56
950.193	104.79
950.367	930.12
950.541	266.58
950.715	280.91
950.889	305.49
951.063	379.22
951.237	600.4
951.411	-34.47
951.585	-3.75
951.759	373.07
951.933	403.79
952.107	24.92
952.281	321.87
952.455	766.28
952.629	588.11
952.803	88.4
952.977	143.7
953.151	536.91
953.325	446.8
953.499	262.48
953.672	-61.1
953.846	172.37
954.02	209.23
954.194	72.02
954.368	74.07
954.541	584.01
954.715	164.18
954.889	160.08
955.062	35.16
955.236	434.51
955.41	303.44
955.583	203.09
955.757	53.59
955.93	321.87
956.104	63.83
956.278	80.21
956.451	129.36
956.625	495.95
956.798	833.86
956.972	360.78
957.145	96.6
957.319	338.26
957.492	262.48
957.665	291.15
957.839	102.74
958.012	489.81
958.185	227.67
958.359	196.95
958.532	336.21
958.705	504.14
958.879	504.14
959.052	223.57
959.225	-16.04
959.398	397.65
959.572	358.74
959.745	59.73
959.918	178.51
960.091	325.97
960.264	516.43
960.438	-36.52
960.611	72.02
960.784	581.96
960.957	219.47
961.13	436.56
961.303	18.77
961.476	315.73
961.649	557.39
961.822	63.83
961.995	192.85
962.168	520.53
962.341	391.5
962.514	190.8
962.686	143.7
962.859	459.09
963.032	491.85
963.205	121.17
963.378	12.63
963.551	465.23
963.723	397.65
963.896	229.71
964.069	258.39
964.242	303.44
964.414	659.79
964.587	172.37
964.76	256.34
964.932	414.03
965.105	264.53
965.278	166.23
965.45	29.01
965.623	389.46
965.795	577.87
965.968	184.66
966.14	119.12
966.313	311.63
966.485	368.98
966.658	229.71
966.83	151.89
967.003	700.75
967.175	446.8
967.348	110.93
967.52	82.26
967.692	766.28
967.865	397.65
968.037	139.6
968.209	502.09
968.382	291.15
968.554	545.1
968.726	242
968.898	49.49
969.071	383.31
969.243	555.34
969.415	172.37
969.587	233.81
969.759	858.44
969.932	577.87
970.104	160.08
970.276	-126.63
970.448	289.1
970.62	237.91
970.792	237.91
970.964	194.9
971.136	801.1
971.308	592.2
971.48	20.82
971.652	151.89
971.824	745.8
971.996	201.04
972.168	119.12
972.339	248.15
972.511	555.34
972.683	366.93
972.855	364.88
973.027	108.88
973.199	358.74
973.37	463.18
973.542	274.77
973.714	297.3
973.886	270.67
974.057	651.6
974.229	155.99
974.401	147.8
974.572	246.1
974.744	-32.43
974.915	57.68
975.087	135.51
975.259	639.31
975.43	282.96
975.602	164.18
975.773	53.59
975.945	117.08
976.116	541.01
976.288	53.59
976.459	311.63
976.63	223.57
976.802	385.36
976.973	80.21
977.145	287.06
977.316	753.99
977.487	409.94
977.659	325.97
977.83	237.91
978.001	725.32
978.172	424.27
978.344	121.17
978.515	151.89
978.686	219.47
978.857	635.21
979.028	192.85
979.2	35.16
979.371	608.59
979.542	385.36
979.713	285.01
979.884	-274.09
980.055	127.32
980.226	242
980.397	-11.95
980.568	-1.71
980.739	645.45
980.91	332.11
981.081	201.04
981.252	35.16
981.423	475.47
981.594	586.06
981.765	29.01
981.936	201.04
982.106	366.93
982.277	606.54
982.448	24.92
982.619	254.29
982.79	248.15
982.96	612.68
983.131	299.34
983.302	-28.33
983.472	272.72
983.643	358.74
983.814	342.35
983.984	94.55
984.155	356.69
984.326	600.4
984.496	205.14
984.667	131.41
984.837	207.19
985.008	563.53
985.178	233.81
985.349	186.71
985.519	356.69
985.69	254.29
985.86	213.33
986.031	63.83
986.201	358.74
986.371	438.61
986.542	57.68
986.712	-69.29
986.882	391.5
987.053	438.61
987.223	16.73
987.393	182.61
987.563	143.7
987.734	428.37
987.904	377.17
988.074	78.16
988.244	436.56
988.414	203.09
988.585	-5.8
988.755	190.8
988.925	295.25
989.095	676.17
989.265	74.07
989.435	160.08
989.605	450.89
989.775	530.77
989.945	463.18
990.115	-93.87
990.285	260.43
990.455	344.4
990.625	252.24
990.795	-26.28
990.965	620.88
991.134	78.16
991.304	121.17
991.474	31.06
991.644	446.8
991.814	715.08
991.984	-61.1
992.153	100.69
992.323	336.21
992.493	389.46
992.662	-143.02
992.832	270.67
993.002	418.13
993.171	371.02
993.341	-136.87
993.511	264.53
993.68	223.57
993.85	477.52
994.019	-36.52
994.189	-126.63
994.358	420.17
994.528	219.47
994.697	-255.65
994.867	-44.71
995.036	516.43
995.206	209.23
995.375	-24.23
995.544	211.28
995.714	397.65
995.883	194.9
996.052	172.37
996.222	-116.39
996.391	815.43
996.56	418.13
996.73	-93.87
996.899	-11.95
997.068	717.13
997.237	332.11
997.406	-91.82
997.576	-36.52
997.745	321.87
997.914	319.82
998.083	-143.02
998.252	-18.09
998.421	383.31
998.59	108.88
998.759	-89.77
998.928	-175.78
999.097	532.81
999.266	391.5
999.435	176.47
999.604	-220.84
999.773	733.51
999.942	186.71
1000.111	-149.16
1000.28	-134.82
1000.448	59.73
1000.617	16.73
1000.786	211.28
1000.955	-116.39
1001.124	295.25
1001.292	934.22
1001.461	-32.43
1001.63	-48.81
1001.798	700.75
1001.967	551.24
1002.136	-167.59
1002.304	-190.12
1002.473	295.25
1002.642	258.39
1002.81	43.35
1002.979	-173.74
1003.147	426.32
1003.316	848.2
1003.484	-44.71
1003.653	-48.81
1003.821	561.48
1003.99	205.14
1004.158	57.68
1004.327	49.49
1004.495	463.18
1004.663	82.26
1004.832	98.64
1005	-190.12
1005.168	383.31
1005.337	317.78
1005.505	-145.06
1005.673	137.56
1005.842	383.31
1006.01	426.32
1006.178	-161.45
1006.346	-79.53
1006.514	399.7
1006.683	563.53
1006.851	-85.67
1007.019	-208.55
1007.187	98.64
1007.355	-216.74
1007.523	-249.51
1007.691	-200.36
1007.859	26.96
1008.027	622.92
1008.195	-32.43
1008.363	-269.99
1008.531	444.75
1008.699	102.74
1008.867	-192.17
1009.035	-44.71
1009.203	586.06
1009.37	262.48
1009.538	-42.67
1009.706	362.83
1009.874	330.06
1010.042	198.99
1010.209	-210.6
1010.377	-167.59
1010.545	448.85
1010.713	215.38
1010.88	-214.7
1011.048	-71.34
1011.216	119.12
1011.383	506.19
1011.551	-124.58
1011.718	-200.36
1011.886	510.29
1012.054	223.57
1012.221	-190.12
1012.389	-143.02
1012.556	219.47
1012.724	586.06
1012.891	22.87
1013.058	-259.75
1013.226	385.36
1013.393	403.79
1013.561	-157.35
1013.728	-229.03
1013.895	430.41
1014.063	420.17
1014.23	-186.02
1014.397	-233.13
1014.565	418.13
1014.732	139.6
1014.899	-208.55
1015.066	-212.65
1015.233	244.05
1015.401	407.89
1015.568	-71.34
1015.735	24.92
1015.902	231.76
1016.069	321.87
1016.236	-102.06
1016.403	-183.98
1016.57	61.78
1016.737	510.29
1016.904	16.73
1017.071	-208.55
1017.238	49.49
1017.405	364.88
1017.572	-149.16
1017.739	63.83
1017.906	422.22
1018.073	475.47
1018.24	-261.8
1018.407	-48.81
1018.573	463.18
1018.74	143.7
1018.907	-24.23
1019.074	-321.19
1019.241	553.29
1019.407	201.04
1019.574	-183.98
1019.741	-302.76
1019.907	217.43
1020.074	440.65
1020.241	-251.56
1020.407	-245.41
1020.574	328.02
1020.74	364.88
1020.907	-118.44
1021.073	-272.04
1021.24	774.47
1021.406	528.72
1021.573	-245.41
1021.739	-177.83
1021.906	442.7
1022.072	151.89
1022.239	-192.17
1022.405	-52.91
1022.571	262.48
1022.738	90.45
1022.904	-231.08
1023.07	-61.1
1023.237	268.63
1023.403	457.04
1023.569	-167.59
1023.735	-77.48
1023.902	309.58
1024.068	274.77
1024.234	-206.5
1024.4	-130.73
1024.566	299.34
1024.732	414.03
1024.898	-200.36
1025.065	-313
1025.231	414.03
1025.397	229.71
1025.563	-77.48
1025.729	-253.61
1025.895	-140.97
1026.061	47.44
1026.227	-265.89
1026.392	-69.29
1026.558	463.18
1026.724	323.92
1026.89	-126.63
1027.056	-116.39
1027.222	346.45
1027.388	129.36
1027.553	-140.97
1027.719	-241.32
1027.885	579.92
1028.051	285.01
1028.216	-315.05
1028.382	-130.73
1028.548	434.51
1028.713	172.37
1028.879	-294.57
1029.045	-34.47
1029.21	536.91
1029.376	536.91
1029.541	-114.34
1029.707	-79.53
1029.873	342.35
1030.038	375.12
1030.204	-249.51
1030.369	-110.25
1030.534	364.88
1030.7	127.32
1030.865	-130.73
1031.031	-208.55
1031.196	305.49
1031.361	317.78
1031.527	-188.07
1031.692	-161.45
1031.857	-138.92
1032.023	350.54
1032.188	-177.83
1032.353	-163.5
1032.518	590.16
1032.684	301.39
1032.849	-304.81
1033.014	-177.83
1033.179	389.46
1033.344	336.21
1033.509	-118.44
1033.674	-202.41
1033.839	383.31
1034.004	397.65
1034.17	-151.21
1034.335	-257.7
1034.5	180.56
1034.664	98.64
1034.829	-241.32
1034.994	-132.78
1035.159	250.19
1035.324	293.2
1035.489	-171.69
1035.654	-229.03
1035.819	471.37
1035.984	323.92
1036.148	-65.19
1036.313	-61.1
1036.478	389.46
1036.643	250.19
1036.807	-179.88
1036.972	-214.7
1037.137	389.46
1037.301	205.14
1037.466	-327.33
1037.631	-65.19
1037.795	389.46
1037.96	178.51
1038.124	-13.99
1038.289	-208.55
1038.454	399.7
1038.618	311.63
1038.783	-110.25
1038.947	-89.77
1039.111	235.86
1039.276	92.5
1039.44	-173.74
1039.605	332.11
1039.769	92.5
1039.933	192.85
1040.098	-79.53
1040.262	-36.52
1040.426	409.94
1040.591	375.12
1040.755	-151.21
1040.919	-192.17
1041.083	385.36
1041.248	170.32
1041.412	-274.09
1041.576	-206.5
1041.74	98.64
1041.904	416.08
1042.068	-251.56
1042.232	-63.15
1042.397	467.28
1042.561	301.39
1042.725	-319.14
1042.889	45.4
1043.053	340.3
1043.217	344.4
1043.381	-7.85
1043.544	-224.94
1043.708	479.57
1043.872	-28.33
1044.036	-388.77
1044.2	-339.62
1044.364	479.57
1044.528	565.58
1044.691	4720.91
1044.855	-237.22
1045.019	467.28
1045.183	403.79
1045.346	-126.63
1045.51	-274.09
1045.674	334.16
1045.837	309.58
1046.001	-100.01
1046.165	-233.13
1046.328	667.98
1046.492	364.88
1046.655	12.63
1046.819	-140.97
1046.983	45.4
1047.146	303.44
1047.31	-42.67
1047.473	-315.05
1047.636	196.95
1047.8	86.36
1047.963	-167.59
1048.127	-175.78
1048.29	45.4
