Data from Ink_Intensity_USB4F045381__193__00193.txt Node

Date: Mon Jul 17 11:45:51 EDT 2023
User: mmckonesweet
Spectrometer: USB4F04538
Trigger mode: 4
Integration Time (sec): 9.000000E-1
Scans to average: 1
Electric dark correction enabled: true
Nonlinearity correction enabled: false
Boxcar width: 0
XAxis mode: Wavelengths
Number of Pixels in Spectrum: 3648
>>>>>Begin Spectral Data<<<<<
345.52	-1071.94
345.736	-1071.94
345.952	-1071.94
346.168	-1006.41
346.384	-1035.08
346.6	-111.44
346.816	-320.34
347.032	-164.69
347.248	316.58
347.464	-242.51
347.68	-129.88
347.896	130.22
348.112	373.92
348.328	-58.2
348.544	-105.3
348.76	38.06
348.975	273.57
349.191	-269.14
349.407	-199.51
349.623	68.78
349.839	-64.34
350.055	-144.21
350.27	19.63
350.486	197.8
350.702	328.87
350.918	167.08
351.133	-224.08
351.349	72.87
351.565	404.64
351.781	-230.23
351.996	-39.76
352.212	263.33
352.428	-160.59
352.644	-258.9
352.859	-299.86
353.075	277.67
353.291	148.65
353.506	-193.36
353.722	-209.75
353.938	-101.2
354.153	437.41
354.369	130.22
354.584	-179.03
354.8	236.71
355.016	-301.9
355.231	-256.85
355.447	-156.5
355.662	66.73
355.878	801.95
356.093	-365.39
356.309	-37.72
356.524	-213.84
356.74	205.99
356.955	-262.99
357.171	-62.29
357.386	144.55
357.602	-301.9
357.817	-56.15
358.033	-179.03
358.248	298.15
358.464	218.28
358.679	-222.03
358.895	-322.38
359.11	1.19
359.325	371.88
359.541	58.54
359.756	-17.24
359.972	-338.77
360.187	160.94
360.402	-160.59
360.618	-164.69
360.833	1002.65
361.048	124.07
361.264	-265.04
361.479	-125.78
361.694	-43.86
361.909	289.96
362.125	-207.7
362.34	-195.41
362.555	210.09
362.77	42.15
362.986	-285.52
363.201	-113.49
363.416	185.51
363.631	1.19
363.847	-207.7
364.062	-215.89
364.277	234.66
364.492	103.59
364.707	-119.64
364.922	-445.26
365.138	226.47
365.353	298.15
365.568	-191.31
365.783	-185.17
365.998	1.19
366.213	490.66
366.428	-283.47
366.643	-56.15
366.858	191.66
367.073	177.32
367.288	-80.72
367.503	-330.58
367.718	97.45
367.933	263.33
368.148	-340.82
368.363	-123.73
368.578	11.43
368.793	394.4
369.008	-183.12
369.223	-326.48
369.438	154.79
369.653	361.64
369.868	-293.71
370.083	-336.72
370.298	-7
370.513	457.89
370.728	3.24
370.943	-211.79
371.157	-222.03
371.372	478.37
371.587	-265.04
371.802	-222.03
372.017	81.07
372.232	441.51
372.446	17.58
372.661	-310.1
372.876	138.41
373.091	154.79
373.306	-123.73
373.52	-285.52
373.735	-181.07
373.95	369.83
374.165	-127.83
374.379	-189.27
374.594	-217.94
374.809	42.15
375.023	52.39
375.238	-291.66
375.453	279.72
375.667	-275.28
375.882	-211.79
376.097	-256.85
376.311	-93.01
376.526	-56.15
376.741	-238.42
376.955	42.15
377.17	597.15
377.384	570.53
377.599	-162.64
377.813	-340.82
378.028	564.39
378.242	220.33
378.457	-131.92
378.672	-355.15
378.886	111.78
379.101	-27.48
379.315	-312.14
379.53	-203.6
379.744	193.7
379.958	156.84
380.173	-115.54
380.387	-277.33
380.602	97.45
380.816	-181.07
381.031	-111.44
381.245	-172.88
381.459	136.36
381.674	2622.59
381.888	-262.99
382.103	158.89
382.317	-195.41
382.531	459.94
382.746	-189.27
382.96	-199.51
383.174	-123.73
383.388	447.65
383.603	-2.9
383.817	-314.19
384.031	189.61
384.246	396.45
384.46	-31.57
384.674	273.57
384.888	17.58
385.103	-17.24
385.317	-273.23
385.531	-113.49
385.745	287.91
385.959	265.38
386.174	-277.33
386.388	-287.57
386.602	-11.09
386.816	-162.64
387.03	-109.4
387.244	-78.68
387.458	54.44
387.672	349.35
387.887	-267.09
388.101	-402.26
388.315	382.12
388.529	208.04
388.743	-222.03
388.957	-269.14
389.171	357.54
389.385	-199.51
389.599	-185.17
389.813	64.68
390.027	152.74
390.241	543.91
390.455	-148.31
390.669	-138.07
390.883	-101.2
391.097	335.01
391.311	50.35
391.525	-211.79
391.738	236.71
391.952	111.78
392.166	21.67
392.38	-215.89
392.594	226.47
392.808	365.73
393.022	-127.83
393.236	-191.31
393.449	177.32
393.663	124.07
393.877	-314.19
394.091	-152.4
394.305	-19.29
394.518	-41.81
394.732	-351.06
394.946	-160.59
395.16	455.84
395.373	144.55
395.587	-242.51
395.801	-232.27
396.015	214.18
396.228	185.51
396.442	-289.62
396.656	-355.15
396.869	378.02
397.083	400.55
397.297	-142.16
397.51	-271.19
397.724	369.83
397.938	70.83
398.151	-355.15
398.365	-279.38
398.578	130.22
398.792	375.97
399.005	-11.09
399.219	-222.03
399.433	136.36
399.646	140.46
399.86	-33.62
400.073	70.83
400.287	187.56
400.5	-19.29
400.714	-60.24
400.927	-101.2
401.141	130.22
401.354	976.03
401.567	201.9
401.781	-324.43
401.994	267.43
402.208	488.61
402.421	-109.4
402.635	-123.73
402.848	15.53
403.061	251.05
403.275	-76.63
403.488	-224.08
403.701	500.9
403.915	236.71
404.128	-2.9
404.341	-191.31
404.555	187.56
404.768	15.53
404.981	-39.76
405.195	-181.07
405.408	433.32
405.621	222.38
405.834	-41.81
406.048	-228.18
406.261	285.86
406.474	443.56
406.687	-277.33
406.9	-39.76
407.114	111.78
407.327	210.09
407.54	-318.29
407.753	-389.97
407.966	-154.45
408.179	144.55
408.392	-189.27
408.605	-344.91
408.819	167.08
409.032	101.55
409.245	-215.89
409.458	-21.33
409.671	115.88
409.884	244.9
410.097	-295.76
410.31	-43.86
410.523	152.74
410.736	-17.24
410.949	-172.88
411.162	-164.69
411.375	445.6
411.588	300.2
411.801	-9.05
412.014	-254.8
412.227	-4.95
412.44	-125.78
412.653	-205.65
412.865	-23.38
413.078	230.57
413.291	189.61
413.504	-95.06
413.717	-248.66
413.93	158.89
414.143	-205.65
414.356	-148.31
414.568	-402.26
414.781	257.19
414.994	111.78
415.207	-64.34
415.42	-154.45
415.632	259.24
415.845	490.66
416.058	-303.95
416.271	-285.52
416.483	11.43
416.696	421.03
416.909	-181.07
417.121	-189.27
417.334	165.03
417.547	468.13
417.759	-187.22
417.972	-254.8
418.185	-164.69
418.397	189.61
418.61	-213.84
418.823	-215.89
419.035	343.21
419.248	23.72
419.46	-97.11
419.673	-117.59
419.885	144.55
420.098	-4.95
420.311	-195.41
420.523	-471.89
420.736	140.46
420.948	76.97
421.161	-170.83
421.373	-279.38
421.586	62.63
421.798	-154.45
422.01	-359.25
422.223	-150.36
422.435	-103.25
422.648	134.31
422.86	-183.12
423.073	-262.99
423.285	283.81
423.497	-318.29
423.71	-232.27
423.922	-201.55
424.134	177.32
424.347	302.25
424.559	-19.29
424.771	148.65
424.984	-58.2
425.196	87.21
425.408	-359.25
425.621	-240.47
425.833	345.25
426.045	300.2
426.257	-318.29
426.47	-219.99
426.682	87.21
426.894	76.97
427.106	-246.61
427.318	-211.79
427.531	-129.88
427.743	228.52
427.955	-299.86
428.167	259.24
428.379	111.78
428.591	-0.85
428.804	-82.77
429.016	-271.19
429.228	-15.19
429.44	187.56
429.652	13.48
429.864	-412.5
430.076	-43.86
430.288	23.72
430.5	-158.55
430.712	-166.74
430.924	185.51
431.136	38.06
431.348	-320.34
431.56	-222.03
431.772	-39.76
431.984	-50
432.196	-303.95
432.408	-179.03
432.62	-27.48
432.832	144.55
433.044	91.31
433.256	-121.68
433.468	95.4
433.679	-369.49
433.891	-297.81
434.103	31.91
434.315	359.59
434.527	115.88
434.739	-158.55
434.95	-176.98
435.162	201.9
435.374	-156.5
435.586	-205.65
435.798	-205.65
436.009	-211.79
436.221	17.58
436.433	-213.84
436.645	-158.55
436.856	-68.44
437.068	302.25
437.28	-246.61
437.491	109.74
437.703	48.3
437.915	124.07
438.126	-187.22
438.338	15.53
438.55	3.24
438.761	111.78
438.973	-250.71
439.184	-181.07
439.396	54.44
439.608	210.09
439.819	-340.82
440.031	-80.72
440.242	140.46
440.454	119.98
440.665	-224.08
440.877	-62.29
441.088	140.46
441.3	-80.72
441.511	-410.45
441.723	-217.94
441.934	79.02
442.146	-39.76
442.357	-19.29
442.569	87.21
442.78	46.25
442.991	345.25
443.203	93.35
443.414	-293.71
443.626	378.02
443.837	-197.46
444.048	-252.75
444.26	-318.29
444.471	46.25
444.682	253.09
444.894	-414.54
445.105	-437.07
445.316	201.9
445.528	89.26
445.739	-133.97
445.95	-131.92
446.161	-7
446.373	267.43
446.584	-148.31
446.795	-224.08
447.006	146.6
447.217	341.16
447.429	-293.71
447.64	-346.96
447.851	263.33
448.062	25.77
448.273	-420.69
448.484	-326.48
448.695	91.31
448.907	-64.34
449.118	-133.97
449.329	-21.33
449.54	-109.4
449.751	-252.75
449.962	-228.18
450.173	-211.79
450.384	275.62
450.595	283.81
450.806	-201.55
451.017	-158.55
451.228	361.64
451.439	271.53
451.65	-166.74
451.861	-471.89
452.072	-183.12
452.283	-52.05
452.494	13.48
452.705	-361.3
452.915	373.92
453.126	144.55
453.337	-138.07
453.548	-334.67
453.759	312.49
453.97	550.05
454.181	-21.33
454.391	-183.12
454.602	91.31
454.813	111.78
455.024	-176.98
455.235	-199.51
455.445	119.98
455.656	103.59
455.867	-68.44
456.078	-289.62
456.288	-123.73
456.499	160.94
456.71	-320.34
456.921	1.19
457.131	38.06
457.342	25.77
457.553	-174.93
457.763	-236.37
457.974	138.41
458.184	226.47
458.395	-328.53
458.606	-377.68
458.816	332.97
459.027	425.12
459.237	-115.54
459.448	-389.97
459.659	328.87
459.869	574.63
460.08	-346.96
460.29	-95.06
460.501	478.37
460.711	-47.96
460.922	-385.87
461.132	-312.14
461.343	804
461.553	-281.43
461.764	-310.1
461.974	-262.99
462.184	201.9
462.395	122.02
462.605	-183.12
462.816	-306
463.026	25.77
463.236	365.73
463.447	-295.76
463.657	-244.56
463.867	177.32
464.078	-31.57
464.288	-256.85
464.498	-254.8
464.709	-0.85
464.919	-146.26
465.129	-219.99
465.339	-306
465.55	107.69
465.76	255.14
465.97	-215.89
466.18	-228.18
466.391	289.96
466.601	175.27
466.811	-230.23
467.021	-355.15
467.231	136.36
467.441	363.69
467.651	-179.03
467.862	-572.24
468.072	-58.2
468.282	310.44
468.492	-238.42
468.702	-101.2
468.912	-23.38
469.122	537.76
469.332	-2.9
469.542	-217.94
469.752	156.84
469.962	72.87
470.172	-213.84
470.382	-355.15
470.592	193.7
470.802	201.9
471.012	-136.02
471.222	-250.71
471.432	285.86
471.642	203.94
471.852	-127.83
472.062	-308.05
472.272	-50
472.482	-252.75
472.691	-389.97
472.901	-387.92
473.111	7.34
473.321	545.95
473.531	-332.62
473.741	-170.83
473.95	91.31
474.16	177.32
474.37	-166.74
474.58	-381.78
474.79	574.63
474.999	177.32
475.209	-281.43
475.419	-207.7
475.628	-11.09
475.838	232.62
476.048	-121.68
476.258	-432.97
476.467	226.47
476.677	-123.73
476.886	-93.01
477.096	-219.99
477.306	-201.55
477.515	314.53
477.725	-244.56
477.935	-70.48
478.144	357.54
478.354	-99.16
478.563	-277.33
478.773	-295.76
478.982	265.38
479.192	308.39
479.401	-150.36
479.611	-424.78
479.82	-136.02
480.03	54.44
480.239	-349.01
480.449	-342.86
480.658	451.75
480.868	-150.36
481.077	-176.98
481.287	-199.51
481.496	152.74
481.705	392.36
481.915	70.83
482.124	13.48
482.333	101.55
482.543	353.45
482.752	-148.31
482.961	-334.67
483.171	132.26
483.38	-66.39
483.589	-113.49
483.799	-265.04
484.008	-31.57
484.217	257.19
484.426	-189.27
484.636	-420.69
484.845	140.46
485.054	-342.86
485.263	21.67
485.472	-224.08
485.682	355.49
485.891	21.67
486.1	-441.17
486.309	-262.99
486.518	117.93
486.727	355.49
486.936	-371.54
487.146	-129.88
487.355	355.49
487.564	-129.88
487.773	-213.84
487.982	-281.43
488.191	-93.01
488.4	58.54
488.609	-316.24
488.818	-172.88
489.027	500.9
489.236	257.19
489.445	-238.42
489.654	-285.52
489.863	189.61
490.072	33.96
490.281	111.78
490.49	-156.5
490.698	441.51
490.907	455.84
491.116	-222.03
491.325	-340.82
491.534	423.08
491.743	154.79
491.952	-164.69
492.16	-252.75
492.369	177.32
492.578	251.05
492.787	-207.7
492.996	-320.34
493.204	-203.6
493.413	447.65
493.622	-482.13
493.831	-383.82
494.039	347.3
494.248	-273.23
494.457	-283.47
494.665	-418.64
494.874	87.21
495.083	515.23
495.291	-170.83
495.5	-314.19
495.709	212.14
495.917	79.02
496.126	-238.42
496.335	-295.76
496.543	-54.1
496.752	62.63
496.96	-66.39
497.169	-424.78
497.377	-21.33
497.586	257.19
497.794	-115.54
498.003	-334.67
498.211	-11.09
498.42	394.4
498.628	-168.79
498.837	-385.87
499.045	183.46
499.254	169.13
499.462	-285.52
499.671	-244.56
499.879	400.55
500.087	269.48
500.296	-312.14
500.504	-215.89
500.713	79.02
500.921	533.67
501.129	-209.75
501.338	-256.85
501.546	31.91
501.754	29.87
501.962	-260.95
502.171	-410.45
502.379	70.83
502.587	447.65
502.795	-189.27
503.004	-301.9
503.212	13.48
503.42	238.76
503.628	-240.47
503.837	-236.37
504.045	173.22
504.253	369.83
504.461	-371.54
504.669	-392.02
504.877	119.98
505.085	359.59
505.294	-420.69
505.502	-68.44
505.71	62.63
505.918	242.85
506.126	-318.29
506.334	-250.71
506.542	-47.96
506.75	138.41
506.958	-197.46
507.166	-301.9
507.374	-72.53
507.582	494.76
507.79	-133.97
507.998	-285.52
508.206	64.68
508.414	162.98
508.622	-318.29
508.83	-211.79
509.037	509.09
509.245	-31.57
509.453	-277.33
509.661	-355.15
509.869	56.49
510.077	-0.85
510.285	-68.44
510.492	-555.85
510.7	603.3
510.908	-115.54
511.116	-205.65
511.324	-346.96
511.531	-25.43
511.739	58.54
511.947	-72.53
512.155	36.01
512.362	150.7
512.57	-213.84
512.778	-322.38
512.985	-430.93
513.193	251.05
513.401	332.97
513.608	-265.04
513.816	-224.08
514.024	185.51
514.231	361.64
514.439	-262.99
514.646	-277.33
514.854	175.27
515.061	281.77
515.269	-281.43
515.477	-277.33
515.684	-205.65
515.892	195.75
516.099	-451.41
516.307	-377.68
516.514	191.66
516.722	418.98
516.929	-228.18
517.136	-392.02
517.344	388.26
517.551	179.37
517.759	-324.43
517.966	-156.5
518.173	-50
518.381	-2.9
518.588	-138.07
518.796	-385.87
519.003	210.09
519.21	-27.48
519.418	-330.58
519.625	46.25
519.832	-13.14
520.039	128.17
520.247	-449.36
520.454	-191.31
520.661	224.42
520.868	107.69
521.076	-301.9
521.283	-162.64
521.49	666.78
521.697	140.46
521.904	-193.36
522.112	-199.51
522.319	146.6
522.526	122.02
522.733	-363.34
522.94	-387.92
523.147	-54.1
523.354	238.76
523.561	-443.21
523.768	-238.42
523.975	246.95
524.183	44.2
524.39	-228.18
524.597	-359.25
524.804	-0.85
525.011	-187.22
525.218	-357.2
525.425	-303.95
525.632	410.79
525.838	-125.78
526.045	-185.17
526.252	-281.43
526.459	1127.58
526.666	969.88
526.873	-306
527.08	-285.52
527.287	316.58
527.494	292.01
527.701	-392.02
527.907	-412.5
528.114	95.4
528.321	1.19
528.528	-209.75
528.735	-359.25
528.941	-33.62
529.148	-138.07
529.355	-166.74
529.562	-316.24
529.768	459.94
529.975	-107.35
530.182	-199.51
530.388	-295.76
530.595	312.49
530.802	-285.52
531.008	-158.55
531.215	-338.77
531.422	433.32
531.628	693.41
531.835	-136.02
532.042	-140.12
532.248	-152.4
532.455	9.39
532.661	-203.6
532.868	-326.48
533.074	25.77
533.281	277.67
533.487	-226.13
533.694	-379.73
533.9	-224.08
534.107	109.74
534.313	-322.38
534.52	-367.44
534.726	152.74
534.933	490.66
535.139	-355.15
535.345	-349.01
535.552	134.31
535.758	-47.96
535.965	-299.86
536.171	-236.37
536.377	152.74
536.584	382.12
536.79	-332.62
536.996	-203.6
537.203	-15.19
537.409	128.17
537.615	-258.9
537.821	-84.82
538.028	244.9
538.234	144.55
538.44	-277.33
538.646	-213.84
538.853	160.94
539.059	-15.19
539.265	42.15
539.471	-570.19
539.677	253.09
539.883	-54.1
540.09	-314.19
540.296	138.41
540.502	-2.9
540.708	-154.45
540.914	-52.05
541.12	-244.56
541.326	136.36
541.532	-35.67
541.738	-211.79
541.944	-222.03
542.15	208.04
542.356	5.29
542.562	-467.79
542.768	-244.56
542.974	586.91
543.18	455.84
543.386	-324.43
543.592	-396.11
543.798	320.68
544.004	320.68
544.21	-332.62
544.415	-179.03
544.621	11.43
544.827	292.01
545.033	-369.49
545.239	-41.81
545.445	-179.03
545.651	9.39
545.856	-353.1
546.062	-355.15
546.268	-170.83
546.474	15.53
546.679	-215.89
546.885	-193.36
547.091	-82.77
547.297	482.47
547.502	-150.36
547.708	-437.07
547.914	-119.64
548.119	234.66
548.325	-420.69
548.531	-424.78
548.736	345.25
548.942	-197.46
549.147	-252.75
549.353	-58.2
549.559	289.96
549.764	72.87
549.97	-289.62
550.175	-299.86
550.381	208.04
550.586	-80.72
550.792	-240.47
550.997	-236.37
551.203	244.9
551.408	81.07
551.614	-375.63
551.819	-338.77
552.025	388.26
552.23	431.27
552.435	-400.21
552.641	-54.1
552.846	-174.93
553.052	345.25
553.257	-93.01
553.462	-273.23
553.668	-117.59
553.873	314.53
554.078	-289.62
554.283	-379.73
554.489	-35.67
554.694	-43.86
554.899	-324.43
555.105	-109.4
555.31	95.4
555.515	138.41
555.72	-129.88
555.925	-394.06
556.131	162.98
556.336	-156.5
556.541	-375.63
556.746	-377.68
556.951	330.92
557.156	447.65
557.361	-195.41
557.567	-154.45
557.772	492.71
557.977	316.58
558.182	-320.34
558.387	-279.38
558.592	-146.26
558.797	367.78
559.002	-201.55
559.207	-62.29
559.412	68.78
559.617	517.28
559.822	-338.77
560.027	-369.49
560.232	79.02
560.437	189.61
560.642	-389.97
560.847	-351.06
561.051	70.83
561.256	46.25
561.461	-201.55
561.666	-349.01
561.871	21.67
562.076	189.61
562.281	-260.95
562.485	-377.68
562.69	222.38
562.895	195.75
563.1	-277.33
563.305	-338.77
563.509	388.26
563.714	554.15
563.919	-297.81
564.123	-275.28
564.328	23.72
564.533	242.85
564.737	-162.64
564.942	-322.38
565.147	394.4
565.351	537.76
565.556	-226.13
565.761	-215.89
565.965	99.5
566.17	-156.5
566.374	-273.23
566.579	-424.78
566.784	128.17
566.988	-113.49
567.193	-396.11
567.397	-353.1
567.602	-277.33
567.806	-62.29
568.011	-351.06
568.215	-289.62
568.42	-60.24
568.624	-64.34
568.828	-328.53
569.033	-140.12
569.237	191.66
569.442	210.09
569.646	-480.08
569.85	-219.99
570.055	-80.72
570.259	1.19
570.463	1.19
570.668	-267.09
570.872	-60.24
571.076	7.34
571.281	-80.72
571.485	-224.08
571.689	38.06
571.893	251.05
572.098	-187.22
572.302	-230.23
572.506	160.94
572.71	-27.48
572.914	-289.62
573.119	-289.62
573.323	435.36
573.527	343.21
573.731	-310.1
573.935	-353.1
574.139	83.11
574.343	-119.64
574.547	-242.51
574.751	-211.79
574.955	289.96
575.159	326.82
575.364	-301.9
575.568	-381.78
575.772	11.43
575.976	251.05
576.18	-297.81
576.383	-461.65
576.587	306.34
576.791	95.4
576.995	-492.37
577.199	-486.22
577.403	263.33
577.607	267.43
577.811	-320.34
578.015	-199.51
578.219	117.93
578.422	205.99
578.626	-185.17
578.83	-140.12
579.034	255.14
579.238	-43.86
579.442	-365.39
579.645	85.16
579.849	-21.33
580.053	95.4
580.257	-187.22
580.46	-205.65
580.664	339.11
580.868	173.22
581.071	-39.76
581.275	-150.36
581.479	-336.72
581.682	160.94
581.886	-306
582.09	-183.12
582.293	128.17
582.497	195.75
582.7	-121.68
582.904	-379.73
583.107	103.59
583.311	-68.44
583.515	-240.47
583.718	-133.97
583.922	70.83
584.125	472.23
584.329	-334.67
584.532	-181.07
584.735	302.25
584.939	113.83
585.142	-461.65
585.346	-394.06
585.549	-37.72
585.753	-123.73
585.956	-199.51
586.159	-133.97
586.363	423.08
586.566	81.07
586.769	-412.5
586.973	-387.92
587.176	140.46
587.379	236.71
587.582	-0.85
587.786	-35.67
587.989	89.26
588.192	597.15
588.395	-230.23
588.599	66.73
588.802	119.98
589.005	287.91
589.208	-306
589.411	-203.6
589.615	312.49
589.818	318.63
590.021	21.67
590.224	-170.83
590.427	330.92
590.63	128.17
590.833	-365.39
591.036	-318.29
591.239	-60.24
591.442	-111.44
591.645	-148.31
591.848	-281.43
592.051	132.26
592.254	152.74
592.457	-262.99
592.66	-191.31
592.863	-45.91
593.066	99.5
593.269	-334.67
593.472	-156.5
593.675	-222.03
593.878	249
594.081	-117.59
594.284	-262.99
594.486	165.03
594.689	7.34
594.892	-160.59
595.095	-164.69
595.298	136.36
595.5	-68.44
595.703	-93.01
595.906	-90.96
596.109	416.93
596.311	244.9
596.514	-461.65
596.717	-240.47
596.92	292.01
597.122	142.5
597.325	-435.02
597.528	-291.66
597.73	359.59
597.933	15.53
598.136	-306
598.338	-486.22
598.541	148.65
598.743	294.05
598.946	-224.08
599.148	-244.56
599.351	324.77
599.554	236.71
599.756	-127.83
599.959	-205.65
600.161	363.69
600.363	568.48
600.566	-80.72
600.768	-224.08
600.971	496.8
601.173	185.51
601.376	-265.04
601.578	-226.13
601.78	70.83
601.983	539.81
602.185	-250.71
602.388	-95.06
602.59	119.98
602.792	-174.93
602.995	-31.57
603.197	-215.89
603.399	283.81
603.601	111.78
603.804	-189.27
604.006	-265.04
604.208	40.11
604.41	-398.16
604.613	-144.21
604.815	-306
605.017	578.72
605.219	-166.74
605.421	189.61
605.623	-324.43
605.826	363.69
606.028	476.32
606.23	-248.66
606.432	-203.6
606.634	380.07
606.836	365.73
607.038	-394.06
607.24	-99.16
607.442	70.83
607.644	46.25
607.846	-56.15
608.048	-404.3
608.25	398.5
608.452	-82.77
608.654	-189.27
608.856	-420.69
609.058	-2.9
609.26	185.51
609.462	-39.76
609.664	-222.03
609.866	433.32
610.067	328.87
610.269	-105.3
610.471	-222.03
610.673	-43.86
610.875	187.56
611.077	-406.35
611.278	-111.44
611.48	-7
611.682	443.56
611.884	-117.59
612.085	-93.01
612.287	-195.41
612.489	128.17
612.69	-396.11
612.892	-203.6
613.094	244.9
613.295	208.04
613.497	-351.06
613.699	-211.79
613.9	347.3
614.102	255.14
614.304	-172.88
614.505	-312.14
614.707	97.45
614.908	21.67
615.11	-379.73
615.311	-121.68
615.513	226.47
615.714	173.22
615.916	-338.77
616.117	-172.88
616.319	165.03
616.52	191.66
616.722	-215.89
616.923	-248.66
617.124	332.97
617.326	181.42
617.527	-45.91
617.729	-50
617.93	240.81
618.131	267.43
618.333	-187.22
618.534	-273.23
618.735	-123.73
618.937	425.12
619.138	-328.53
619.339	-273.23
619.54	179.37
619.742	58.54
619.943	-72.53
620.144	-201.55
620.345	244.9
620.546	310.44
620.748	-285.52
620.949	-172.88
621.15	136.36
621.351	128.17
621.552	-238.42
621.753	-410.45
621.954	-246.61
622.155	558.24
622.356	-371.54
622.558	-56.15
622.759	-21.33
622.96	574.63
623.161	-209.75
623.362	-107.35
623.563	25.77
623.764	95.4
623.965	-219.99
624.166	-0.85
624.366	-56.15
624.567	181.42
624.768	-490.32
624.969	-213.84
625.17	-31.57
625.371	189.61
625.572	-78.68
625.773	-246.61
625.973	263.33
626.174	328.87
626.375	-197.46
626.576	-60.24
626.777	175.27
626.977	634.02
627.178	-240.47
627.379	-133.97
627.58	-27.48
627.78	115.88
627.981	-166.74
628.182	-62.29
628.382	367.78
628.583	-187.22
628.784	-260.95
628.984	-125.78
629.185	230.57
629.386	357.54
629.586	-64.34
629.787	-279.38
629.987	289.96
630.188	46.25
630.388	-111.44
630.589	-150.36
630.79	599.2
630.99	56.49
631.191	-72.53
631.391	-123.73
631.591	253.09
631.792	378.02
631.992	-117.59
632.193	-107.35
632.393	400.55
632.594	119.98
632.794	-203.6
632.994	-103.25
633.195	105.64
633.395	87.21
633.595	-262.99
633.796	66.73
633.996	-52.05
634.196	349.35
634.397	-353.1
634.597	-107.35
634.797	-119.64
634.997	398.5
635.198	66.73
635.398	-224.08
635.598	83.11
635.798	378.02
635.998	189.61
636.199	-201.55
636.399	-33.62
636.599	-148.31
636.799	-217.94
636.999	31.91
637.199	165.03
637.399	300.2
637.599	-183.12
637.799	-90.96
637.999	-86.87
638.199	457.89
638.399	-299.86
638.599	-219.99
638.799	236.71
638.999	521.38
639.199	-97.11
639.399	-21.33
639.599	461.99
639.799	-101.2
639.999	-279.38
640.199	-273.23
640.399	115.88
640.599	148.65
640.799	-97.11
640.998	42.15
641.198	322.73
641.398	140.46
641.598	-125.78
641.798	-125.78
641.997	976.03
642.197	124.07
642.397	-74.58
642.597	-215.89
642.796	236.71
642.996	427.17
643.196	13.48
643.395	-285.52
643.595	214.18
643.795	-338.77
643.994	-187.22
644.194	-123.73
644.394	201.9
644.593	79.02
644.793	-349.01
644.992	-56.15
645.192	283.81
645.392	-336.72
645.591	-50
645.791	-142.16
645.99	292.01
646.19	54.44
646.389	-113.49
646.589	-27.48
646.788	259.24
646.987	232.62
647.187	214.18
647.386	31.91
647.586	107.69
647.785	287.91
647.984	-138.07
648.184	-109.4
648.383	70.83
648.582	1.19
648.782	-183.12
648.981	-95.06
649.18	-166.74
649.38	134.31
649.579	-246.61
649.778	-185.17
649.977	218.28
650.177	218.28
650.376	-236.37
650.575	-265.04
650.774	449.7
650.973	-84.82
651.173	-269.14
651.372	-33.62
651.571	173.22
651.77	365.73
651.969	-181.07
652.168	-152.4
652.367	-88.92
652.566	107.69
652.765	-140.12
652.964	216.23
653.163	584.87
653.362	46.25
653.561	-107.35
653.76	-133.97
653.959	21.67
654.158	271.53
654.357	83.11
654.556	-152.4
654.755	214.18
654.954	345.25
655.153	-103.25
655.352	-43.86
655.551	367.78
655.749	-23.38
655.948	38.06
656.147	-68.44
656.346	148.65
656.545	169.13
656.743	-19.29
656.942	-117.59
657.141	173.22
657.34	9.39
657.538	-31.57
657.737	-76.63
657.936	29.87
658.135	173.22
658.333	-187.22
658.532	-23.38
658.731	570.53
658.929	398.5
659.128	148.65
659.326	-219.99
659.525	349.35
659.724	62.63
659.922	-353.1
660.121	-236.37
660.319	212.14
660.518	-52.05
660.716	-219.99
660.915	-148.31
661.113	498.85
661.312	-117.59
661.51	-19.29
661.709	-224.08
661.907	353.45
662.105	509.09
662.304	-76.63
662.502	-74.58
662.701	445.6
662.899	83.11
663.097	226.47
663.296	-371.54
663.494	382.12
663.692	480.42
663.891	-226.13
664.089	-156.5
664.287	210.09
664.485	398.5
664.684	-265.04
664.882	-25.43
665.08	156.84
665.278	210.09
665.476	-228.18
665.675	126.12
665.873	623.78
666.071	359.59
666.269	-97.11
666.467	136.36
666.665	228.52
666.863	36.01
667.061	103.59
667.259	-109.4
667.457	95.4
667.655	296.1
667.853	-240.47
668.051	31.91
668.249	-121.68
668.447	218.28
668.645	-234.32
668.843	58.54
669.041	335.01
669.239	-9.05
669.437	-2.9
669.635	-27.48
669.833	68.78
670.031	318.63
670.229	29.87
670.426	-60.24
670.624	40.11
670.822	-76.63
671.02	-125.78
671.218	-27.48
671.415	-99.16
671.613	156.84
671.811	-4.95
672.009	-148.31
672.206	378.02
672.404	136.36
672.602	95.4
672.799	-39.76
672.997	224.42
673.195	423.08
673.392	58.54
673.59	-156.5
673.788	345.25
673.985	-287.57
674.183	-99.16
674.38	-72.53
674.578	355.49
674.775	-66.39
674.973	-203.6
675.17	-244.56
675.368	486.56
675.565	263.33
675.763	-197.46
675.96	-148.31
676.158	431.27
676.355	91.31
676.553	-140.12
676.75	-80.72
676.947	140.46
677.145	136.36
677.342	54.44
677.539	89.26
677.737	230.57
677.934	662.69
678.131	99.5
678.329	-99.16
678.526	611.49
678.723	330.92
678.92	-7
679.118	-21.33
679.315	-115.54
679.512	570.53
679.709	-76.63
679.906	76.97
680.104	464.04
680.301	144.55
680.498	-262.99
680.695	-228.18
680.892	-47.96
681.089	19.63
681.286	-15.19
681.483	-203.6
681.68	302.25
681.877	449.7
682.075	-58.2
682.272	160.94
682.469	300.2
682.665	179.37
682.862	-240.47
683.059	-273.23
683.256	216.23
683.453	173.22
683.65	50.35
683.847	-84.82
684.044	177.32
684.241	38.06
684.438	3.24
684.635	-131.92
684.831	574.63
685.028	586.91
685.225	-117.59
685.422	119.98
685.619	21.67
685.815	203.94
686.012	13.48
686.209	122.02
686.405	-76.63
686.602	359.59
686.799	-82.77
686.996	-154.45
687.192	-50
687.389	685.22
687.586	-93.01
687.782	-23.38
687.979	435.36
688.175	511.14
688.372	60.59
688.568	-60.24
688.765	40.11
688.962	513.19
689.158	3.24
689.355	-213.84
689.551	365.73
689.748	46.25
689.944	13.48
690.14	-138.07
690.337	375.97
690.533	85.16
690.73	175.27
690.926	-19.29
691.123	242.85
691.319	195.75
691.515	-158.55
691.712	66.73
691.908	347.3
692.104	316.58
692.301	52.39
692.497	-181.07
692.693	357.54
692.889	378.02
693.086	62.63
693.282	-209.75
693.478	169.13
693.674	629.92
693.87	68.78
694.067	-41.81
694.263	144.55
694.459	119.98
694.655	99.5
694.851	-0.85
695.047	296.1
695.243	373.92
695.439	62.63
695.635	-54.1
695.831	369.83
696.027	275.62
696.224	-4.95
696.42	324.77
696.615	595.11
696.811	240.81
697.007	-154.45
697.203	-11.09
697.399	273.57
697.595	550.05
697.791	-82.77
697.987	103.59
698.183	-7
698.379	42.15
698.575	-17.24
698.77	-45.91
698.966	390.31
699.162	423.08
699.358	44.2
699.554	-2.9
699.749	451.75
699.945	373.92
700.141	195.75
700.337	126.12
700.532	222.38
700.728	-7
700.924	-146.26
701.119	-150.36
701.315	349.35
701.511	111.78
701.706	87.21
701.902	-121.68
702.097	214.18
702.293	302.25
702.489	126.12
702.684	-58.2
702.88	218.28
703.075	117.93
703.271	40.11
703.466	-13.14
703.662	246.95
703.857	345.25
704.053	-105.3
704.248	-66.39
704.443	224.42
704.639	447.65
704.834	54.44
705.03	-62.29
705.225	498.85
705.42	504.99
705.616	201.9
705.811	27.82
706.006	138.41
706.202	171.18
706.397	138.41
706.592	-140.12
706.787	308.39
706.983	228.52
707.178	220.33
707.373	128.17
707.568	435.36
707.763	545.95
707.959	-68.44
708.154	-9.05
708.349	240.81
708.544	316.58
708.739	234.66
708.934	5.29
709.129	392.36
709.324	414.88
709.519	-47.96
709.714	-84.82
709.909	492.71
710.104	332.97
710.299	40.11
710.494	62.63
710.689	386.21
710.884	279.72
711.079	165.03
711.274	240.81
711.469	390.31
711.664	244.9
711.859	-23.38
712.054	107.69
712.249	486.56
712.443	425.12
712.638	-207.7
712.833	52.39
713.028	230.57
713.223	119.98
713.417	218.28
713.612	-4.95
713.807	414.88
714.002	849.05
714.196	267.43
714.391	-111.44
714.586	461.99
714.78	218.28
714.975	15.53
715.17	29.87
715.364	146.6
715.559	468.13
715.754	-232.27
715.948	-47.96
716.143	728.22
716.337	361.64
716.532	312.49
716.726	-50
716.921	386.21
717.115	662.69
717.31	-97.11
717.504	529.57
717.699	203.94
717.893	455.84
718.088	-88.92
718.282	-142.16
718.476	275.62
718.671	365.73
718.865	25.77
719.059	38.06
719.254	316.58
719.448	666.78
719.642	1393.81
719.837	-179.03
720.031	496.8
720.225	439.46
720.419	124.07
720.614	1.19
720.808	439.46
721.002	162.98
721.196	-21.33
721.39	-19.29
721.585	607.39
721.779	300.2
721.973	46.25
722.167	-109.4
722.361	300.2
722.555	500.9
722.749	-58.2
722.943	44.2
723.137	1.19
723.331	394.4
723.525	76.97
723.719	-13.14
723.913	345.25
724.107	597.15
724.301	-64.34
724.495	124.07
724.689	730.27
724.883	631.97
725.077	11.43
725.271	25.77
725.465	562.34
725.659	230.57
725.853	103.59
726.046	-50
726.24	119.98
726.434	496.8
726.628	64.68
726.822	119.98
727.015	541.86
727.209	545.95
727.403	72.87
727.596	-103.25
727.79	490.66
727.984	494.76
728.177	128.17
728.371	148.65
728.565	498.85
728.758	-7
728.952	-78.68
729.146	87.21
729.339	519.33
729.533	285.86
729.726	81.07
729.92	-58.2
730.113	527.52
730.307	359.59
730.5	105.64
730.694	36.01
730.887	277.67
731.081	447.65
731.274	-41.81
731.468	76.97
731.661	380.07
731.854	226.47
732.048	119.98
732.241	-43.86
732.435	81.07
732.628	322.73
732.821	50.35
733.014	-2.9
733.208	79.02
733.401	343.21
733.594	119.98
733.788	5.29
733.981	623.78
734.174	435.36
734.367	91.31
734.56	148.65
734.754	496.8
734.947	312.49
735.14	-4.95
735.333	72.87
735.526	449.7
735.719	230.57
735.912	-35.67
736.105	64.68
736.298	222.38
736.491	175.27
736.684	50.35
736.877	-23.38
737.07	386.21
737.263	629.92
737.456	50.35
737.649	-25.43
737.842	255.14
738.035	279.72
738.228	119.98
738.421	253.09
738.614	621.73
738.807	572.58
739	-179.03
739.192	-31.57
739.385	466.08
739.578	472.23
739.771	373.92
739.964	107.69
740.156	421.03
740.349	300.2
740.542	128.17
740.735	-66.39
740.927	58.54
741.12	21.67
741.313	-43.86
741.505	109.74
741.698	390.31
741.891	447.65
742.083	179.37
742.276	33.96
742.468	375.97
742.661	246.95
742.854	117.93
743.046	46.25
743.239	619.68
743.431	193.7
743.624	218.28
743.816	-66.39
744.009	294.05
744.201	367.78
744.393	326.82
744.586	-21.33
744.778	631.97
744.971	298.15
745.163	160.94
745.355	179.37
745.548	339.11
745.74	263.33
745.932	162.98
746.125	17.58
746.317	869.53
746.509	435.36
746.702	128.17
746.894	257.19
747.086	441.51
747.278	623.78
747.471	236.71
747.663	177.32
747.855	279.72
748.047	728.22
748.239	76.97
748.431	87.21
748.623	830.62
748.815	812.19
749.008	-56.15
749.2	54.44
749.392	519.33
749.584	457.89
749.776	132.26
749.968	283.81
750.16	752.8
750.352	312.49
750.544	251.05
750.736	-7
750.928	459.94
751.12	357.54
751.311	93.35
751.503	136.36
751.695	474.28
751.887	339.11
752.079	-74.58
752.271	113.83
752.463	1090.71
752.654	576.67
752.846	33.96
753.038	124.07
753.23	205.99
753.421	531.62
753.613	201.9
753.805	314.53
753.997	552.1
754.188	521.38
754.38	-23.38
754.572	167.08
754.763	298.15
754.955	486.56
755.146	138.41
755.338	214.18
755.53	384.16
755.721	326.82
755.913	21.67
756.104	13.48
756.296	298.15
756.487	554.15
756.679	50.35
756.87	142.5
757.062	328.87
757.253	464.04
757.445	21.67
757.636	263.33
757.827	373.92
758.019	986.27
758.21	11.43
758.401	89.26
758.593	890.01
758.784	670.88
758.975	19.63
759.167	60.59
759.358	392.36
759.549	591.01
759.74	167.08
759.932	195.75
760.123	601.25
760.314	255.14
760.505	240.81
760.696	44.2
760.888	791.71
761.079	263.33
761.27	13.48
761.461	-33.62
761.652	715.94
761.843	310.44
762.034	107.69
762.225	431.27
762.416	353.45
762.607	439.46
762.798	91.31
762.989	169.13
763.18	1086.62
763.371	332.97
763.562	162.98
763.753	132.26
763.944	652.45
764.135	634.02
764.326	304.29
764.517	87.21
764.708	447.65
764.899	562.34
765.089	72.87
765.28	-2.9
765.471	441.51
765.662	500.9
765.853	226.47
766.043	46.25
766.234	627.87
766.425	613.54
766.615	101.55
766.806	-60.24
766.997	631.97
767.187	515.23
767.378	79.02
767.569	56.49
767.759	537.76
767.95	504.99
768.141	312.49
768.331	117.93
768.522	408.74
768.712	504.99
768.903	17.58
769.093	58.54
769.284	879.77
769.474	451.75
769.665	105.64
769.855	-123.73
770.046	410.79
770.236	298.15
770.426	335.01
770.617	15.53
770.807	472.23
770.998	375.97
771.188	275.62
771.378	-11.09
771.569	554.15
771.759	488.61
771.949	5.29
772.139	-158.55
772.33	472.23
772.52	812.19
772.71	119.98
772.9	46.25
773.09	816.29
773.281	799.9
773.471	81.07
773.661	99.5
773.851	652.45
774.041	296.1
774.231	11.43
774.421	339.11
774.611	855.2
774.802	468.13
774.992	158.89
775.182	-4.95
775.372	437.41
775.562	607.39
775.752	193.7
775.942	130.22
776.131	707.74
776.321	570.53
776.511	54.44
776.701	117.93
776.891	677.02
777.081	300.2
777.271	251.05
777.461	21.67
777.651	683.17
777.84	660.64
778.03	341.16
778.22	105.64
778.41	697.5
778.599	322.73
778.789	236.71
778.979	117.93
779.169	429.22
779.358	343.21
779.548	461.99
779.738	36.01
779.927	578.72
780.117	261.29
780.307	240.81
780.496	-88.92
780.686	488.61
780.875	865.44
781.065	113.83
781.254	126.12
781.444	433.32
781.633	480.42
781.823	46.25
782.012	107.69
782.202	312.49
782.391	410.79
782.581	-43.86
782.77	302.25
782.96	599.2
783.149	357.54
783.338	226.47
783.528	-66.39
783.717	726.18
783.906	687.26
784.096	283.81
784.285	9.39
784.474	308.39
784.663	304.29
784.853	171.18
785.042	189.61
785.231	380.07
785.42	722.08
785.61	238.76
785.799	62.63
785.988	316.58
786.177	433.32
786.366	226.47
786.555	355.49
786.744	623.78
786.933	509.09
787.122	97.45
787.312	1.19
787.501	242.85
787.69	586.91
787.879	97.45
788.068	128.17
788.257	177.32
788.445	357.54
788.634	191.66
788.823	40.11
789.012	1041.56
789.201	738.46
789.39	144.55
789.579	97.45
789.768	449.7
789.957	496.8
790.145	144.55
790.334	-109.4
790.523	382.12
790.712	453.8
790.9	257.19
791.089	13.48
791.278	652.45
791.467	480.42
791.655	535.71
791.844	644.26
792.033	314.53
792.221	369.83
792.41	244.9
792.599	5.29
792.787	574.63
792.976	521.38
793.164	83.11
793.353	197.8
793.541	627.87
793.73	636.06
793.918	216.23
794.107	236.71
794.295	447.65
794.484	339.11
794.672	285.86
794.861	171.18
795.049	527.52
795.238	865.44
795.426	52.39
795.614	210.09
795.803	607.39
795.991	726.18
796.179	193.7
796.368	171.18
796.556	760.99
796.744	236.71
796.932	181.42
797.121	119.98
797.309	402.6
797.497	711.84
797.685	197.8
797.874	134.31
798.062	402.6
798.25	840.86
798.438	9.39
798.626	150.7
798.814	535.71
799.002	947.36
799.19	435.36
799.378	181.42
799.566	709.79
799.755	838.81
799.943	414.88
800.131	189.61
800.318	568.48
800.506	564.39
800.694	201.9
800.882	357.54
801.07	804
801.258	509.09
801.446	191.66
801.634	130.22
801.822	371.88
802.01	353.45
802.197	195.75
802.385	330.92
802.573	423.08
802.761	267.43
802.949	187.56
803.136	111.78
803.324	644.26
803.512	527.52
803.699	265.38
803.887	42.15
804.075	814.24
804.262	408.74
804.45	119.98
804.638	308.39
804.825	230.57
805.013	312.49
805.201	165.03
805.388	165.03
805.576	464.04
805.763	836.77
805.951	255.14
806.138	257.19
806.326	1004.7
806.513	656.54
806.701	292.01
806.888	205.99
807.075	603.3
807.263	877.73
807.45	107.69
807.638	455.84
807.825	904.35
808.012	779.42
808.2	298.15
808.387	509.09
808.574	595.11
808.761	867.49
808.949	185.51
809.136	365.73
809.323	394.4
809.51	353.45
809.698	562.34
809.885	425.12
810.072	560.29
810.259	666.78
810.446	314.53
810.633	230.57
810.82	820.38
811.008	838.81
811.195	357.54
811.382	294.05
811.569	484.52
811.756	294.05
811.943	234.66
812.13	271.53
812.317	339.11
812.504	433.32
812.691	390.31
812.878	382.12
813.064	894.11
813.251	623.78
813.438	177.32
813.625	423.08
813.812	398.5
813.999	425.12
814.186	380.07
814.372	302.25
814.559	576.67
814.746	873.63
814.933	259.24
815.12	494.76
815.306	455.84
815.493	371.88
815.68	263.33
815.866	394.4
816.053	781.47
816.24	998.56
816.426	423.08
816.613	181.42
816.799	750.75
816.986	818.33
817.173	328.87
817.359	261.29
817.546	605.35
817.732	201.9
817.919	62.63
818.105	369.83
818.292	480.42
818.478	642.21
818.665	472.23
818.851	251.05
819.037	1094.81
819.224	570.53
819.41	212.14
819.597	160.94
819.783	926.88
819.969	703.65
820.156	341.16
820.342	171.18
820.528	1244.31
820.714	605.35
820.901	513.19
821.087	408.74
821.273	945.31
821.459	486.56
821.646	197.8
821.832	220.33
822.018	574.63
822.204	570.53
822.39	292.01
822.576	144.55
822.762	695.46
822.948	636.06
823.134	533.67
823.32	375.97
823.507	332.97
823.693	681.12
823.879	775.33
824.065	199.85
824.25	554.15
824.436	378.02
824.622	287.91
824.808	177.32
824.994	447.65
825.18	351.4
825.366	169.13
825.552	234.66
825.738	572.58
825.923	777.37
826.109	476.32
826.295	267.43
826.481	277.67
826.667	570.53
826.852	468.13
827.038	199.85
827.224	785.57
827.409	982.17
827.595	81.07
827.781	550.05
827.966	896.16
828.152	791.71
828.338	292.01
828.523	234.66
828.709	265.38
828.894	963.74
829.08	314.53
829.266	257.19
829.451	552.1
829.637	644.26
829.822	384.16
830.008	341.16
830.193	865.44
830.378	853.15
830.564	355.49
830.749	230.57
830.935	775.33
831.12	760.99
831.305	306.34
831.491	459.94
831.676	394.4
831.861	793.76
832.047	443.56
832.232	185.51
832.417	920.73
832.602	679.07
832.788	199.85
832.973	326.82
833.158	554.15
833.343	648.35
833.528	490.66
833.714	492.71
833.899	744.61
834.084	1059.99
834.269	580.77
834.454	390.31
834.639	836.77
834.824	533.67
835.009	484.52
835.194	498.85
835.379	865.44
835.564	1021.08
835.749	533.67
835.934	165.03
836.119	812.19
836.304	543.91
836.489	339.11
836.674	513.19
836.859	431.27
837.044	875.68
837.228	322.73
837.413	230.57
837.598	644.26
837.783	918.68
837.968	341.16
838.152	185.51
838.337	152.74
838.522	865.44
838.707	736.42
838.891	459.94
839.076	746.66
839.261	937.12
839.445	287.91
839.63	382.12
839.815	957.6
839.999	521.38
840.184	361.64
840.368	326.82
840.553	887.97
840.737	787.61
840.922	238.76
841.106	234.66
841.291	363.69
841.475	697.5
841.66	337.06
841.844	345.25
842.029	1170.58
842.213	326.82
842.397	474.28
842.582	167.08
842.766	926.88
842.951	769.18
843.135	459.94
843.319	363.69
843.504	730.27
843.688	855.2
843.872	158.89
844.056	292.01
844.241	736.42
844.425	572.58
844.609	412.84
844.793	230.57
844.977	834.72
845.161	785.57
845.346	210.09
845.53	251.05
845.714	552.1
845.898	990.36
846.082	185.51
846.266	353.45
846.45	636.06
846.634	677.02
846.818	367.78
847.002	408.74
847.186	754.85
847.37	375.97
847.554	183.46
847.738	591.01
847.922	709.79
848.106	636.06
848.29	281.77
848.473	300.2
848.657	740.51
848.841	564.39
849.025	443.56
849.209	214.18
849.392	797.85
849.576	570.53
849.76	156.84
849.944	517.28
850.127	910.49
850.311	414.88
850.495	214.18
850.678	267.43
850.862	988.32
851.046	902.3
851.229	640.16
851.413	292.01
851.596	644.26
851.78	558.24
851.964	468.13
852.147	480.42
852.331	1332.37
852.514	969.88
852.698	421.03
852.881	267.43
853.065	865.44
853.248	595.11
853.431	525.47
853.615	509.09
853.798	1244.31
853.982	681.12
854.165	521.38
854.348	310.44
854.532	521.38
854.715	515.23
854.898	480.42
855.081	412.84
855.265	1027.23
855.448	1062.04
855.631	339.11
855.814	355.49
855.997	885.92
856.181	545.95
856.364	478.37
856.547	203.94
856.73	824.48
856.913	791.71
857.096	267.43
857.279	459.94
857.462	504.99
857.645	892.06
857.828	541.86
858.011	537.76
858.194	605.35
858.377	849.05
858.56	195.75
858.743	369.83
858.926	400.55
859.109	779.42
859.292	292.01
859.475	273.57
859.658	947.36
859.841	722.08
860.023	341.16
860.206	347.3
860.389	713.89
860.572	1006.75
860.755	425.12
860.937	292.01
861.12	713.89
861.303	627.87
861.486	431.27
861.668	285.86
861.851	816.29
862.034	773.28
862.216	599.2
862.399	242.85
862.581	787.61
862.764	1037.47
862.947	494.76
863.129	304.29
863.312	316.58
863.494	1053.85
863.677	666.78
863.859	138.41
864.042	906.4
864.224	971.93
864.406	548
864.589	425.12
864.771	754.85
864.954	496.8
865.136	414.88
865.318	224.42
865.501	894.11
865.683	369.83
865.865	390.31
866.048	328.87
866.23	736.42
866.412	709.79
866.594	310.44
866.777	453.8
866.959	828.57
867.141	468.13
867.323	627.87
867.505	531.62
867.687	646.3
867.869	672.93
868.052	396.45
868.234	341.16
868.416	672.93
868.598	847.01
868.78	373.92
868.962	298.15
869.144	908.44
869.326	822.43
869.508	304.29
869.69	287.91
869.872	607.39
870.054	875.68
870.236	279.72
870.417	367.78
870.599	599.2
870.781	1025.18
870.963	621.73
871.145	433.32
871.327	382.12
871.508	818.33
871.69	353.45
871.872	496.8
872.054	556.19
872.235	890.01
872.417	435.36
872.599	275.62
872.78	990.36
872.962	636.06
873.144	285.86
873.325	482.47
873.507	990.36
873.689	715.94
873.87	302.25
874.052	554.15
874.233	664.74
874.415	947.36
874.596	408.74
874.778	246.95
874.959	750.75
875.141	945.31
875.322	509.09
875.503	347.3
875.685	844.96
875.866	271.53
876.048	261.29
876.229	294.05
876.41	668.83
876.592	752.8
876.773	341.16
876.954	214.18
877.136	1019.04
877.317	511.14
877.498	277.67
877.679	519.33
877.86	922.78
878.042	668.83
878.223	386.21
878.404	724.13
878.585	775.33
878.766	1170.58
878.947	609.44
879.128	617.63
879.309	867.49
879.49	881.82
879.672	584.87
879.853	496.8
880.034	533.67
880.215	642.21
880.396	447.65
880.576	410.79
880.757	588.96
880.938	1084.57
881.119	304.29
881.3	375.97
881.481	441.51
881.662	1631.38
881.843	392.36
882.023	265.38
882.204	873.63
882.385	701.6
882.566	433.32
882.747	257.19
882.927	687.26
883.108	787.61
883.289	402.6
883.469	662.69
883.65	605.35
883.831	724.13
884.011	548
884.192	396.45
884.373	961.69
884.553	826.53
884.734	619.68
884.914	771.23
885.095	1397.91
885.275	1234.07
885.456	806.05
885.636	292.01
885.817	697.5
885.997	707.74
886.178	384.16
886.358	504.99
886.538	861.34
886.719	1748.11
886.899	418.98
887.08	537.76
887.26	978.08
887.44	607.39
887.621	373.92
887.801	523.43
887.981	1307.8
888.161	971.93
888.342	484.52
888.522	433.32
888.702	1019.04
888.882	1025.18
889.062	586.91
889.242	236.71
889.423	1053.85
889.603	945.31
889.783	666.78
889.963	504.99
890.143	824.48
890.323	930.97
890.503	400.55
890.683	466.08
890.863	840.86
891.043	816.29
891.223	588.96
891.403	711.84
891.583	775.33
891.763	744.61
891.943	570.53
892.122	492.71
892.302	799.9
892.482	681.12
892.662	732.32
892.842	564.39
893.022	840.86
893.201	640.16
893.381	717.98
893.561	472.23
893.741	1037.47
893.92	900.25
894.1	627.87
894.28	601.25
894.459	1004.7
894.639	912.54
894.819	580.77
894.998	621.73
895.178	947.36
895.357	1016.99
895.537	550.05
895.716	472.23
895.896	844.96
896.075	1285.27
896.255	631.97
896.434	298.15
896.614	1082.52
896.793	1201.3
896.973	724.13
897.152	668.83
897.331	996.51
897.511	951.45
897.69	441.51
897.87	631.97
898.049	1057.95
898.228	785.57
898.407	754.85
898.587	767.13
898.766	650.4
898.945	1033.37
899.124	836.77
899.304	605.35
899.483	875.68
899.662	1219.74
899.841	466.08
900.02	631.97
900.199	1135.77
900.378	908.44
900.557	509.09
900.737	461.99
900.916	881.82
901.095	980.12
901.274	871.58
901.453	545.95
901.632	584.87
901.811	744.61
901.989	535.71
902.168	486.56
902.347	1019.04
902.526	760.99
902.705	584.87
902.884	705.7
903.063	1244.31
903.242	1113.24
903.42	525.47
903.599	685.22
903.778	1033.37
903.957	1197.21
904.135	713.89
904.314	541.86
904.493	869.53
904.672	1029.27
904.85	720.03
905.029	644.26
905.207	996.51
905.386	1578.13
905.565	548
905.743	517.28
905.922	728.22
906.1	1041.56
906.279	513.19
906.457	625.83
906.636	701.6
906.814	834.72
906.993	715.94
907.171	453.8
907.35	1010.84
907.528	1076.38
907.707	736.42
907.885	478.37
908.063	1211.54
908.242	609.44
908.42	660.64
908.598	384.16
908.777	994.46
908.955	713.89
909.133	705.7
909.311	572.58
909.49	812.19
909.668	806.05
909.846	605.35
910.024	478.37
910.202	910.49
910.38	1082.52
910.559	521.38
910.737	472.23
910.915	890.01
911.093	861.34
911.271	636.06
911.449	818.33
911.627	1045.66
911.805	1272.98
911.983	636.06
912.161	558.24
912.339	949.4
912.517	1105.05
912.695	797.85
912.872	611.49
913.05	656.54
913.228	963.74
913.406	525.47
913.584	529.57
913.762	1029.27
913.939	652.45
914.117	570.53
914.295	480.42
914.473	963.74
914.65	859.29
914.828	591.01
915.006	511.14
915.184	586.91
915.361	910.49
915.539	750.75
915.716	740.51
915.894	892.06
916.072	1031.32
916.249	756.9
916.427	679.07
916.604	660.64
916.782	984.22
916.959	433.32
917.137	564.39
917.314	914.59
917.492	922.78
917.669	670.88
917.847	640.16
918.024	920.73
918.201	638.11
918.379	644.26
918.556	646.3
918.733	1037.47
918.911	785.57
919.088	699.55
919.265	521.38
919.442	885.92
919.62	791.71
919.797	535.71
919.974	431.27
920.151	765.09
920.328	832.67
920.506	574.63
920.683	748.7
920.86	603.3
921.037	681.12
921.214	709.79
921.391	492.71
921.568	1043.61
921.745	623.78
921.922	595.11
922.099	476.32
922.276	1162.39
922.453	869.53
922.63	515.23
922.807	939.16
922.984	808.09
923.161	687.26
923.338	568.48
923.514	441.51
923.691	865.44
923.868	900.25
924.045	615.59
924.222	496.8
924.399	898.2
924.575	1014.94
924.752	670.88
924.929	640.16
925.105	879.77
925.282	693.41
925.459	550.05
925.635	599.2
925.812	738.46
925.989	619.68
926.165	615.59
926.342	437.41
926.518	582.82
926.695	705.7
926.871	517.28
927.048	441.51
927.224	896.16
927.401	666.78
927.577	568.48
927.754	357.54
927.93	996.51
928.107	1004.7
928.283	414.88
928.459	611.49
928.636	857.25
928.812	668.83
928.988	435.36
929.165	363.69
929.341	810.14
929.517	812.19
929.693	849.05
929.87	298.15
930.046	842.91
930.222	634.02
930.398	457.89
930.574	631.97
930.751	787.61
930.927	621.73
931.103	492.71
931.279	615.59
931.455	580.77
931.631	863.39
931.807	392.36
931.983	371.88
932.159	410.79
932.335	726.18
932.511	408.74
932.687	449.7
932.863	867.49
933.039	746.66
933.215	302.25
933.391	289.96
933.566	584.87
933.742	617.63
933.918	537.76
934.094	320.68
934.27	689.31
934.445	646.3
934.621	603.3
934.797	375.97
934.973	818.33
935.148	634.02
935.324	324.77
935.5	191.66
935.675	900.25
935.851	724.13
936.027	394.4
936.202	433.32
936.378	730.27
936.553	562.34
936.729	814.24
936.904	357.54
937.08	320.68
937.255	400.55
937.431	300.2
937.606	165.03
937.782	459.94
937.957	640.16
938.133	464.04
938.308	292.01
938.483	511.14
938.659	324.77
938.834	345.25
939.009	181.42
939.185	459.94
939.36	269.48
939.535	-58.2
939.71	390.31
939.886	814.24
940.061	582.82
940.236	539.81
940.411	339.11
940.586	588.96
940.761	582.82
940.937	298.15
941.112	60.59
941.287	488.61
941.462	472.23
941.637	185.51
941.812	205.99
941.987	515.23
942.162	382.12
942.337	423.08
942.512	185.51
942.687	597.15
942.862	648.35
943.037	48.3
943.212	-152.4
943.386	388.26
943.561	504.99
943.736	347.3
943.911	513.19
944.086	586.91
944.26	529.57
944.435	220.33
944.61	320.68
944.785	711.84
944.959	947.36
945.134	267.43
945.309	132.26
945.483	302.25
945.658	672.93
945.833	-99.16
946.007	48.3
946.182	767.13
946.357	242.85
946.531	136.36
946.706	54.44
946.88	33.96
947.055	398.5
947.229	218.28
947.404	171.18
947.578	582.82
947.752	410.79
947.927	-2.9
948.101	36.01
948.276	433.32
948.45	513.19
948.624	367.78
948.799	107.69
948.973	541.86
949.147	167.08
949.321	181.42
949.496	169.13
949.67	668.83
949.844	382.12
950.018	224.42
950.193	185.51
950.367	926.88
950.541	367.78
950.715	265.38
950.889	337.06
951.063	427.17
951.237	586.91
951.411	36.01
951.585	-127.83
951.759	425.12
951.933	400.55
952.107	74.92
952.281	353.45
952.455	752.8
952.629	588.96
952.803	165.03
952.977	124.07
953.151	738.46
953.325	535.71
953.499	320.68
953.672	-41.81
953.846	222.38
954.02	304.29
954.194	103.59
954.368	72.87
954.541	545.95
954.715	308.39
954.889	158.89
955.062	68.78
955.236	279.72
955.41	228.52
955.583	318.63
955.757	-19.29
955.93	349.35
956.104	162.98
956.278	160.94
956.451	222.38
956.625	468.13
956.798	865.44
956.972	375.97
957.145	19.63
957.319	361.64
957.492	357.54
957.665	320.68
957.839	136.36
958.012	509.09
958.185	314.53
958.359	93.35
958.532	398.5
958.705	582.82
958.879	476.32
959.052	185.51
959.225	23.72
959.398	306.34
959.572	406.69
959.745	91.31
959.918	214.18
960.091	418.98
960.264	476.32
960.438	31.91
960.611	27.82
960.784	625.83
960.957	244.9
961.13	486.56
961.303	93.35
961.476	386.21
961.649	640.16
961.822	119.98
961.995	185.51
962.168	521.38
962.341	332.97
962.514	148.65
962.686	97.45
962.859	322.73
963.032	482.47
963.205	128.17
963.378	-54.1
963.551	474.28
963.723	357.54
963.896	345.25
964.069	226.47
964.242	375.97
964.414	603.3
964.587	205.99
964.76	304.29
964.932	517.28
965.105	380.07
965.278	40.11
965.45	62.63
965.623	351.4
965.795	554.15
965.968	99.5
966.14	179.37
966.313	328.87
966.485	382.12
966.658	97.45
966.83	169.13
967.003	584.87
967.175	619.68
967.348	124.07
967.52	160.94
967.692	793.76
967.865	521.38
968.037	152.74
968.209	412.84
968.382	349.35
968.554	636.06
968.726	238.76
968.898	23.72
969.071	453.8
969.243	488.61
969.415	193.7
969.587	255.14
969.759	941.21
969.932	568.48
970.104	187.56
970.276	-82.77
970.448	302.25
970.62	257.19
970.792	253.09
970.964	220.33
971.136	849.05
971.308	550.05
971.48	144.55
971.652	79.02
971.824	707.74
971.996	330.92
972.168	210.09
972.339	222.38
972.511	609.44
972.683	353.45
972.855	414.88
973.027	126.12
973.199	316.58
973.37	525.47
973.542	308.39
973.714	351.4
973.886	349.35
974.057	617.63
974.229	74.92
974.401	185.51
974.572	218.28
974.744	-2.9
974.915	91.31
975.087	113.83
975.259	689.31
975.43	244.9
975.602	132.26
975.773	79.02
975.945	226.47
976.116	564.39
976.288	79.02
976.459	292.01
976.63	339.11
976.802	515.23
976.973	246.95
977.145	316.58
977.316	877.73
977.487	443.56
977.659	267.43
977.83	275.62
978.001	910.49
978.172	492.71
978.344	87.21
978.515	134.31
978.686	347.3
978.857	722.08
979.028	175.27
979.2	95.4
979.371	629.92
979.542	386.21
979.713	292.01
979.884	-277.33
980.055	271.53
980.226	337.06
980.397	124.07
980.568	-25.43
980.739	545.95
980.91	263.33
981.081	375.97
981.252	-13.14
981.423	480.42
981.594	576.67
981.765	17.58
981.936	251.05
982.106	439.46
982.277	717.98
982.448	89.26
982.619	343.21
982.79	283.81
982.96	570.53
983.131	234.66
983.302	-90.96
983.472	255.14
983.643	421.03
983.814	304.29
983.984	87.21
984.155	324.77
984.326	666.78
984.496	193.7
984.667	158.89
984.837	267.43
985.008	576.67
985.178	351.4
985.349	130.22
985.519	416.93
985.69	203.94
985.86	203.94
986.031	42.15
986.201	461.99
986.371	492.71
986.542	109.74
986.712	-43.86
986.882	425.12
987.053	488.61
987.223	19.63
987.393	232.62
987.563	351.4
987.734	459.94
987.904	435.36
988.074	113.83
988.244	404.64
988.414	220.33
988.585	64.68
988.755	263.33
988.925	300.2
989.095	730.27
989.265	48.3
989.435	169.13
989.605	496.8
989.775	560.29
989.945	349.35
990.115	-15.19
990.285	279.72
990.455	365.73
990.625	199.85
990.795	9.39
990.965	687.26
991.134	201.9
991.304	46.25
991.474	87.21
991.644	494.76
991.814	730.27
991.984	-52.05
992.153	91.31
992.323	332.97
992.493	390.31
992.662	-109.4
992.832	226.47
993.002	349.35
993.171	486.56
993.341	-115.54
993.511	165.03
993.68	173.22
993.85	500.9
994.019	-146.26
994.189	48.3
994.358	365.73
994.528	218.28
994.697	-207.7
994.867	44.2
995.036	464.04
995.206	154.79
995.375	9.39
995.544	218.28
995.714	363.69
995.883	269.48
996.052	203.94
996.222	-166.74
996.391	828.57
996.56	486.56
996.73	54.44
996.899	-93.01
997.068	674.98
997.237	296.1
997.406	-64.34
997.576	-125.78
997.745	312.49
997.914	332.97
998.083	-142.16
998.252	70.83
998.421	300.2
998.59	136.36
998.759	-78.68
998.928	-230.23
999.097	607.39
999.266	425.12
999.435	179.37
999.604	-219.99
999.773	775.33
999.942	261.29
1000.111	-115.54
1000.28	-121.68
1000.448	103.59
1000.617	144.55
1000.786	156.84
1000.955	-203.6
1001.124	283.81
1001.292	943.26
1001.461	-15.19
1001.63	5.29
1001.798	648.35
1001.967	595.11
1002.136	-93.01
1002.304	-43.86
1002.473	421.03
1002.642	328.87
1002.81	23.72
1002.979	-47.96
1003.147	441.51
1003.316	887.97
1003.484	-25.43
1003.653	-113.49
1003.821	562.34
1003.99	269.48
1004.158	140.46
1004.327	95.4
1004.495	373.92
1004.663	50.35
1004.832	162.98
1005	-125.78
1005.168	408.74
1005.337	353.45
1005.505	-115.54
1005.673	160.94
1005.842	332.97
1006.01	390.31
1006.178	-84.82
1006.346	-150.36
1006.514	332.97
1006.683	558.24
1006.851	-82.77
1007.019	-236.37
1007.187	42.15
1007.355	-133.97
1007.523	-248.66
1007.691	-219.99
1007.859	-148.31
1008.027	513.19
1008.195	-2.9
1008.363	-154.45
1008.531	484.52
1008.699	175.27
1008.867	-217.94
1009.035	-211.79
1009.203	521.38
1009.37	230.57
1009.538	-7
1009.706	380.07
1009.874	255.14
1010.042	230.57
1010.209	-109.4
1010.377	-181.07
1010.545	425.12
1010.713	257.19
1010.88	-207.7
1011.048	-80.72
1011.216	185.51
1011.383	599.2
1011.551	-90.96
1011.718	-176.98
1011.886	421.03
1012.054	263.33
1012.221	-131.92
1012.389	-111.44
1012.556	148.65
1012.724	720.03
1012.891	17.58
1013.058	-252.75
1013.226	369.83
1013.393	396.45
1013.561	-242.51
1013.728	-322.38
1013.895	480.42
1014.063	414.88
1014.23	-213.84
1014.397	-113.49
1014.565	461.99
1014.732	107.69
1014.899	-115.54
1015.066	-146.26
1015.233	249
1015.401	400.55
1015.568	-56.15
1015.735	40.11
1015.902	339.11
1016.069	375.97
1016.236	-43.86
1016.403	-140.12
1016.57	-56.15
1016.737	445.6
1016.904	-35.67
1017.071	-181.07
1017.238	152.74
1017.405	459.94
1017.572	-156.5
1017.739	66.73
1017.906	443.56
1018.073	423.08
1018.24	-254.8
1018.407	13.48
1018.573	457.89
1018.74	134.31
1018.907	-117.59
1019.074	-320.34
1019.241	472.23
1019.407	289.96
1019.574	-219.99
1019.741	-285.52
1019.907	271.53
1020.074	375.97
1020.241	-314.19
1020.407	-209.75
1020.574	316.58
1020.74	300.2
1020.907	-136.02
1021.073	-240.47
1021.24	799.9
1021.406	539.81
1021.573	-219.99
1021.739	-166.74
1021.906	523.43
1022.072	279.72
1022.239	-70.48
1022.405	-93.01
1022.571	253.09
1022.738	25.77
1022.904	-174.93
1023.07	-222.03
1023.237	300.2
1023.403	525.47
1023.569	-154.45
1023.735	-154.45
1023.902	251.05
1024.068	328.87
1024.234	-248.66
1024.4	-123.73
1024.566	267.43
1024.732	421.03
1024.898	-93.01
1025.065	-279.38
1025.231	378.02
1025.397	154.79
1025.563	-66.39
1025.729	-191.31
1025.895	-299.86
1026.061	74.92
1026.227	-291.66
1026.392	-97.11
1026.558	484.52
1026.724	363.69
1026.89	-222.03
1027.056	-66.39
1027.222	363.69
1027.388	140.46
1027.553	-158.55
1027.719	-224.08
1027.885	695.46
1028.051	312.49
1028.216	-367.44
1028.382	-90.96
1028.548	363.69
1028.713	216.23
1028.879	-254.8
1029.045	-52.05
1029.21	486.56
1029.376	507.04
1029.541	-111.44
1029.707	-133.97
1029.873	355.49
1030.038	429.22
1030.204	-199.51
1030.369	-62.29
1030.534	386.21
1030.7	89.26
1030.865	-68.44
1031.031	-228.18
1031.196	488.61
1031.361	265.38
1031.527	-215.89
1031.692	-242.51
1031.857	-176.98
1032.023	349.35
1032.188	-207.7
1032.353	-156.5
1032.518	591.01
1032.684	269.48
1032.849	-310.1
1033.014	-146.26
1033.179	412.84
1033.344	347.3
1033.509	-52.05
1033.674	-172.88
1033.839	400.55
1034.004	400.55
1034.17	-125.78
1034.335	-187.22
1034.5	138.41
1034.664	66.73
1034.829	-197.46
1034.994	-41.81
1035.159	261.29
1035.324	224.42
1035.489	-41.81
1035.654	-269.14
1035.819	488.61
1035.984	306.34
1036.148	-197.46
1036.313	-101.2
1036.478	365.73
1036.643	148.65
1036.807	-209.75
1036.972	-236.37
1037.137	533.67
1037.301	189.61
1037.466	-312.14
1037.631	13.48
1037.795	492.71
1037.96	300.2
1038.124	1.19
1038.289	-308.05
1038.454	398.5
1038.618	298.15
1038.783	-187.22
1038.947	-109.4
1039.111	181.42
1039.276	130.22
1039.44	-156.5
1039.605	294.05
1039.769	169.13
1039.933	253.09
1040.098	-74.58
1040.262	42.15
1040.426	447.65
1040.591	406.69
1040.755	-197.46
1040.919	-164.69
1041.083	367.78
1041.248	228.52
1041.412	-297.81
1041.576	-226.13
1041.74	111.78
1041.904	410.79
1042.068	-238.42
1042.232	-68.44
1042.397	445.6
1042.561	332.97
1042.725	-330.58
1042.889	58.54
1043.053	359.59
1043.217	343.21
1043.381	-47.96
1043.544	-306
1043.708	607.39
1043.872	5.29
1044.036	-330.58
1044.2	-234.32
1044.364	488.61
1044.528	599.2
1044.691	4553.83
1044.855	-306
1045.019	418.98
1045.183	429.22
1045.346	-66.39
1045.51	-316.24
1045.674	357.54
1045.837	425.12
1046.001	-213.84
1046.165	-273.23
1046.328	763.04
1046.492	375.97
1046.655	70.83
1046.819	25.77
1046.983	91.31
1047.146	289.96
1047.31	-70.48
1047.473	-273.23
1047.636	199.85
1047.8	-23.38
1047.963	-213.84
1048.127	-232.27
1048.29	79.02
