Data from Ink_Intensity_USB4F045381__74__00074.txt Node

Date: Mon Jul 17 10:39:59 EDT 2023
User: mmckonesweet
Spectrometer: USB4F04538
Trigger mode: 4
Integration Time (sec): 9.000000E-1
Scans to average: 1
Electric dark correction enabled: true
Nonlinearity correction enabled: false
Boxcar width: 0
XAxis mode: Wavelengths
Number of Pixels in Spectrum: 3648
>>>>>Begin Spectral Data<<<<<
345.52	-1038.15
345.736	-1038.15
345.952	-1038.15
346.168	-1034.05
346.384	-948.04
346.6	-122.71
346.816	-233.3
347.032	-190.29
347.248	252.07
347.464	-132.95
347.68	-175.95
347.896	30.89
348.112	458.92
348.328	-65.36
348.544	-98.13
348.76	18.6
348.975	258.21
349.191	-264.02
349.407	-290.64
349.623	-30.55
349.839	-135
350.055	-83.8
350.27	10.41
350.486	231.59
350.702	331.94
350.918	272.55
351.133	-221.01
351.349	94.38
351.565	436.39
351.781	-214.87
351.996	-1.88
352.212	356.52
352.428	-192.34
352.644	-161.62
352.859	-264.02
353.075	225.45
353.291	6.31
353.506	-100.18
353.722	-175.95
353.938	-83.8
354.153	434.34
354.369	45.23
354.584	-268.11
354.8	301.22
355.016	-309.07
355.231	-227.15
355.447	-69.46
355.662	125.1
355.878	870.56
356.093	-382.8
356.309	-42.84
356.524	-311.12
356.74	231.59
356.955	-235.35
357.171	-83.8
357.386	145.58
357.602	-157.52
357.817	-161.62
358.033	-173.91
358.248	348.33
358.464	129.19
358.679	-96.08
358.895	-337.74
359.11	-67.41
359.325	301.22
359.541	34.99
359.756	-75.6
359.972	-231.25
360.187	123.05
360.402	-237.39
360.618	-122.71
360.833	956.57
361.048	174.25
361.264	-249.68
361.479	-38.74
361.694	-89.94
361.909	194.73
362.125	-198.48
362.34	-145.24
362.555	217.26
362.77	22.7
362.986	-325.46
363.201	-223.06
363.416	170.15
363.631	45.23
363.847	-243.54
364.062	-157.52
364.277	149.67
364.492	102.57
364.707	-165.71
364.922	-405.33
365.138	166.06
365.353	272.55
365.568	-345.94
365.783	-194.39
365.998	49.32
366.213	538.79
366.428	-186.19
366.643	67.75
366.858	204.97
367.073	188.58
367.288	-184.15
367.503	-286.54
367.718	151.72
367.933	247.97
368.148	-261.97
368.363	-71.51
368.578	-34.64
368.793	463.01
369.008	-157.52
369.223	-284.5
369.438	262.31
369.653	420
369.868	-272.21
370.083	-159.57
370.298	94.38
370.513	403.62
370.728	34.99
370.943	-196.43
371.157	-221.01
371.372	538.79
371.587	-382.8
371.802	-272.21
372.017	-12.12
372.232	364.71
372.446	-38.74
372.661	-259.92
372.876	194.73
373.091	178.34
373.306	-110.42
373.52	-264.02
373.735	-212.82
373.95	407.72
374.165	-171.86
374.379	-120.66
374.594	-116.56
374.809	125.1
375.023	-20.31
375.238	-286.54
375.453	270.5
375.667	-302.93
375.882	-151.38
376.097	-206.67
376.311	-38.74
376.526	10.41
376.741	-186.19
376.955	123.05
377.17	512.16
377.384	456.87
377.599	-91.99
377.813	-259.92
378.028	508.07
378.242	135.34
378.457	-104.28
378.672	-397.14
378.886	90.28
379.101	-53.08
379.315	-436.05
379.53	-196.43
379.744	215.21
379.958	108.71
380.173	-139.09
380.387	-194.39
380.602	141.48
380.816	-124.76
381.031	-159.57
381.245	-175.95
381.459	196.78
381.674	2627.71
381.888	-255.83
382.103	73.9
382.317	-204.63
382.531	411.81
382.746	-67.41
382.96	-145.24
383.174	-120.66
383.388	422.05
383.603	10.41
383.817	-352.08
384.031	153.77
384.246	428.2
384.46	-30.55
384.674	338.09
384.888	26.79
385.103	16.55
385.317	-294.74
385.531	-69.46
385.745	391.33
385.959	207.02
386.174	-251.73
386.388	-309.07
386.602	-18.26
386.816	-173.91
387.03	-108.37
387.244	-91.99
387.458	45.23
387.672	329.89
387.887	-274.26
388.101	-268.11
388.315	297.13
388.529	118.95
388.743	-190.29
388.957	-257.87
389.171	299.17
389.385	-180.05
389.599	-190.29
389.813	92.33
390.027	161.96
390.241	678.05
390.455	-124.76
390.669	-100.18
390.883	-157.52
391.097	395.43
391.311	84.14
391.525	-161.62
391.738	260.26
391.952	84.14
392.166	-51.03
392.38	-264.02
392.594	268.45
392.808	321.7
393.022	-132.95
393.236	-208.72
393.449	211.11
393.663	137.38
393.877	-284.5
394.091	-161.62
394.305	39.08
394.518	-235.35
394.732	-255.83
394.946	-161.62
395.16	456.87
395.373	116.9
395.587	-249.68
395.801	-208.72
396.015	333.99
396.228	227.5
396.442	-296.78
396.656	-360.27
396.869	315.56
397.083	452.77
397.297	-167.76
397.51	-198.48
397.724	284.84
397.938	59.56
398.151	-241.49
398.365	-315.22
398.578	184.49
398.792	387.24
399.005	12.46
399.219	-96.08
399.433	102.57
399.646	209.06
399.86	-22.36
400.073	-14.17
400.287	153.77
400.5	-120.66
400.714	-51.03
400.927	-36.69
401.141	192.68
401.354	1126.55
401.567	172.2
401.781	-298.83
401.994	307.37
402.208	524.45
402.421	-124.76
402.635	-106.32
402.848	39.08
403.061	223.4
403.275	-110.42
403.488	-284.5
403.701	422.05
403.915	243.88
404.128	18.6
404.341	-210.77
404.555	86.19
404.768	-26.45
404.981	-57.17
405.195	-229.2
405.408	559.27
405.621	207.02
405.834	-83.8
406.048	-173.91
406.261	397.48
406.474	471.2
406.687	-173.91
406.9	-3.93
407.114	116.9
407.327	149.67
407.54	-302.93
407.753	-313.17
407.966	-159.57
408.179	227.5
408.392	-167.76
408.605	-362.32
408.819	125.1
409.032	133.29
409.245	-272.21
409.458	-30.55
409.671	211.11
409.884	264.36
410.097	-311.12
410.31	-75.6
410.523	213.16
410.736	39.08
410.949	-71.51
411.162	-137.04
411.375	311.46
411.588	200.87
411.801	30.89
412.014	-165.71
412.227	84.14
412.44	-89.94
412.653	-100.18
412.865	26.79
413.078	213.16
413.291	200.87
413.504	-114.52
413.717	-304.98
413.93	247.97
414.143	-145.24
414.356	-206.67
414.568	-307.02
414.781	209.06
414.994	67.75
415.207	-102.23
415.42	-59.22
415.632	168.1
415.845	372.9
416.058	-284.5
416.271	-268.11
416.483	20.65
416.696	544.93
416.909	-165.71
417.121	-157.52
417.334	116.9
417.547	569.51
417.759	-96.08
417.972	-276.31
418.185	-71.51
418.397	174.25
418.61	-229.2
418.823	-175.95
419.035	422.05
419.248	-22.36
419.46	-157.52
419.673	-198.48
419.885	161.96
420.098	-137.04
420.311	-128.85
420.523	-390.99
420.736	209.06
420.948	10.41
421.161	-143.19
421.373	-431.95
421.586	106.67
421.798	-167.76
422.01	-341.84
422.223	-75.6
422.435	-63.32
422.648	225.45
422.86	-204.63
423.073	-190.29
423.285	305.32
423.497	-231.25
423.71	-268.11
423.922	-266.07
424.134	123.05
424.347	342.18
424.559	14.51
424.771	69.8
424.984	14.51
425.196	131.24
425.408	-350.03
425.621	-259.92
425.833	256.17
426.045	317.61
426.257	-239.44
426.47	-100.18
426.682	55.47
426.894	180.39
427.106	-194.39
427.318	-206.67
427.531	-57.17
427.743	241.83
427.955	-261.97
428.167	217.26
428.379	129.19
428.591	10.41
428.804	-69.46
429.016	-249.68
429.228	-81.75
429.44	215.21
429.652	-57.17
429.864	-284.5
430.076	-10.07
430.288	-55.12
430.5	-143.19
430.712	-96.08
430.924	202.92
431.136	51.37
431.348	-288.59
431.56	-298.83
431.772	12.46
431.984	-71.51
432.196	-296.78
432.408	-198.48
432.62	-130.9
432.832	90.28
433.044	92.33
433.256	-91.99
433.468	186.54
433.679	-341.84
433.891	-268.11
434.103	-10.07
434.315	333.99
434.527	219.3
434.739	-155.47
434.95	-159.57
435.162	213.16
435.374	-147.28
435.586	-184.15
435.798	-264.02
436.009	-290.64
436.221	-32.6
436.433	-223.06
436.645	-198.48
436.856	-180.05
437.068	260.26
437.28	-264.02
437.491	28.84
437.703	131.24
437.915	104.62
438.126	-182.1
438.338	129.19
438.55	-61.27
438.761	194.73
438.973	-180.05
439.184	-149.33
439.396	-57.17
439.608	209.06
439.819	-280.4
440.031	-44.88
440.242	241.83
440.454	112.81
440.665	-155.47
440.877	-67.41
441.088	133.29
441.3	-77.65
441.511	-317.26
441.723	-198.48
441.934	204.97
442.146	-14.17
442.357	-18.26
442.569	8.36
442.78	26.79
442.991	424.1
443.203	96.43
443.414	-356.18
443.626	428.2
443.837	-87.89
444.048	-302.93
444.26	-370.51
444.471	-26.45
444.682	233.64
444.894	-421.71
445.105	-376.66
445.316	211.11
445.528	161.96
445.739	-116.56
445.95	-202.58
446.161	49.32
446.373	305.32
446.584	-169.81
446.795	-276.31
447.006	118.95
447.217	385.19
447.429	-313.17
447.64	-329.55
447.851	301.22
448.062	47.27
448.273	-390.99
448.484	-214.87
448.695	110.76
448.907	-53.08
449.118	-153.43
449.329	30.89
449.54	-71.51
449.751	-175.95
449.962	-202.58
450.173	-259.92
450.384	305.32
450.595	290.98
450.806	-231.25
451.017	-202.58
451.228	344.23
451.439	270.5
451.65	-270.16
451.861	-415.57
452.072	-182.1
452.283	2.22
452.494	-61.27
452.705	-231.25
452.915	377
453.126	168.1
453.337	-122.71
453.548	-272.21
453.759	266.41
453.97	522.4
454.181	-42.84
454.391	-231.25
454.602	77.99
454.813	141.48
455.024	-214.87
455.235	-235.35
455.445	92.33
455.656	223.4
455.867	-167.76
456.078	-249.68
456.288	-14.17
456.499	123.05
456.71	-278.35
456.921	84.14
457.131	127.14
457.342	80.04
457.553	-223.06
457.763	-255.83
457.974	133.29
458.184	237.74
458.395	-341.84
458.606	-292.69
458.816	276.65
459.027	434.34
459.237	-57.17
459.448	-409.42
459.659	245.93
459.869	571.55
460.08	-362.32
460.29	-128.85
460.501	499.88
460.711	-141.14
460.922	-261.97
461.132	-235.35
461.343	741.54
461.553	-196.43
461.764	-153.43
461.974	-247.63
462.184	231.59
462.395	168.1
462.605	-231.25
462.816	-274.26
463.026	108.71
463.236	278.69
463.447	-302.93
463.657	-280.4
463.867	192.68
464.078	-26.45
464.288	-157.52
464.498	-313.17
464.709	34.99
464.919	-112.47
465.129	-153.43
465.339	-331.6
465.55	75.95
465.76	186.54
465.97	-178
466.18	-364.37
466.391	237.74
466.601	94.38
466.811	-114.52
467.021	-317.26
467.231	147.62
467.441	258.21
467.651	-153.43
467.862	-489.29
468.072	-38.74
468.282	342.18
468.492	-290.64
468.702	-253.78
468.912	39.08
469.122	583.84
469.332	88.23
469.542	-261.97
469.752	241.83
469.962	75.95
470.172	-366.42
470.382	-333.65
470.592	159.91
470.802	266.41
471.012	-139.09
471.222	-192.34
471.432	250.02
471.642	174.25
471.852	-178
472.062	-304.98
472.272	0.17
472.482	-264.02
472.691	-354.13
472.901	-407.38
473.111	69.8
473.321	501.92
473.531	-268.11
473.741	-116.56
473.95	55.47
474.16	174.25
474.37	-186.19
474.58	-337.74
474.79	385.19
474.999	237.74
475.209	-300.88
475.419	-239.44
475.628	-18.26
475.838	346.28
476.048	-104.28
476.258	-384.85
476.467	243.88
476.677	-98.13
476.886	-30.55
477.096	-229.2
477.306	-163.67
477.515	356.52
477.725	-126.8
477.935	-155.47
478.144	323.75
478.354	-124.76
478.563	-235.35
478.773	-317.26
478.982	190.63
479.192	268.45
479.401	-116.56
479.611	-292.69
479.82	-122.71
480.03	71.85
480.239	-218.96
480.449	-401.23
480.658	358.57
480.868	-206.67
481.077	-59.22
481.287	-221.01
481.496	153.77
481.705	448.68
481.915	-32.6
482.124	59.56
482.333	112.81
482.543	329.89
482.752	-128.85
482.961	-302.93
483.171	196.78
483.38	26.79
483.589	-231.25
483.799	-268.11
484.008	26.79
484.217	190.63
484.426	-249.68
484.636	-341.84
484.845	116.9
485.054	-323.41
485.263	45.23
485.472	-245.59
485.682	401.57
485.891	161.96
486.1	-405.33
486.309	-278.35
486.518	118.95
486.727	358.57
486.936	-315.22
487.146	-79.7
487.355	387.24
487.564	-253.78
487.773	-186.19
487.982	-218.96
488.191	-77.65
488.4	-14.17
488.609	-208.72
488.818	-307.02
489.027	553.12
489.236	352.42
489.445	-192.34
489.654	-304.98
489.863	239.78
490.072	-18.26
490.281	26.79
490.49	-210.77
490.698	364.71
490.907	395.43
491.116	-175.95
491.325	-415.57
491.534	331.94
491.743	88.23
491.952	-210.77
492.16	-175.95
492.369	100.52
492.578	211.11
492.787	-155.47
492.996	-204.63
493.204	-112.47
493.413	399.52
493.622	-421.71
493.831	-395.09
494.039	426.15
494.248	-202.58
494.457	-317.26
494.665	-411.47
494.874	104.62
495.083	448.68
495.291	-165.71
495.5	-251.73
495.709	188.58
495.917	112.81
496.126	-169.81
496.335	-300.88
496.543	-135
496.752	26.79
496.96	-10.07
497.169	-444.24
497.377	-28.5
497.586	323.75
497.794	-147.28
498.003	-442.19
498.211	-67.41
498.42	383.14
498.628	-178
498.837	-350.03
499.045	75.95
499.254	75.95
499.462	-386.9
499.671	-356.18
499.879	360.61
500.087	245.93
500.296	-331.6
500.504	-292.69
500.713	51.37
500.921	532.64
501.129	-255.83
501.338	-296.78
501.546	-8.02
501.754	55.47
501.962	-249.68
502.171	-243.54
502.379	123.05
502.587	454.82
502.795	-153.43
503.004	-194.39
503.212	-10.07
503.42	250.02
503.628	-243.54
503.837	-128.85
504.045	188.58
504.253	446.63
504.461	-370.51
504.669	-472.91
504.877	213.16
505.085	299.17
505.294	-436.05
505.502	-44.88
505.71	37.03
505.918	207.02
506.126	-251.73
506.334	-276.31
506.542	-1.88
506.75	127.14
506.958	-210.77
507.166	-192.34
507.374	-30.55
507.582	411.81
507.79	-178
507.998	-302.93
508.206	166.06
508.414	47.27
508.622	-304.98
508.83	-184.15
509.037	321.7
509.245	-46.93
509.453	-296.78
509.661	-290.64
509.869	125.1
510.077	-44.88
510.285	-130.9
510.492	-530.25
510.7	551.07
510.908	-194.39
511.116	-251.73
511.324	-266.07
511.531	-46.93
511.739	0.17
511.947	-53.08
512.155	-12.12
512.362	6.31
512.57	-188.24
512.778	-294.74
512.985	-390.99
513.193	260.26
513.401	374.95
513.608	-270.16
513.816	-284.5
514.024	221.35
514.231	333.99
514.439	-325.46
514.646	-247.63
514.854	247.97
515.061	252.07
515.269	-247.63
515.477	-257.87
515.684	-157.52
515.892	188.58
516.099	-362.32
516.307	-384.85
516.514	227.5
516.722	368.81
516.929	-184.15
517.136	-327.5
517.344	338.09
517.551	43.18
517.759	-345.94
517.966	-241.49
518.173	-128.85
518.381	-14.17
518.588	-194.39
518.796	-290.64
519.003	204.97
519.21	-63.32
519.418	-278.35
519.625	-26.45
519.832	51.37
520.039	161.96
520.247	-438.09
520.454	-239.44
520.661	286.89
520.868	133.29
521.076	-304.98
521.283	-208.72
521.49	585.89
521.697	153.77
521.904	-239.44
522.112	-210.77
522.319	194.73
522.526	174.25
522.733	-208.72
522.94	-339.79
523.147	10.41
523.354	207.02
523.561	-448.33
523.768	-208.72
523.975	233.64
524.183	-18.26
524.39	-143.19
524.597	-350.03
524.804	2.22
525.011	-218.96
525.218	-352.08
525.425	-317.26
525.632	395.43
525.838	-182.1
526.045	-376.66
526.252	-311.12
526.459	1061.02
526.666	776.35
526.873	-298.83
527.08	-329.55
527.287	346.28
527.494	159.91
527.701	-444.24
527.907	-372.56
528.114	98.47
528.321	12.46
528.528	-280.4
528.735	-364.37
528.941	-128.85
529.148	-96.08
529.355	-196.43
529.562	-333.65
529.768	366.76
529.975	-65.36
530.182	-223.06
530.388	-272.21
530.595	247.97
530.802	-264.02
531.008	-79.7
531.215	-255.83
531.422	741.54
531.628	800.93
531.835	-212.82
532.042	-169.81
532.248	-124.76
532.455	53.42
532.661	-200.53
532.868	-327.5
533.074	6.31
533.281	225.45
533.487	-218.96
533.694	-282.45
533.9	-165.71
534.107	176.3
534.313	-313.17
534.52	-343.89
534.726	252.07
534.933	440.48
535.139	-399.18
535.345	-372.56
535.552	86.19
535.758	49.32
535.965	-323.41
536.171	-284.5
536.377	243.88
536.584	315.56
536.79	-276.31
536.996	-266.07
537.203	149.67
537.409	141.48
537.615	-280.4
537.821	-178
538.028	155.82
538.234	180.39
538.44	-264.02
538.646	-216.91
538.853	151.72
539.059	-100.18
539.265	51.37
539.471	-485.2
539.677	209.06
539.883	-163.67
540.09	-249.68
540.296	121
540.502	-3.93
540.708	-178
540.914	-104.28
541.12	-313.17
541.326	110.76
541.532	-46.93
541.738	-218.96
541.944	-313.17
542.15	207.02
542.356	-94.04
542.562	-366.42
542.768	-194.39
542.974	510.11
543.18	501.92
543.386	-294.74
543.592	-454.48
543.798	336.04
544.004	282.79
544.21	-354.13
544.415	-155.47
544.621	-1.88
544.827	338.09
545.033	-364.37
545.239	-51.03
545.445	-225.11
545.651	127.14
545.856	-325.46
546.062	-270.16
546.268	-51.03
546.474	-28.5
546.679	-214.87
546.885	-259.92
547.091	-120.66
547.297	510.11
547.502	-231.25
547.708	-352.08
547.914	-184.15
548.119	207.02
548.325	-388.94
548.531	-419.66
548.736	362.66
548.942	-130.9
549.147	-319.31
549.353	-139.09
549.559	366.76
549.764	67.75
549.97	-259.92
550.175	-202.58
550.381	176.3
550.586	-227.15
550.792	-212.82
550.997	-233.3
551.203	192.68
551.408	192.68
551.614	-401.23
551.819	-282.45
552.025	411.81
552.23	434.34
552.435	-403.28
552.641	-100.18
552.846	-157.52
553.052	262.31
553.257	-112.47
553.462	-313.17
553.668	-218.96
553.873	250.02
554.078	-286.54
554.283	-382.8
554.489	-12.12
554.694	-106.32
554.899	-304.98
555.105	-210.77
555.31	49.32
555.515	96.43
555.72	-245.59
555.925	-356.18
556.131	98.47
556.336	-135
556.541	-354.13
556.746	-352.08
556.951	329.89
557.156	325.8
557.361	-186.19
557.567	-141.14
557.772	436.39
557.977	178.34
558.182	-329.55
558.387	-311.12
558.592	-135
558.797	325.8
559.002	-178
559.207	-212.82
559.412	22.7
559.617	440.48
559.822	-292.69
560.027	-374.61
560.232	145.58
560.437	184.49
560.642	-327.5
560.847	-321.36
561.051	10.41
561.256	14.51
561.461	-284.5
561.666	-405.33
561.871	-10.07
562.076	159.91
562.281	-216.91
562.485	-462.67
562.69	145.58
562.895	147.62
563.1	-292.69
563.305	-356.18
563.509	331.94
563.714	594.08
563.919	-331.6
564.123	-327.5
564.328	-83.8
564.533	200.87
564.737	-210.77
564.942	-239.44
565.147	331.94
565.351	503.97
565.556	-206.67
565.761	-161.62
565.965	10.41
566.17	-206.67
566.374	-214.87
566.579	-380.75
566.784	84.14
566.988	-159.57
567.193	-470.86
567.397	-315.22
567.602	-290.64
567.806	12.46
568.011	-290.64
568.215	-259.92
568.42	-1.88
568.624	-89.94
568.828	-280.4
569.033	-227.15
569.237	161.96
569.442	129.19
569.646	-339.79
569.85	-192.34
570.055	-128.85
570.259	2.22
570.463	-96.08
570.668	-249.68
570.872	-22.36
571.076	-40.79
571.281	-190.29
571.485	-231.25
571.689	16.55
571.893	104.62
572.098	-145.24
572.302	-233.3
572.506	129.19
572.71	51.37
572.914	-237.39
573.119	-210.77
573.323	356.52
573.527	268.45
573.731	-300.88
573.935	-429.9
574.139	88.23
574.343	-130.9
574.547	-243.54
574.751	-266.07
574.955	342.18
575.159	270.5
575.364	-304.98
575.568	-378.7
575.772	0.17
575.976	233.64
576.18	-335.7
576.383	-434
576.587	286.89
576.791	149.67
576.995	-456.53
577.199	-526.16
577.403	260.26
577.607	258.21
577.811	-452.43
578.015	-169.81
578.219	22.7
578.422	217.26
578.626	-206.67
578.83	-157.52
579.034	241.83
579.238	53.42
579.442	-390.99
579.645	153.77
579.849	-59.22
580.053	43.18
580.257	-188.24
580.46	-249.68
580.664	170.15
580.868	227.5
581.071	-89.94
581.275	-210.77
581.479	-288.59
581.682	100.52
581.886	-388.94
582.09	-202.58
582.293	241.83
582.497	262.31
582.7	-102.23
582.904	-407.38
583.107	12.46
583.311	-100.18
583.515	-167.76
583.718	-194.39
583.922	80.04
584.125	485.54
584.329	-325.46
584.532	-143.19
584.735	356.52
584.939	172.2
585.142	-456.53
585.346	-436.05
585.549	28.84
585.753	-139.09
585.956	-132.95
586.159	-145.24
586.363	448.68
586.566	147.62
586.769	-296.78
586.973	-399.18
587.176	88.23
587.379	309.41
587.582	-18.26
587.786	-22.36
587.989	-63.32
588.192	600.23
588.395	-223.06
588.599	8.36
588.802	86.19
589.005	241.83
589.208	-255.83
589.411	-243.54
589.615	170.15
589.818	409.76
590.021	-51.03
590.224	-216.91
590.427	202.92
590.63	178.34
590.833	-405.33
591.036	-268.11
591.239	-46.93
591.442	-149.33
591.645	-22.36
591.848	-319.31
592.051	22.7
592.254	196.78
592.457	-200.53
592.66	-227.15
592.863	-120.66
593.066	55.47
593.269	-255.83
593.472	-165.71
593.675	-317.26
593.878	303.27
594.081	-114.52
594.284	-372.56
594.486	196.78
594.689	-30.55
594.892	-173.91
595.095	-247.63
595.298	104.62
595.5	-63.32
595.703	-161.62
595.906	-71.51
596.109	305.32
596.311	204.97
596.514	-468.81
596.717	-218.96
596.92	311.46
597.122	137.38
597.325	-460.62
597.528	-268.11
597.73	278.69
597.933	55.47
598.136	-225.11
598.338	-526.16
598.541	153.77
598.743	280.74
598.946	-231.25
599.148	-214.87
599.351	241.83
599.554	145.58
599.756	-112.47
599.959	-229.2
600.161	305.32
600.363	620.71
600.566	-79.7
600.768	-257.87
600.971	356.52
601.173	198.82
601.376	-235.35
601.578	-178
601.78	137.38
601.983	540.83
602.185	-292.69
602.388	-18.26
602.59	118.95
602.792	-128.85
602.995	-112.47
603.197	-196.43
603.399	215.21
603.601	125.1
603.804	-251.73
604.006	-237.39
604.208	-30.55
604.41	-382.8
604.613	-38.74
604.815	-296.78
605.017	589.99
605.219	-128.85
605.421	39.08
605.623	-235.35
605.826	338.09
606.028	344.23
606.23	-198.48
606.432	-261.97
606.634	405.67
606.836	333.99
607.038	-282.45
607.24	-79.7
607.442	45.23
607.644	-8.02
607.846	-51.03
608.048	-309.07
608.25	362.66
608.452	-116.56
608.654	-210.77
608.856	-397.14
609.058	-77.65
609.26	153.77
609.462	-135
609.664	-210.77
609.866	530.59
610.067	239.78
610.269	-71.51
610.471	-192.34
610.673	-91.99
610.875	141.48
611.077	-390.99
611.278	-274.26
611.48	12.46
611.682	469.16
611.884	-132.95
612.085	-165.71
612.287	-249.68
612.489	284.84
612.69	-374.61
612.892	-175.95
613.094	182.44
613.295	2.22
613.497	-296.78
613.699	-182.1
613.9	352.42
614.102	174.25
614.304	-218.96
614.505	-347.98
614.707	10.41
614.908	-55.12
615.11	-423.76
615.311	-163.67
615.513	172.2
615.714	250.02
615.916	-431.95
616.117	-227.15
616.319	-75.6
616.52	235.69
616.722	-364.37
616.923	-251.73
617.124	288.93
617.326	141.48
617.527	-104.28
617.729	-14.17
617.93	190.63
618.131	184.49
618.333	-210.77
618.534	-147.28
618.735	-206.67
618.937	420
619.138	-436.05
619.339	-362.32
619.54	141.48
619.742	-48.98
619.943	-141.14
620.144	-229.2
620.345	207.02
620.546	227.5
620.748	-354.13
620.949	-216.91
621.15	80.04
621.351	18.6
621.552	-188.24
621.753	-362.32
621.954	-319.31
622.155	454.82
622.356	-403.28
622.558	-118.61
622.759	-26.45
622.96	463.01
623.161	-124.76
623.362	-259.92
623.563	-22.36
623.764	67.75
623.965	-200.53
624.166	-67.41
624.366	-122.71
624.567	151.72
624.768	-528.21
624.969	-321.36
625.17	-38.74
625.371	211.11
625.572	-120.66
625.773	-300.88
625.973	288.93
626.174	135.34
626.375	-147.28
626.576	-128.85
626.777	157.86
626.977	606.37
627.178	-292.69
627.379	-157.52
627.58	-63.32
627.78	-44.88
627.981	-198.48
628.182	-192.34
628.382	231.59
628.583	-311.12
628.784	-329.55
628.984	-53.08
629.185	168.1
629.386	235.69
629.586	-175.95
629.787	-325.46
629.987	110.76
630.188	8.36
630.388	-192.34
630.589	-182.1
630.79	587.94
630.99	-12.12
631.191	-266.07
631.391	-112.47
631.591	155.82
631.792	438.44
631.992	-120.66
632.193	-251.73
632.393	393.38
632.594	14.51
632.794	-264.02
632.994	-145.24
633.195	133.29
633.395	32.94
633.595	-286.54
633.796	0.17
633.996	-61.27
634.196	297.13
634.397	-341.84
634.597	-135
634.797	-135
634.997	354.47
635.198	4.27
635.398	-288.59
635.598	190.63
635.798	387.24
635.998	247.97
636.199	-247.63
636.399	-100.18
636.599	-251.73
636.799	-204.63
636.999	88.23
637.199	106.67
637.399	274.6
637.599	-243.54
637.799	-112.47
637.999	-145.24
638.199	338.09
638.399	-366.42
638.599	-239.44
638.799	215.21
638.999	501.92
639.199	-14.17
639.399	-161.62
639.599	452.77
639.799	-227.15
639.999	-280.4
640.199	-343.89
640.399	155.82
640.599	86.19
640.799	-122.71
640.998	18.6
641.198	356.52
641.398	182.44
641.598	-118.61
641.798	-221.01
641.997	878.75
642.197	55.47
642.397	-143.19
642.597	-124.76
642.796	22.7
642.996	268.45
643.196	-57.17
643.395	-384.85
643.595	223.4
643.795	-331.6
643.994	-147.28
644.194	-112.47
644.394	323.75
644.593	108.71
644.793	-440.14
644.992	-94.04
645.192	125.1
645.392	-347.98
645.591	-91.99
645.791	-165.71
645.99	153.77
646.19	-14.17
646.389	-149.33
646.589	-102.23
646.788	237.74
646.987	186.54
647.187	63.66
647.386	-55.12
647.586	10.41
647.785	196.78
647.984	-71.51
648.184	-96.08
648.383	-128.85
648.582	-44.88
648.782	-182.1
648.981	-46.93
649.18	-98.13
649.38	41.13
649.579	-145.24
649.778	-292.69
649.977	164.01
650.177	61.61
650.376	-302.93
650.575	-304.98
650.774	469.16
650.973	-153.43
651.173	-323.41
651.372	-137.04
651.571	159.91
651.77	260.26
651.969	-202.58
652.168	-87.89
652.367	-294.74
652.566	219.3
652.765	-239.44
652.964	96.43
653.163	471.2
653.362	2.22
653.561	-233.3
653.76	-241.49
653.959	-96.08
654.158	204.97
654.357	106.67
654.556	-188.24
654.755	133.29
654.954	190.63
655.153	-143.19
655.352	-153.43
655.551	288.93
655.749	-196.43
655.948	-96.08
656.147	-98.13
656.346	149.67
656.545	-24.4
656.743	-112.47
656.942	-73.56
657.141	16.55
657.34	-218.96
657.538	-141.14
657.737	-231.25
657.936	-128.85
658.135	145.58
658.333	-241.49
658.532	-114.52
658.731	430.24
658.929	299.17
659.128	125.1
659.326	-196.43
659.525	303.27
659.724	112.81
659.922	-444.24
660.121	-384.85
660.319	147.62
660.518	-67.41
660.716	-298.83
660.915	-229.2
661.113	381.09
661.312	-245.59
661.51	-73.56
661.709	-266.07
661.907	237.74
662.105	477.35
662.304	-169.81
662.502	-104.28
662.701	364.71
662.899	-1.88
663.097	88.23
663.296	-372.56
663.494	268.45
663.692	331.94
663.891	-239.44
664.089	-300.88
664.287	34.99
664.485	346.28
664.684	-243.54
664.882	-53.08
665.08	84.14
665.278	125.1
665.476	-378.7
665.675	63.66
665.873	477.35
666.071	215.21
666.269	-284.5
666.467	-55.12
666.665	123.05
666.863	-3.93
667.061	-71.51
667.259	-190.29
667.457	55.47
667.655	137.38
667.853	-317.26
668.051	-110.42
668.249	-89.94
668.447	168.1
668.645	-325.46
668.843	34.99
669.041	157.86
669.239	-91.99
669.437	-20.31
669.635	-104.28
669.833	-94.04
670.031	338.09
670.229	-114.52
670.426	-108.37
670.624	-63.32
670.822	-135
671.02	-216.91
671.218	-137.04
671.415	-206.67
671.613	41.13
671.811	-73.56
672.009	-188.24
672.206	198.82
672.404	121
672.602	18.6
672.799	-139.09
672.997	57.51
673.195	338.09
673.392	-87.89
673.59	-380.75
673.788	235.69
673.985	-456.53
674.183	-51.03
674.38	-139.09
674.578	243.88
674.775	-153.43
674.973	-321.36
675.17	-247.63
675.368	420
675.565	178.34
675.763	-286.54
675.96	-231.25
676.158	274.6
676.355	34.99
676.553	-173.91
676.75	-102.23
676.947	24.75
677.145	-3.93
677.342	-153.43
677.539	-32.6
677.737	127.14
677.934	614.56
678.131	-14.17
678.329	-204.63
678.526	374.95
678.723	221.35
678.92	-73.56
679.118	-241.49
679.315	-186.19
679.512	338.09
679.709	-214.87
679.906	-94.04
680.104	356.52
680.301	77.99
680.498	-227.15
680.695	-284.5
680.892	-128.85
681.089	-137.04
681.286	-98.13
681.483	-325.46
681.68	243.88
681.877	194.73
682.075	-114.52
682.272	88.23
682.469	139.43
682.665	20.65
682.862	-239.44
683.059	-354.13
683.256	133.29
683.453	51.37
683.65	-53.08
683.847	-149.33
684.044	24.75
684.241	-132.95
684.438	-71.51
684.635	-280.4
684.831	475.3
685.028	456.87
685.225	-122.71
685.422	22.7
685.619	43.18
685.815	143.53
686.012	-51.03
686.209	-145.24
686.405	-149.33
686.602	229.54
686.799	-235.35
686.996	-188.24
687.192	-198.48
687.389	473.25
687.586	-163.67
687.782	-188.24
687.979	309.41
688.175	327.85
688.372	-69.46
688.568	-182.1
688.765	-32.6
688.962	381.09
689.158	-28.5
689.355	-257.87
689.551	247.97
689.748	-137.04
689.944	-65.36
690.14	-231.25
690.337	268.45
690.533	-71.51
690.73	37.03
690.926	-20.31
691.123	213.16
691.319	-14.17
691.515	-419.66
691.712	12.46
691.908	252.07
692.104	10.41
692.301	-59.22
692.497	-290.64
692.693	299.17
692.889	166.06
693.086	-3.93
693.282	-366.42
693.478	84.14
693.674	475.3
693.87	-145.24
694.067	-313.17
694.263	182.44
694.459	37.03
694.655	-65.36
694.851	-40.79
695.047	286.89
695.243	170.15
695.439	-14.17
695.635	-218.96
695.831	288.93
696.027	133.29
696.224	-137.04
696.42	247.97
696.615	403.62
696.811	178.34
697.007	-325.46
697.203	-159.57
697.399	135.34
697.595	374.95
697.791	-143.19
697.987	28.84
698.183	-169.81
698.379	-118.61
698.575	-173.91
698.77	-112.47
698.966	223.4
699.162	313.51
699.358	-61.27
699.554	-124.76
699.749	151.72
699.945	342.18
700.141	-18.26
700.337	-1.88
700.532	51.37
700.728	-153.43
700.924	-141.14
701.119	-249.68
701.315	256.17
701.511	20.65
701.706	-87.89
701.902	-304.98
702.097	65.71
702.293	237.74
702.489	-128.85
702.684	-202.58
702.88	2.22
703.075	-16.21
703.271	-212.82
703.466	-231.25
703.662	143.53
703.857	268.45
704.053	-188.24
704.248	-221.01
704.443	256.17
704.639	166.06
704.834	-79.7
705.03	-192.34
705.225	247.97
705.42	393.38
705.616	-51.03
705.811	-276.31
706.006	-5.97
706.202	26.79
706.397	-67.41
706.592	-282.45
706.787	194.73
706.983	114.86
707.178	102.57
707.373	-79.7
707.568	145.58
707.763	366.76
707.959	-208.72
708.154	-210.77
708.349	104.62
708.544	170.15
708.739	57.51
708.934	-223.06
709.129	227.5
709.324	272.55
709.519	-212.82
709.714	-194.39
709.909	377
710.104	239.78
710.299	-188.24
710.494	-75.6
710.689	231.59
710.884	112.81
711.079	-40.79
711.274	125.1
711.469	153.77
711.664	180.39
711.859	-202.58
712.054	-36.69
712.249	213.16
712.443	350.37
712.638	-276.31
712.833	-130.9
713.028	108.71
713.223	-20.31
713.417	168.1
713.612	-227.15
713.807	278.69
714.002	710.82
714.196	45.23
714.391	-186.19
714.586	338.09
714.78	116.9
714.975	-89.94
715.17	-112.47
715.364	-91.99
715.559	338.09
715.754	-382.8
715.948	-190.29
716.143	542.88
716.337	221.35
716.532	133.29
716.726	-143.19
716.921	223.4
717.115	493.73
717.31	-218.96
717.504	377
717.699	-57.17
717.893	190.63
718.088	-237.39
718.282	-259.92
718.476	104.62
718.671	231.59
718.865	-118.61
719.059	-212.82
719.254	102.57
719.448	428.2
719.642	1210.52
719.837	-329.55
720.031	264.36
720.225	321.7
720.419	-69.46
720.614	-198.48
720.808	207.02
721.002	41.13
721.196	-190.29
721.39	-106.32
721.585	379.04
721.779	186.54
721.973	-55.12
722.167	-284.5
722.361	123.05
722.555	325.8
722.749	-135
722.943	-194.39
723.137	-116.56
723.331	192.68
723.525	-139.09
723.719	-182.1
723.913	420
724.107	368.81
724.301	-288.59
724.495	-79.7
724.689	501.92
724.883	446.63
725.077	-214.87
725.271	-120.66
725.465	360.61
725.659	137.38
725.853	-73.56
726.046	-182.1
726.24	2.22
726.434	280.74
726.628	-135
726.822	-12.12
727.015	362.66
727.209	422.05
727.403	-96.08
727.596	-216.91
727.79	313.51
727.984	340.13
728.177	-130.9
728.371	-87.89
728.565	336.04
728.758	-149.33
728.952	-284.5
729.146	-145.24
729.339	297.13
729.533	59.56
729.726	-128.85
729.92	-194.39
730.113	432.29
730.307	190.63
730.5	-137.04
730.694	-194.39
730.887	-10.07
731.081	194.73
731.274	-255.83
731.468	-165.71
731.661	43.18
731.854	-30.55
732.048	-77.65
732.241	-237.39
732.435	-89.94
732.628	149.67
732.821	-85.84
733.014	-251.73
733.208	-175.95
733.401	207.02
733.594	-20.31
733.788	-126.8
733.981	440.48
734.174	161.96
734.367	-198.48
734.56	12.46
734.754	307.37
734.947	118.95
735.14	-235.35
735.333	-171.86
735.526	264.36
735.719	-98.13
735.912	-259.92
736.105	-208.72
736.298	110.76
736.491	-46.93
736.684	-235.35
736.877	-161.62
737.07	106.67
737.263	397.48
737.456	-268.11
737.649	-239.44
737.842	-110.42
738.035	102.57
738.228	-91.99
738.421	-30.55
738.614	381.09
738.807	299.17
739	-331.6
739.192	-247.63
739.385	168.1
739.578	260.26
739.771	75.95
739.964	-173.91
740.156	188.58
740.349	61.61
740.542	-3.93
740.735	-290.64
740.927	-198.48
741.12	-44.88
741.313	-296.78
741.505	-22.36
741.698	186.54
741.891	141.48
742.083	-1.88
742.276	-202.58
742.468	59.56
742.661	106.67
742.854	-141.14
743.046	-223.06
743.239	424.1
743.431	-3.93
743.624	-38.74
743.816	-343.89
744.009	10.41
744.201	235.69
744.393	-8.02
744.586	-249.68
744.778	340.13
744.971	61.61
745.163	22.7
745.355	-10.07
745.548	30.89
745.74	0.17
745.932	-34.64
746.125	-100.18
746.317	624.8
746.509	106.67
746.702	-210.77
746.894	-104.28
747.086	204.97
747.278	290.98
747.471	-42.84
747.663	-116.56
747.855	141.48
748.047	506.02
748.239	-141.14
748.431	-149.33
748.623	377
748.815	460.96
749.008	-175.95
749.2	-280.4
749.392	149.67
749.584	223.4
749.776	-114.52
749.968	-34.64
750.16	473.25
750.352	41.13
750.544	-75.6
750.736	-204.63
750.928	182.44
751.12	86.19
751.311	-104.28
751.503	-73.56
751.695	157.86
751.887	88.23
752.079	-390.99
752.271	-149.33
752.463	815.26
752.654	288.93
752.846	-63.32
753.038	-173.91
753.23	-79.7
753.421	247.97
753.613	-87.89
753.805	57.51
753.997	262.31
754.188	344.23
754.38	-253.78
754.572	-53.08
754.763	30.89
754.955	159.91
755.146	-96.08
755.338	-38.74
755.53	184.49
755.721	43.18
755.913	-274.26
756.104	-190.29
756.296	30.89
756.487	159.91
756.679	-163.67
756.87	-128.85
757.062	-59.22
757.253	247.97
757.445	-161.62
757.636	-44.88
757.827	63.66
758.019	751.78
758.21	-257.87
758.401	-167.76
758.593	612.51
758.784	338.09
758.975	-286.54
759.167	-304.98
759.358	43.18
759.549	198.82
759.74	-165.71
759.932	-155.47
760.123	469.16
760.314	-26.45
760.505	-24.4
760.696	-218.96
760.888	483.49
761.079	26.79
761.27	-259.92
761.461	-300.88
761.652	432.29
761.843	30.89
762.034	-112.47
762.225	133.29
762.416	59.56
762.607	129.19
762.798	-128.85
762.989	-286.54
763.18	739.49
763.371	-32.6
763.562	-186.19
763.753	-186.19
763.944	295.08
764.135	360.61
764.326	-18.26
764.517	-175.95
764.708	157.86
764.899	174.25
765.089	-175.95
765.28	-382.8
765.471	170.15
765.662	231.59
765.853	-143.19
766.043	-319.31
766.234	372.9
766.425	364.71
766.615	-198.48
766.806	-292.69
766.997	331.94
767.187	194.73
767.378	-210.77
767.569	-307.02
767.759	264.36
767.95	184.49
768.141	-67.41
768.331	-292.69
768.522	112.81
768.712	299.17
768.903	-212.82
769.093	-227.15
769.284	530.59
769.474	184.49
769.665	-208.72
769.855	-302.93
770.046	258.21
770.236	2.22
770.426	-46.93
770.617	-274.26
770.807	213.16
770.998	67.75
771.188	51.37
771.378	-206.67
771.569	256.17
771.759	254.12
771.949	-235.35
772.139	-421.71
772.33	143.53
772.52	381.09
772.71	-196.43
772.9	-251.73
773.09	512.16
773.281	360.61
773.471	-202.58
773.661	-198.48
773.851	393.38
774.041	-69.46
774.231	-249.68
774.421	-83.8
774.611	428.2
774.802	184.49
774.992	-139.09
775.182	-225.11
775.372	116.9
775.562	243.88
775.752	-188.24
775.942	-143.19
776.131	395.43
776.321	290.98
776.511	-145.24
776.701	-235.35
776.891	344.23
777.081	-137.04
777.271	-106.32
777.461	-276.31
777.651	225.45
777.84	366.76
778.03	-100.18
778.22	-141.14
778.41	370.85
778.599	-116.56
778.789	-167.76
778.979	-276.31
779.169	211.11
779.358	127.14
779.548	82.09
779.738	-393.04
779.927	186.54
780.117	-114.52
780.307	-91.99
780.496	-370.51
780.686	211.11
780.875	532.64
781.065	-165.71
781.254	-184.15
781.444	116.9
781.633	145.58
781.823	-223.06
782.012	-292.69
782.202	-24.4
782.391	139.43
782.581	-313.17
782.77	-42.84
782.96	315.56
783.149	55.47
783.338	-204.63
783.528	-427.85
783.717	333.99
783.906	354.47
784.096	-85.84
784.285	-290.64
784.474	-3.93
784.663	-161.62
784.853	-130.9
785.042	-202.58
785.231	-24.4
785.42	342.18
785.61	-81.75
785.799	-309.07
785.988	-14.17
786.177	80.04
786.366	-161.62
786.555	-65.36
786.744	207.02
786.933	2.22
787.122	-253.78
787.312	-300.88
787.501	-57.17
787.69	174.25
787.879	-235.35
788.068	-249.68
788.257	-108.37
788.445	-91.99
788.634	-200.53
788.823	-274.26
789.012	710.82
789.201	424.1
789.39	-161.62
789.579	-210.77
789.768	2.22
789.957	100.52
790.145	-280.4
790.334	-440.14
790.523	4.27
790.712	6.31
790.9	-196.43
791.089	-313.17
791.278	323.75
791.467	145.58
791.655	59.56
791.844	264.36
792.033	-114.52
792.221	-1.88
792.41	-75.6
792.599	-333.65
792.787	235.69
792.976	274.6
793.164	-386.9
793.353	-229.2
793.541	241.83
793.73	139.43
793.918	-194.39
794.107	-169.81
794.295	32.94
794.484	71.85
794.672	-141.14
794.861	-143.19
795.049	166.06
795.238	501.92
795.426	-313.17
795.614	-73.56
795.803	135.34
795.991	510.11
796.179	-137.04
796.368	-206.67
796.556	393.38
796.744	-128.85
796.932	-255.83
797.121	-255.83
797.309	2.22
797.497	149.67
797.685	-167.76
797.874	-210.77
798.062	82.09
798.25	405.67
798.438	-313.17
798.626	-284.5
798.814	153.77
799.002	596.13
799.19	-42.84
799.378	-151.38
799.566	264.36
799.755	397.48
799.943	-42.84
800.131	-311.12
800.318	104.62
800.506	133.29
800.694	-175.95
800.882	-116.56
801.07	311.46
801.258	75.95
801.446	-255.83
801.634	-178
801.822	-5.97
802.01	51.37
802.197	-239.44
802.385	-87.89
802.573	82.09
802.761	-112.47
802.949	-153.43
803.136	-294.74
803.324	301.22
803.512	121
803.699	-128.85
803.887	-350.03
804.075	288.93
804.262	-51.03
804.45	-296.78
804.638	-100.18
804.825	-184.15
805.013	-108.37
805.201	-198.48
805.388	-378.7
805.576	-91.99
805.763	477.35
805.951	-186.19
806.138	-48.98
806.326	503.97
806.513	250.02
806.701	-175.95
806.888	-255.83
807.075	186.54
807.263	540.83
807.45	-370.51
807.638	14.51
807.825	534.69
808.012	338.09
808.2	-214.87
808.387	28.84
808.574	118.95
808.761	454.82
808.949	-259.92
809.136	-100.18
809.323	-46.93
809.51	-46.93
809.698	112.81
809.885	-42.84
810.072	190.63
810.259	309.41
810.446	-112.47
810.633	-251.73
810.82	241.83
811.008	405.67
811.195	-69.46
811.382	-137.04
811.569	6.31
811.756	-233.3
811.943	-216.91
812.13	-192.34
812.317	-81.75
812.504	-26.45
812.691	-106.32
812.878	-96.08
813.064	307.37
813.251	6.31
813.438	-231.25
813.625	-1.88
813.812	-18.26
813.999	2.22
814.186	-114.52
814.372	-126.8
814.559	131.24
814.746	448.68
814.933	-112.47
815.12	-12.12
815.306	-3.93
815.493	-83.8
815.68	-282.45
815.866	-91.99
816.053	329.89
816.24	600.23
816.426	-118.61
816.613	-337.74
816.799	266.41
816.986	338.09
817.173	-233.3
817.359	-214.87
817.546	32.94
817.732	-218.96
817.919	-438.09
818.105	-145.24
818.292	-55.12
818.478	129.19
818.665	-30.55
818.851	-284.5
819.037	676
819.224	104.62
819.41	-294.74
819.597	-235.35
819.783	346.28
819.969	272.55
820.156	-116.56
820.342	-354.13
820.528	749.73
820.714	92.33
820.901	125.1
821.087	-192.34
821.273	471.2
821.459	6.31
821.646	-284.5
821.832	-294.74
822.018	73.9
822.204	84.14
822.39	-161.62
822.576	-364.37
822.762	186.54
822.948	59.56
823.134	57.51
823.32	-143.19
823.507	-141.14
823.693	102.57
823.879	161.96
824.065	-173.91
824.25	108.71
824.436	-231.25
824.622	-120.66
824.808	-278.35
824.994	-59.22
825.18	-135
825.366	-290.64
825.552	-307.02
825.738	-28.5
825.923	276.65
826.109	-55.12
826.295	-216.91
826.481	-34.64
826.667	-71.51
826.852	-137.04
827.038	-200.53
827.224	317.61
827.409	460.96
827.595	-317.26
827.781	-26.45
827.966	340.13
828.152	288.93
828.338	-137.04
828.523	-300.88
828.709	-180.05
828.894	323.75
829.08	-178
829.266	-264.02
829.451	-157.52
829.637	276.65
829.822	-120.66
830.008	-231.25
830.193	239.78
830.378	422.05
830.564	-141.14
830.749	-282.45
830.935	262.31
831.12	202.92
831.305	-221.01
831.491	-83.8
831.676	-149.33
831.861	247.97
832.047	-139.09
832.232	-370.51
832.417	368.81
832.602	73.9
832.788	-214.87
832.973	-204.63
833.158	18.6
833.343	161.96
833.528	-61.27
833.714	-77.65
833.899	198.82
834.084	501.92
834.269	59.56
834.454	-198.48
834.639	258.21
834.824	39.08
835.009	-55.12
835.194	-36.69
835.379	250.02
835.564	506.02
835.749	-42.84
835.934	-304.98
836.119	329.89
836.304	116.9
836.489	-235.35
836.674	67.75
836.859	-178
837.044	460.96
837.228	-106.32
837.413	-321.36
837.598	116.9
837.783	268.45
837.968	-221.01
838.152	-270.16
838.337	-382.8
838.522	346.28
838.707	235.69
838.891	0.17
839.076	178.34
839.261	350.37
839.445	-272.21
839.63	-67.41
839.815	510.11
839.999	57.51
840.184	-208.72
840.368	-124.76
840.553	274.6
840.737	315.56
840.922	-204.63
841.106	-253.78
841.291	-128.85
841.475	207.02
841.66	-137.04
841.844	-67.41
842.029	751.78
842.213	-194.39
842.397	-89.94
842.582	-366.42
842.766	282.79
842.951	331.94
843.135	-141.14
843.319	-102.23
843.504	157.86
843.688	389.28
843.872	-309.07
844.056	-194.39
844.241	207.02
844.425	75.95
844.609	8.36
844.793	-374.61
844.977	338.09
845.161	215.21
845.346	-290.64
845.53	-194.39
845.714	59.56
845.898	530.59
846.082	-362.32
846.266	-218.96
846.45	96.43
846.634	161.96
846.818	-241.49
847.002	-40.79
847.186	239.78
847.37	-77.65
847.554	-227.15
847.738	-51.03
847.922	184.49
848.106	137.38
848.29	-331.6
848.473	-169.81
848.657	297.13
848.841	14.51
849.025	-120.66
849.209	-347.98
849.392	266.41
849.576	55.47
849.76	-427.85
849.944	-91.99
850.127	415.91
850.311	-137.04
850.495	-169.81
850.678	-341.84
850.862	397.48
851.046	501.92
851.229	67.75
851.413	-249.68
851.596	102.57
851.78	71.85
851.964	12.46
852.147	-165.71
852.331	884.89
852.514	338.09
852.698	-89.94
852.881	-307.02
853.065	368.81
853.248	63.66
853.431	-63.32
853.615	-22.36
853.798	606.37
853.982	153.77
854.165	22.7
854.348	-292.69
854.532	-120.66
854.715	-85.84
854.898	-98.13
855.081	-235.35
855.265	465.06
855.448	456.87
855.631	-288.59
855.814	-96.08
855.997	323.75
856.181	116.9
856.364	-120.66
856.547	-255.83
856.73	153.77
856.913	256.17
857.096	-255.83
857.279	-59.22
857.462	-135
857.645	266.41
857.828	28.84
858.011	-91.99
858.194	-3.93
858.377	325.8
858.56	-329.55
858.743	-132.95
858.926	-128.85
859.109	174.25
859.292	-163.67
859.475	-331.6
859.658	430.24
859.841	198.82
860.023	-296.78
860.206	-169.81
860.389	116.9
860.572	413.86
860.755	-251.73
860.937	-165.71
861.12	69.8
861.303	88.23
861.486	-30.55
861.668	-186.19
861.851	309.41
862.034	125.1
862.216	-22.36
862.399	-268.11
862.581	198.82
862.764	557.22
862.947	-44.88
863.129	-223.06
863.312	-218.96
863.494	473.25
863.677	182.44
863.859	-294.74
864.042	393.38
864.224	407.72
864.406	-67.41
864.589	-337.74
864.771	219.3
864.954	-124.76
865.136	-194.39
865.318	-272.21
865.501	346.28
865.683	-241.49
865.865	-100.18
866.048	-178
866.23	198.82
866.412	28.84
866.594	-345.94
866.777	-57.17
866.959	311.46
867.141	-1.88
867.323	100.52
867.505	-30.55
867.687	151.72
867.869	155.82
868.052	-149.33
868.234	-266.07
868.416	4.27
868.598	194.73
868.78	-110.42
868.962	-206.67
869.144	411.81
869.326	331.94
869.508	-235.35
869.69	-282.45
869.872	-149.33
870.054	387.24
870.236	-280.4
870.417	-214.87
870.599	77.99
870.781	501.92
870.963	-20.31
871.145	-278.35
871.327	-223.06
871.508	245.93
871.69	-214.87
871.872	-149.33
872.054	-20.31
872.235	245.93
872.417	-167.76
872.599	-231.25
872.78	479.4
872.962	84.14
873.144	-280.4
873.325	-132.95
873.507	407.72
873.689	166.06
873.87	-202.58
874.052	-73.56
874.233	41.13
874.415	391.33
874.596	-186.19
874.778	-282.45
874.959	125.1
875.141	360.61
875.322	-178
875.503	-221.01
875.685	131.24
875.866	-268.11
876.048	-221.01
876.229	-300.88
876.41	125.1
876.592	159.91
876.773	-261.97
876.954	-352.08
877.136	452.77
877.317	-18.26
877.498	-376.66
877.679	-208.72
877.86	125.1
878.042	41.13
878.223	-261.97
878.404	129.19
878.585	141.48
878.766	553.12
878.947	106.67
879.128	-53.08
879.309	247.97
879.49	299.17
879.672	-91.99
879.853	-100.18
880.034	-71.51
880.215	12.46
880.396	-32.6
880.576	-153.43
880.757	-102.23
880.938	372.9
881.119	-350.03
881.3	-200.53
881.481	-112.47
881.662	893.09
881.843	-331.6
882.023	-352.08
882.204	172.2
882.385	71.85
882.566	-173.91
882.747	-309.07
882.927	86.19
883.108	108.71
883.289	-235.35
883.469	37.03
883.65	-67.41
883.831	30.89
884.011	-5.97
884.192	-194.39
884.373	276.65
884.553	149.67
884.734	-83.8
884.914	92.33
885.095	663.71
885.275	555.17
885.456	153.77
885.636	-341.84
885.817	0.17
885.997	14.51
886.178	-255.83
886.358	-184.15
886.538	102.57
886.719	909.47
886.899	-257.87
887.08	-122.71
887.26	387.24
887.44	-71.51
887.621	-292.69
887.801	-104.28
887.981	530.59
888.161	184.49
888.342	-210.77
888.522	-175.95
888.702	194.73
888.882	356.52
889.062	-75.6
889.242	-417.61
889.423	370.85
889.603	233.64
889.783	-120.66
889.963	-204.63
890.143	252.07
890.323	405.67
890.503	-214.87
890.683	-126.8
890.863	237.74
891.043	145.58
891.223	-65.36
891.403	-26.45
891.583	80.04
891.763	123.05
891.943	-169.81
892.122	-229.2
892.302	28.84
892.482	49.32
892.662	-12.12
892.842	-137.04
893.022	166.06
893.201	-87.89
893.381	-55.12
893.561	-241.49
893.741	235.69
893.92	194.73
894.1	-53.08
894.28	-83.8
894.459	262.31
894.639	200.87
894.819	-151.38
894.998	-63.32
895.178	131.24
895.357	176.3
895.537	-190.29
895.716	-235.35
895.896	-18.26
896.075	397.48
896.255	-149.33
896.434	-386.9
896.614	311.46
896.793	383.14
896.973	-85.84
897.152	-53.08
897.331	266.41
897.511	276.65
897.69	-315.22
897.87	-132.95
898.049	225.45
898.228	43.18
898.407	4.27
898.587	10.41
898.766	0.17
898.945	305.32
899.124	86.19
899.304	-114.52
899.483	135.34
899.662	596.13
899.841	-173.91
900.02	-145.24
900.199	346.28
900.378	65.71
900.557	-304.98
900.737	-227.15
900.916	215.21
901.095	282.79
901.274	127.14
901.453	-253.78
901.632	-163.67
901.811	-157.52
901.989	-216.91
902.168	-284.5
902.347	202.92
902.526	-114.52
902.705	-83.8
902.884	-106.32
903.063	477.35
903.242	444.58
903.42	-257.87
903.599	-48.98
903.778	333.99
903.957	510.11
904.135	-63.32
904.314	-96.08
904.493	147.62
904.672	270.5
904.85	-71.51
905.029	-178
905.207	166.06
905.386	880.8
905.565	-292.69
905.743	-159.57
905.922	12.46
906.1	356.52
906.279	-173.91
906.457	-202.58
906.636	45.23
906.814	-10.07
906.993	-161.62
907.171	-198.48
907.35	299.17
907.528	293.03
907.707	96.43
907.885	-261.97
908.063	493.73
908.242	-94.04
908.42	-137.04
908.598	-429.9
908.777	299.17
908.955	41.13
909.133	77.99
909.311	-227.15
909.49	-32.6
909.668	125.1
909.846	-137.04
910.024	-397.14
910.202	106.67
910.38	182.44
910.559	-356.18
910.737	-194.39
910.915	157.86
911.093	194.73
911.271	-69.46
911.449	16.55
911.627	303.27
911.805	620.71
911.983	-40.79
912.161	-116.56
912.339	241.83
912.517	444.58
912.695	55.47
912.872	-135
913.05	-26.45
913.228	256.17
913.406	-94.04
913.584	-206.67
913.762	268.45
913.939	-110.42
914.117	-188.24
914.295	-218.96
914.473	188.58
914.65	149.67
914.828	-110.42
915.006	-208.72
915.184	-116.56
915.361	262.31
915.539	-24.4
915.716	47.27
915.894	215.21
916.072	274.6
916.249	110.76
916.427	53.42
916.604	-251.73
916.782	231.59
916.959	-214.87
917.137	-67.41
917.314	190.63
917.492	159.91
917.669	-71.51
917.847	-16.21
918.024	196.78
918.201	-18.26
918.379	-36.69
918.556	-112.47
918.733	286.89
918.911	34.99
919.088	59.56
919.265	-171.86
919.442	194.73
919.62	125.1
919.797	-278.35
919.974	-184.15
920.151	219.3
920.328	184.49
920.506	-132.95
920.683	92.33
920.86	-145.24
921.037	-20.31
921.214	-20.31
921.391	-169.81
921.568	411.81
921.745	-67.41
921.922	-71.51
922.099	-274.26
922.276	413.86
922.453	247.97
922.63	-227.15
922.807	266.41
922.984	170.15
923.161	26.79
923.338	-110.42
923.514	-128.85
923.691	100.52
923.868	327.85
924.045	-73.56
924.222	-235.35
924.399	176.3
924.575	356.52
924.752	-18.26
924.929	14.51
925.105	239.78
925.282	-5.97
925.459	-79.7
925.635	-59.22
925.812	161.96
925.989	69.8
926.165	-30.55
926.342	-249.68
926.518	-151.38
926.695	186.54
926.871	-122.71
927.048	-249.68
927.224	381.09
927.401	57.51
927.577	-34.64
927.754	-155.47
927.93	333.99
928.107	329.89
928.283	-155.47
928.459	51.37
928.636	221.35
928.812	118.95
928.988	-182.1
929.165	-286.54
929.341	53.42
929.517	75.95
929.693	233.64
929.87	-284.5
930.046	305.32
930.222	26.79
930.398	-223.06
930.574	61.61
930.751	157.86
930.927	-65.36
931.103	-104.28
931.279	-71.51
931.455	-32.6
931.631	176.3
931.807	-235.35
931.983	-278.35
932.159	-216.91
932.335	147.62
932.511	-79.7
932.687	-151.38
932.863	336.04
933.039	174.25
933.215	-202.58
933.391	-276.31
933.566	114.86
933.742	98.47
933.918	-42.84
934.094	-264.02
934.27	184.49
934.445	178.34
934.621	-14.17
934.797	-141.14
934.973	313.51
935.148	215.21
935.324	-151.38
935.5	-343.89
935.675	422.05
935.851	202.92
936.027	-87.89
936.202	14.51
936.378	250.02
936.553	139.43
936.729	309.41
936.904	-106.32
937.08	-110.42
937.255	-26.45
937.431	-67.41
937.606	-239.44
937.782	20.65
937.957	135.34
938.133	22.7
938.308	-198.48
938.483	84.14
938.659	-79.7
938.834	-63.32
939.009	-206.67
939.185	57.51
939.36	-57.17
939.535	-325.46
939.71	47.27
939.886	393.38
940.061	342.18
940.236	92.33
940.411	-120.66
940.586	223.4
940.761	297.13
940.937	-79.7
941.112	-192.34
941.287	157.86
941.462	110.76
941.637	-307.02
941.812	-149.33
941.987	198.82
942.162	139.43
942.337	-22.36
942.512	-94.04
942.687	321.7
942.862	344.23
943.037	-251.73
943.212	-364.37
943.386	-16.21
943.561	123.05
943.736	71.85
943.911	141.48
944.086	305.32
944.26	178.34
944.435	-71.51
944.61	14.51
944.785	432.29
944.959	542.88
945.134	-75.6
945.309	-153.43
945.483	20.65
945.658	362.66
945.833	-350.03
946.007	-304.98
946.182	516.26
946.357	-135
946.531	-184.15
946.706	-173.91
946.88	-315.22
947.055	202.92
947.229	-118.61
947.404	-198.48
947.578	262.31
947.752	41.13
947.927	-309.07
948.101	-274.26
948.276	73.9
948.45	174.25
948.624	86.19
948.799	-155.47
948.973	194.73
949.147	-192.34
949.321	-141.14
949.496	-214.87
949.67	333.99
949.844	55.47
950.018	-32.6
950.193	-126.8
950.367	567.46
950.541	129.19
950.715	-18.26
950.889	53.42
951.063	-89.94
951.237	174.25
951.411	-341.84
951.585	-337.74
951.759	247.97
951.933	24.75
952.107	-167.76
952.281	-38.74
952.455	350.37
952.629	336.04
952.803	-208.72
952.977	-225.11
953.151	247.97
953.325	262.31
953.499	-36.69
953.672	-317.26
953.846	-143.19
954.02	34.99
954.194	-296.78
954.368	-210.77
954.541	207.02
954.715	-55.12
954.889	-26.45
955.062	-272.21
955.236	92.33
955.41	-5.97
955.583	-122.71
955.757	-313.17
955.93	-38.74
956.104	-157.52
956.278	-145.24
956.451	-180.05
956.625	137.38
956.798	481.44
956.972	55.47
957.145	-288.59
957.319	63.66
957.492	4.27
957.665	-77.65
957.839	-198.48
958.012	125.1
958.185	-38.74
958.359	-141.14
958.532	-12.12
958.705	264.36
958.879	262.31
959.052	-141.14
959.225	-311.12
959.398	37.03
959.572	127.14
959.745	-227.15
959.918	-165.71
960.091	18.6
960.264	118.95
960.438	-276.31
960.611	-253.78
960.784	235.69
960.957	-96.08
961.13	170.15
961.303	-218.96
961.476	-5.97
961.649	233.64
961.822	-239.44
961.995	-106.32
962.168	164.01
962.341	71.85
962.514	-227.15
962.686	-223.06
962.859	114.86
963.032	149.67
963.205	-229.2
963.378	-231.25
963.551	129.19
963.723	102.57
963.896	-8.02
964.069	-3.93
964.242	112.81
964.414	211.11
964.587	-120.66
964.76	-104.28
964.932	121
965.105	125.1
965.278	-137.04
965.45	-218.96
965.623	123.05
965.795	151.72
965.968	-116.56
966.14	-104.28
966.313	22.7
966.485	53.42
966.658	-110.42
966.83	-202.58
967.003	286.89
967.175	262.31
967.348	-208.72
967.52	-120.66
967.692	407.72
967.865	133.29
968.037	-79.7
968.209	116.9
968.382	10.41
968.554	245.93
968.726	-128.85
968.898	-132.95
969.071	51.37
969.243	178.34
969.415	-145.24
969.587	-130.9
969.759	557.22
969.932	235.69
970.104	-120.66
970.276	-382.8
970.448	-48.98
970.62	-89.94
970.792	-24.4
970.964	-124.76
971.136	512.16
971.308	116.9
971.48	-210.77
971.652	-169.81
971.824	401.57
971.996	-1.88
972.168	-108.37
972.339	-124.76
972.511	260.26
972.683	18.6
972.855	59.56
973.027	-210.77
973.199	168.1
973.37	207.02
973.542	12.46
973.714	-5.97
973.886	55.47
974.057	323.75
974.229	-288.59
974.401	-180.05
974.572	-128.85
974.744	-352.08
974.915	-274.26
975.087	-204.63
975.259	424.1
975.43	-34.64
975.602	-171.86
975.773	-218.96
975.945	-85.84
976.116	321.7
976.288	-210.77
976.459	-5.97
976.63	-20.31
976.802	174.25
976.973	-165.71
977.145	-96.08
977.316	467.11
977.487	379.04
977.659	-46.93
977.83	-114.52
978.001	381.09
978.172	102.57
978.344	-153.43
978.515	-198.48
978.686	12.46
978.857	342.18
979.028	-161.62
979.2	-337.74
979.371	395.43
979.542	73.9
979.713	-67.41
979.884	-485.2
980.055	-128.85
980.226	-18.26
980.397	-145.24
980.568	-292.69
980.739	356.52
980.91	-12.12
981.081	96.43
981.252	-225.11
981.423	192.68
981.594	327.85
981.765	-253.78
981.936	-91.99
982.106	86.19
982.277	383.14
982.448	-221.01
982.619	63.66
982.79	41.13
982.96	379.04
983.131	-46.93
983.302	-341.84
983.472	-10.07
983.643	168.1
983.814	-71.51
983.984	-178
984.155	14.51
984.326	342.18
984.496	-63.32
984.667	-175.95
984.837	-57.17
985.008	360.61
985.178	75.95
985.349	-120.66
985.519	28.84
985.69	-135
985.86	-116.56
986.031	-210.77
986.201	47.27
986.371	194.73
986.542	-190.29
986.712	-335.7
986.882	217.26
987.053	170.15
987.223	-186.19
987.393	18.6
987.563	-85.84
987.734	258.21
987.904	116.9
988.074	-157.52
988.244	125.1
988.414	-100.18
988.585	-243.54
988.755	-16.21
988.925	6.31
989.095	372.9
989.265	-186.19
989.435	-112.47
989.605	186.54
989.775	198.82
989.945	166.06
990.115	-280.4
990.285	49.32
990.455	88.23
990.625	-77.65
990.795	-251.73
990.965	327.85
991.134	-28.5
991.304	-243.54
991.474	-120.66
991.644	149.67
991.814	469.16
991.984	-282.45
992.153	-278.35
992.323	26.79
992.493	80.04
992.662	-452.43
992.832	-14.17
993.002	90.28
993.171	161.96
993.341	-309.07
993.511	-14.17
993.68	-104.28
993.85	194.73
994.019	-362.32
994.189	-280.4
994.358	88.23
994.528	-18.26
994.697	-474.96
994.867	-292.69
995.036	297.13
995.206	-14.17
995.375	-259.92
995.544	-94.04
995.714	75.95
995.883	34.99
996.052	-137.04
996.222	-452.43
996.391	563.36
996.56	125.1
996.73	-249.68
996.899	-405.33
997.068	434.34
997.237	94.38
997.406	-378.7
997.576	-325.46
997.745	112.81
997.914	145.58
998.083	-431.95
998.252	-198.48
998.421	18.6
998.59	-30.55
998.759	-304.98
998.928	-440.14
999.097	278.69
999.266	73.9
999.435	-79.7
999.604	-434
999.773	469.16
999.942	-10.07
1000.111	-333.65
1000.28	-370.51
1000.448	-169.81
1000.617	-169.81
1000.786	-87.89
1000.955	-339.79
1001.124	45.23
1001.292	655.52
1001.461	-335.7
1001.63	-257.87
1001.798	346.28
1001.967	340.13
1002.136	-329.55
1002.304	-329.55
1002.473	118.95
1002.642	26.79
1002.81	-225.11
1002.979	-315.22
1003.147	190.63
1003.316	596.13
1003.484	-225.11
1003.653	-286.54
1003.821	280.74
1003.99	53.42
1004.158	-96.08
1004.327	-194.39
1004.495	184.49
1004.663	-126.8
1004.832	-225.11
1005	-317.26
1005.168	247.97
1005.337	139.43
1005.505	-415.57
1005.673	-155.47
1005.842	157.86
1006.01	207.02
1006.178	-350.03
1006.346	-247.63
1006.514	190.63
1006.683	346.28
1006.851	-298.83
1007.019	-368.46
1007.187	-128.85
1007.355	-337.74
1007.523	-468.81
1007.691	-464.72
1007.859	-169.81
1008.027	276.65
1008.195	-243.54
1008.363	-395.09
1008.531	264.36
1008.699	-48.98
1008.867	-399.18
1009.035	-341.84
1009.203	229.54
1009.37	53.42
1009.538	-350.03
1009.706	125.1
1009.874	102.57
1010.042	69.8
1010.209	-448.33
1010.377	-319.31
1010.545	278.69
1010.713	2.22
1010.88	-405.33
1011.048	-284.5
1011.216	-61.27
1011.383	401.57
1011.551	-341.84
1011.718	-409.42
1011.886	272.55
1012.054	-3.93
1012.221	-298.83
1012.389	-309.07
1012.556	47.27
1012.724	379.04
1012.891	-192.34
1013.058	-452.43
1013.226	114.86
1013.393	192.68
1013.561	-407.38
1013.728	-493.39
1013.895	207.02
1014.063	168.1
1014.23	-464.72
1014.397	-360.27
1014.565	196.78
1014.732	-18.26
1014.899	-352.08
1015.066	-423.76
1015.233	149.67
1015.401	133.29
1015.568	-278.35
1015.735	-188.24
1015.902	69.8
1016.069	30.89
1016.236	-245.59
1016.403	-309.07
1016.57	-192.34
1016.737	190.63
1016.904	-311.12
1017.071	-390.99
1017.238	-100.18
1017.405	293.03
1017.572	-278.35
1017.739	-96.08
1017.906	168.1
1018.073	311.46
1018.24	-409.42
1018.407	-268.11
1018.573	331.94
1018.74	8.36
1018.907	-249.68
1019.074	-390.99
1019.241	239.78
1019.407	51.37
1019.574	-317.26
1019.741	-403.28
1019.907	71.85
1020.074	190.63
1020.241	-427.85
1020.407	-425.81
1020.574	157.86
1020.74	157.86
1020.907	-315.22
1021.073	-380.75
1021.24	592.03
1021.406	370.85
1021.573	-388.94
1021.739	-399.18
1021.906	270.5
1022.072	88.23
1022.239	-399.18
1022.405	-288.59
1022.571	67.75
1022.738	-126.8
1022.904	-307.02
1023.07	-255.83
1023.237	75.95
1023.403	260.26
1023.569	-198.48
1023.735	-157.52
1023.902	112.81
1024.068	180.39
1024.234	-325.46
1024.4	-259.92
1024.566	250.02
1024.732	282.79
1024.898	-347.98
1025.065	-419.66
1025.231	202.92
1025.397	-59.22
1025.563	-300.88
1025.729	-356.18
1025.895	-413.52
1026.061	-139.09
1026.227	-423.76
1026.392	-255.83
1026.558	346.28
1026.724	149.67
1026.89	-307.02
1027.056	-233.3
1027.222	213.16
1027.388	-20.31
1027.553	-302.93
1027.719	-364.37
1027.885	460.96
1028.051	247.97
1028.216	-477.01
1028.382	-276.31
1028.548	239.78
1028.713	-75.6
1028.879	-380.75
1029.045	-124.76
1029.21	446.63
1029.376	231.59
1029.541	-251.73
1029.707	-221.01
1029.873	227.5
1030.038	239.78
1030.204	-241.49
1030.369	-300.88
1030.534	264.36
1030.7	12.46
1030.865	-272.21
1031.031	-327.5
1031.196	149.67
1031.361	86.19
1031.527	-253.78
1031.692	-333.65
1031.857	-280.4
1032.023	229.54
1032.188	-339.79
1032.353	-227.15
1032.518	434.34
1032.684	184.49
1032.849	-384.85
1033.014	-229.2
1033.179	131.24
1033.344	256.17
1033.509	-194.39
1033.674	-335.7
1033.839	266.41
1034.004	282.79
1034.17	-259.92
1034.335	-337.74
1034.5	-32.6
1034.664	-48.98
1034.829	-350.03
1034.994	-223.06
1035.159	202.92
1035.324	243.88
1035.489	-276.31
1035.654	-339.79
1035.819	362.66
1035.984	192.68
1036.148	-284.5
1036.313	-239.44
1036.478	301.22
1036.643	51.37
1036.807	-364.37
1036.972	-382.8
1037.137	422.05
1037.301	198.82
1037.466	-456.53
1037.631	-223.06
1037.795	370.85
1037.96	211.11
1038.124	-128.85
1038.289	-333.65
1038.454	262.31
1038.618	174.25
1038.783	-243.54
1038.947	-149.33
1039.111	176.3
1039.276	16.55
1039.44	-247.63
1039.605	258.21
1039.769	116.9
1039.933	129.19
1040.098	-233.3
1040.262	2.22
1040.426	321.7
1040.591	274.6
1040.755	-319.31
1040.919	-145.24
1041.083	161.96
1041.248	92.33
1041.412	-366.42
1041.576	-321.36
1041.74	67.75
1041.904	313.51
1042.068	-251.73
1042.232	-188.24
1042.397	401.57
1042.561	282.79
1042.725	-429.9
1042.889	-38.74
1043.053	374.95
1043.217	254.12
1043.381	-116.56
1043.544	-304.98
1043.708	344.23
1043.872	-77.65
1044.036	-411.47
1044.2	-397.14
1044.364	438.44
1044.528	489.64
1044.691	4585.57
1044.855	-372.56
1045.019	307.37
1045.183	229.54
1045.346	-182.1
1045.51	-286.54
1045.674	299.17
1045.837	264.36
1046.001	-307.02
1046.165	-194.39
1046.328	649.38
1046.492	268.45
1046.655	-120.66
1046.819	-137.04
1046.983	-36.69
1047.146	280.74
1047.31	-141.14
1047.473	-438.09
1047.636	143.53
1047.8	-22.36
1047.963	-243.54
1048.127	-329.55
1048.29	-36.69
