Data from Ink_Intensity_USB4F045381__184__00184.txt Node

Date: Mon Jul 17 11:43:00 EDT 2023
User: mmckonesweet
Spectrometer: USB4F04538
Trigger mode: 4
Integration Time (sec): 9.000000E-1
Scans to average: 1
Electric dark correction enabled: true
Nonlinearity correction enabled: false
Boxcar width: 0
XAxis mode: Wavelengths
Number of Pixels in Spectrum: 3648
>>>>>Begin Spectral Data<<<<<
345.52	-1006.92
345.736	-1006.92
345.952	-1006.92
346.168	-1027.4
346.384	-1021.25
346.6	-124.24
346.816	-243.03
347.032	-224.59
347.248	254.63
347.464	-157.01
347.68	-62.8
347.896	191.14
348.112	400.04
348.328	-81.24
348.544	-120.15
348.76	-50.52
348.975	217.77
349.191	-187.73
349.407	-159.06
349.623	62.12
349.839	4.78
350.055	-118.1
350.27	10.92
350.486	137.9
350.702	336.55
350.918	250.53
351.133	-142.68
351.349	193.19
351.565	287.4
351.781	-224.59
351.996	0.68
352.212	291.49
352.428	-171.35
352.644	-189.78
352.859	-275.79
353.075	258.73
353.291	29.35
353.506	-101.72
353.722	-200.02
353.938	21.16
354.153	414.37
354.369	70.31
354.584	-191.83
354.8	271.01
355.016	-316.75
355.231	-245.07
355.447	-81.24
355.662	107.18
355.878	823.97
356.093	-355.66
356.309	-71
356.524	-386.38
356.74	240.3
356.955	-204.11
357.171	-163.15
357.386	164.52
357.602	-216.4
357.817	-105.81
358.033	-202.07
358.248	432.8
358.464	92.84
358.679	-111.96
358.895	-269.65
359.11	-42.32
359.325	287.4
359.541	-21.84
359.756	-13.65
359.972	-243.03
360.187	201.38
360.402	-224.59
360.618	-152.91
360.833	1067.67
361.048	152.23
361.264	-204.11
361.479	-62.8
361.694	19.11
361.909	191.14
362.125	-240.98
362.34	-97.62
362.555	170.66
362.77	127.66
362.986	-351.57
363.201	-189.78
363.416	176.81
363.631	60.07
363.847	-171.35
364.062	-220.5
364.277	207.53
364.492	68.27
364.707	-126.29
364.922	-359.76
365.138	281.25
365.353	402.08
365.568	-283.98
365.783	-146.77
365.998	98.99
366.213	561.83
366.428	-304.46
366.643	17.07
366.858	264.87
367.073	148.14
367.288	-134.48
367.503	-259.41
367.718	70.31
367.933	283.3
368.148	-283.98
368.363	-73.04
368.578	-34.13
368.793	420.52
369.008	-75.09
369.223	-200.02
369.438	172.71
369.653	391.84
369.868	-204.11
370.083	-193.87
370.298	107.18
370.513	377.51
370.728	27.31
370.943	-144.72
371.157	-150.87
371.372	443.04
371.587	-361.81
371.802	-226.64
372.017	27.31
372.232	397.99
372.446	-101.72
372.661	-275.79
372.876	215.72
373.091	137.9
373.306	-71
373.52	-353.62
373.735	-191.83
373.95	406.18
374.165	-140.63
374.379	-163.15
374.594	-154.96
374.809	74.41
375.023	49.83
375.238	-220.5
375.453	262.82
375.667	-214.35
375.882	-138.58
376.097	-161.11
376.311	-9.56
376.526	74.41
376.741	-267.6
376.955	60.07
377.17	518.82
377.384	574.11
377.599	-75.09
377.813	-265.55
378.028	578.21
378.242	141.99
378.457	-97.62
378.672	-306.51
378.886	86.7
379.101	-27.99
379.315	-283.98
379.53	-167.25
379.744	160.42
379.958	180.9
380.173	-142.68
380.387	-165.2
380.602	172.71
380.816	-171.35
381.031	-175.44
381.245	-208.21
381.459	197.29
381.674	2599.55
381.888	-249.17
382.103	17.07
382.317	-234.83
382.531	553.63
382.746	-81.24
382.96	-114
383.174	-159.06
383.388	434.85
383.603	43.69
383.817	-275.79
384.031	150.18
384.246	377.51
384.46	-1.37
384.674	230.06
384.888	66.22
385.103	162.47
385.317	-234.83
385.531	-7.51
385.745	379.56
385.959	340.65
386.174	-245.07
386.388	-195.92
386.602	29.35
386.816	-118.1
387.03	-138.58
387.244	-148.82
387.458	72.36
387.672	383.65
387.887	-259.41
388.101	-257.36
388.315	373.41
388.529	127.66
388.743	-171.35
388.957	-193.87
389.171	266.92
389.385	-114
389.599	-97.62
389.813	109.23
390.027	205.48
390.241	594.59
390.455	-154.96
390.669	-185.68
390.883	-120.15
391.097	375.46
391.311	-3.41
391.525	-109.91
391.738	160.42
391.952	201.38
392.166	-118.1
392.38	-220.5
392.594	295.59
392.808	277.16
393.022	-150.87
393.236	-181.59
393.449	246.44
393.663	84.65
393.877	-208.21
394.091	-85.33
394.305	-128.34
394.518	-163.15
394.732	-306.51
394.946	-179.54
395.16	428.71
395.373	2.73
395.587	-116.05
395.801	-171.35
396.015	295.59
396.228	131.75
396.442	-335.18
396.656	-310.61
396.869	328.36
397.083	369.32
397.297	-97.62
397.51	-249.17
397.724	328.36
397.938	53.93
398.151	-310.61
398.365	-232.79
398.578	246.44
398.792	373.41
399.005	-62.8
399.219	-66.9
399.433	137.9
399.646	189.1
399.86	-1.37
400.073	-46.42
400.287	219.82
400.5	-23.89
400.714	-30.04
400.927	-89.43
401.141	246.44
401.354	1061.53
401.567	213.67
401.781	-245.07
401.994	240.3
402.208	662.18
402.421	-101.72
402.635	-25.94
402.848	58.03
403.061	336.55
403.275	-60.76
403.488	-202.07
403.701	479.91
403.915	203.43
404.128	-7.51
404.341	-183.63
404.555	178.86
404.768	0.68
404.981	-32.08
405.195	-193.87
405.408	529.06
405.621	205.48
405.834	-114
406.048	-216.4
406.261	348.84
406.474	441
406.687	-286.03
406.9	-56.66
407.114	98.99
407.327	101.03
407.54	-281.94
407.753	-286.03
407.966	-101.72
408.179	236.2
408.392	-261.46
408.605	-294.22
408.819	254.63
409.032	219.82
409.245	-200.02
409.458	-58.71
409.671	228.01
409.884	254.63
410.097	-206.16
410.31	51.88
410.523	191.14
410.736	31.4
410.949	-128.34
411.162	-130.39
411.375	438.95
411.588	381.6
411.801	-40.28
412.014	-175.44
412.227	74.41
412.44	-56.66
412.653	-146.77
412.865	-23.89
413.078	311.97
413.291	301.73
413.504	-56.66
413.717	-167.25
413.93	223.91
414.143	-50.52
414.356	8.87
414.568	-363.86
414.781	228.01
414.994	213.67
415.207	-130.39
415.42	-138.58
415.632	207.53
415.845	467.62
416.058	-339.28
416.271	-273.75
416.483	76.46
416.696	531.11
416.909	-193.87
417.121	-167.25
417.334	168.62
417.547	481.96
417.759	-245.07
417.972	-238.93
418.185	-5.46
418.397	197.29
418.61	-157.01
418.823	-193.87
419.035	471.72
419.248	101.03
419.46	-87.38
419.673	-64.85
419.885	133.8
420.098	-32.08
420.311	-142.68
420.523	-370
420.736	234.15
420.948	17.07
421.161	-154.96
421.373	-347.47
421.586	144.04
421.798	-95.57
422.01	-296.27
422.223	-146.77
422.435	-36.18
422.648	209.58
422.86	-179.54
423.073	-226.64
423.285	303.78
423.497	-185.68
423.71	-179.54
423.922	-249.17
424.134	170.66
424.347	395.94
424.559	-32.08
424.771	90.79
424.984	-40.28
425.196	195.24
425.408	-365.9
425.621	-267.6
425.833	273.06
426.045	311.97
426.257	-271.7
426.47	-189.78
426.682	180.9
426.894	201.38
427.106	-95.57
427.318	-132.44
427.531	-60.76
427.743	205.48
427.955	-177.49
428.167	266.92
428.379	275.11
428.591	-21.84
428.804	-56.66
429.016	-171.35
429.228	-3.41
429.44	172.71
429.652	37.55
429.864	-322.9
430.076	4.78
430.288	39.59
430.5	-118.1
430.712	-62.8
430.924	316.07
431.136	96.94
431.348	-388.43
431.56	-159.06
431.772	35.5
431.984	19.11
432.196	-197.97
432.408	-189.78
432.62	-114
432.832	146.09
433.044	49.83
433.256	-15.7
433.468	197.29
433.679	-290.13
433.891	-212.31
434.103	41.64
434.315	375.46
434.527	170.66
434.739	-93.52
434.95	-163.15
435.162	209.58
435.374	-75.09
435.586	-122.2
435.798	-204.11
436.009	-204.11
436.221	15.02
436.433	-249.17
436.645	-101.72
436.856	29.35
437.068	336.55
437.28	-269.65
437.491	68.27
437.703	148.14
437.915	70.31
438.126	-89.43
438.338	105.13
438.55	25.26
438.761	197.29
438.973	-132.44
439.184	-134.48
439.396	-23.89
439.608	189.1
439.819	-214.35
440.031	-7.51
440.242	197.29
440.454	297.64
440.665	-193.87
440.877	-101.72
441.088	205.48
441.3	45.74
441.511	-302.42
441.723	-308.56
441.934	172.71
442.146	88.75
442.357	-95.57
442.569	123.56
442.78	103.08
442.991	434.85
443.203	90.79
443.414	-263.51
443.626	387.75
443.837	-73.04
444.048	-202.07
444.26	-318.8
444.471	90.79
444.682	248.49
444.894	-380.24
445.105	-302.42
445.316	225.96
445.528	205.48
445.739	-146.77
445.95	-95.57
446.161	225.96
446.373	316.07
446.584	-105.81
446.795	-163.15
447.006	170.66
447.217	357.03
447.429	-355.66
447.64	-269.65
447.851	352.93
448.062	68.27
448.273	-363.86
448.484	-185.68
448.695	187.05
448.907	-19.8
449.118	-124.24
449.329	0.68
449.54	33.45
449.751	-97.62
449.962	-197.97
450.173	-204.11
450.384	311.97
450.595	430.76
450.806	-146.77
451.017	-150.87
451.228	301.73
451.439	326.31
451.65	-56.66
451.861	-378.19
452.072	-138.58
452.283	17.07
452.494	8.87
452.705	-236.88
452.915	416.42
453.126	96.94
453.337	-181.59
453.548	-218.45
453.759	359.08
453.97	537.25
454.181	2.73
454.391	-255.31
454.602	55.98
454.813	78.51
455.024	-197.97
455.235	-173.39
455.445	58.03
455.656	213.67
455.867	-27.99
456.078	-265.55
456.288	-5.46
456.499	174.76
456.71	-245.07
456.921	-23.89
457.131	178.86
457.342	58.03
457.553	-71
457.763	-154.96
457.974	262.82
458.184	246.44
458.395	-290.13
458.606	-283.98
458.816	369.32
459.027	578.21
459.237	-56.66
459.448	-308.56
459.659	260.77
459.869	547.49
460.08	-318.8
460.29	-38.23
460.501	479.91
460.711	-146.77
460.922	-294.22
461.132	-273.75
461.343	699.04
461.553	-204.11
461.764	-187.73
461.974	-265.55
462.184	211.62
462.395	115.37
462.605	-163.15
462.816	-273.75
463.026	123.56
463.236	371.37
463.447	-249.17
463.657	-208.21
463.867	271.01
464.078	-99.67
464.288	-169.3
464.498	-187.73
464.709	-1.37
464.919	-64.85
465.129	-111.96
465.339	-220.5
465.55	219.82
465.76	244.39
465.97	-204.11
466.18	-259.41
466.391	213.67
466.601	115.37
466.811	-142.68
467.021	-263.51
467.231	119.46
467.441	303.78
467.651	-202.07
467.862	-449.87
468.072	64.17
468.282	318.12
468.492	-218.45
468.702	-171.35
468.912	53.93
469.122	549.54
469.332	80.55
469.542	-251.22
469.752	246.44
469.962	47.79
470.172	-150.87
470.382	-261.46
470.592	205.48
470.802	303.78
471.012	-95.57
471.222	-261.46
471.432	273.06
471.642	289.45
471.852	-138.58
472.062	-286.03
472.272	41.64
472.482	-245.07
472.691	-294.22
472.901	-343.38
473.111	135.85
473.321	488.1
473.531	-302.42
473.741	-128.34
473.95	105.13
474.16	144.04
474.37	-138.58
474.58	-320.85
474.79	447.14
474.999	240.3
475.209	-267.6
475.419	-232.79
475.628	-101.72
475.838	324.26
476.048	-140.63
476.258	-283.98
476.467	363.17
476.677	-64.85
476.886	-62.8
477.096	-189.78
477.306	-144.72
477.515	287.4
477.725	-187.73
477.935	-154.96
478.144	320.17
478.354	-177.49
478.563	-177.49
478.773	-255.31
478.982	148.14
479.192	361.13
479.401	-183.63
479.611	-277.84
479.82	-195.92
480.03	131.75
480.239	-267.6
480.449	-277.84
480.658	524.96
480.868	-179.54
481.077	-142.68
481.287	-157.01
481.496	232.1
481.705	361.13
481.915	0.68
482.124	37.55
482.333	141.99
482.543	379.56
482.752	-116.05
482.961	-314.7
483.171	152.23
483.38	21.16
483.589	-159.06
483.799	-298.32
484.008	31.4
484.217	346.79
484.426	-179.54
484.636	-318.8
484.845	82.6
485.054	-234.83
485.263	131.75
485.472	-214.35
485.682	379.56
485.891	98.99
486.1	-320.85
486.309	-240.98
486.518	172.71
486.727	365.22
486.936	-290.13
487.146	-107.86
487.355	365.22
487.564	-173.39
487.773	-161.11
487.982	-234.83
488.191	-52.56
488.4	115.37
488.609	-191.83
488.818	-183.63
489.027	610.98
489.236	359.08
489.445	-238.93
489.654	-294.22
489.863	291.49
490.072	64.17
490.281	17.07
490.49	-202.07
490.698	496.29
490.907	377.51
491.116	-269.65
491.325	-380.24
491.534	352.93
491.743	113.32
491.952	-103.76
492.16	-109.91
492.369	170.66
492.578	363.17
492.787	-120.15
492.996	-355.66
493.204	-136.53
493.413	488.1
493.622	-380.24
493.831	-333.14
494.039	381.6
494.248	-245.07
494.457	-240.98
494.665	-394.58
494.874	139.94
495.083	479.91
495.291	-216.4
495.5	-273.75
495.709	254.63
495.917	66.22
496.126	-54.61
496.335	-236.88
496.543	21.16
496.752	170.66
496.96	33.45
497.169	-400.72
497.377	41.64
497.586	295.59
497.794	-120.15
498.003	-404.82
498.211	43.69
498.42	512.67
498.628	-167.25
498.837	-367.95
499.045	162.47
499.254	90.79
499.462	-257.36
499.671	-230.74
499.879	537.25
500.087	338.6
500.296	-177.49
500.504	-159.06
500.713	185
500.921	565.92
501.129	-281.94
501.338	-187.73
501.546	111.27
501.754	139.94
501.962	-222.55
502.171	-286.03
502.379	141.99
502.587	379.56
502.795	-173.39
503.004	-177.49
503.212	96.94
503.42	195.24
503.628	-245.07
503.837	-146.77
504.045	254.63
504.253	502.44
504.461	-337.23
504.669	-388.43
504.877	215.72
505.085	387.75
505.294	-359.76
505.502	-136.53
505.71	64.17
505.918	275.11
506.126	-335.18
506.334	-202.07
506.542	60.07
506.75	180.9
506.958	-109.91
507.166	-171.35
507.374	-9.56
507.582	445.09
507.79	-144.72
507.998	-255.31
508.206	135.85
508.414	197.29
508.622	-292.18
508.83	-255.31
509.037	436.9
509.245	-32.08
509.453	-324.94
509.661	-251.22
509.869	295.59
510.077	-32.08
510.285	-120.15
510.492	-517.45
510.7	582.31
510.908	-30.04
511.116	-222.55
511.324	-259.41
511.531	-13.65
511.739	94.89
511.947	-159.06
512.155	-27.99
512.362	101.03
512.57	-189.78
512.778	-308.56
512.985	-515.41
513.193	328.36
513.401	387.75
513.608	-144.72
513.816	-249.17
514.024	182.95
514.231	338.6
514.439	-292.18
514.646	-314.7
514.854	195.24
515.061	322.21
515.269	-253.27
515.477	-218.45
515.684	-157.01
515.892	273.06
516.099	-283.98
516.307	-367.95
516.514	174.76
516.722	518.82
516.929	-279.89
517.136	-351.57
517.344	342.69
517.551	187.05
517.759	-226.64
517.966	-257.36
518.173	-81.24
518.381	15.02
518.588	-204.11
518.796	-255.31
519.003	305.83
519.21	-5.46
519.418	-341.33
519.625	-60.76
519.832	45.74
520.039	92.84
520.247	-445.77
520.454	-253.27
520.661	307.88
520.868	250.53
521.076	-181.59
521.283	-224.59
521.49	608.93
521.697	109.23
521.904	-154.96
522.112	-224.59
522.319	234.15
522.526	242.34
522.733	-322.9
522.94	-232.79
523.147	-17.75
523.354	197.29
523.561	-353.62
523.768	-210.26
523.975	230.06
524.183	164.52
524.39	-232.79
524.597	-343.38
524.804	29.35
525.011	-177.49
525.218	-286.03
525.425	-163.15
525.632	324.26
525.838	-99.67
526.045	-257.36
526.252	-277.84
526.459	1110.68
526.666	862.88
526.873	-240.98
527.08	-251.22
527.287	406.18
527.494	254.63
527.701	-357.71
527.907	-355.66
528.114	82.6
528.321	49.83
528.528	-191.83
528.735	-339.28
528.941	19.11
529.148	-48.47
529.355	-120.15
529.562	-324.94
529.768	412.32
529.975	-9.56
530.182	-134.48
530.388	-290.13
530.595	346.79
530.802	-216.4
531.008	-62.8
531.215	-222.55
531.422	434.85
531.628	811.68
531.835	-107.86
532.042	-277.84
532.248	-23.89
532.455	90.79
532.661	-197.97
532.868	-224.59
533.074	135.85
533.281	217.77
533.487	-130.39
533.694	-306.51
533.9	-181.59
534.107	295.59
534.313	-251.22
534.52	-331.09
534.726	328.36
534.933	461.48
535.139	-230.74
535.345	-365.9
535.552	185
535.758	60.07
535.965	-189.78
536.171	-310.61
536.377	232.1
536.584	387.75
536.79	-341.33
536.996	-228.69
537.203	92.84
537.409	205.48
537.615	-134.48
537.821	-159.06
538.028	256.68
538.234	207.53
538.44	-290.13
538.646	-138.58
538.853	131.75
539.059	15.02
539.265	127.66
539.471	-421.2
539.677	254.63
539.883	-21.84
540.09	-329.04
540.296	135.85
540.502	60.07
540.708	-216.4
540.914	-103.76
541.12	-302.42
541.326	232.1
541.532	29.35
541.738	-111.96
541.944	-171.35
542.15	242.34
542.356	-23.89
542.562	-216.4
542.768	-204.11
542.974	596.64
543.18	557.73
543.386	-204.11
543.592	-376.14
543.798	326.31
544.004	328.36
544.21	-275.79
544.415	-130.39
544.621	137.9
544.827	332.45
545.033	-378.19
545.239	-34.13
545.445	-222.55
545.651	109.23
545.856	-322.9
546.062	-302.42
546.268	-11.61
546.474	105.13
546.679	-197.97
546.885	-195.92
547.091	-44.37
547.297	500.39
547.502	-236.88
547.708	-333.14
547.914	-202.07
548.119	221.86
548.325	-357.71
548.531	-302.42
548.736	404.13
548.942	-150.87
549.147	-236.88
549.353	-71
549.559	318.12
549.764	119.46
549.97	-222.55
550.175	-177.49
550.381	305.83
550.586	-95.57
550.792	-249.17
550.997	-253.27
551.203	172.71
551.408	187.05
551.614	-322.9
551.819	-308.56
552.025	475.81
552.23	524.96
552.435	-361.81
552.641	-101.72
552.846	-163.15
553.052	332.45
553.257	-179.54
553.462	-148.82
553.668	-85.33
553.873	295.59
554.078	-316.75
554.283	-316.75
554.489	117.42
554.694	23.21
554.899	-288.08
555.105	-97.62
555.31	182.95
555.515	197.29
555.72	-171.35
555.925	-329.04
556.131	162.47
556.336	-77.14
556.541	-294.22
556.746	-335.18
556.951	275.11
557.156	463.52
557.361	-77.14
557.567	-146.77
557.772	524.96
557.977	246.44
558.182	-292.18
558.387	-273.75
558.592	-52.56
558.797	338.6
559.002	-238.93
559.207	-136.53
559.412	80.55
559.617	488.1
559.822	-230.74
560.027	-286.03
560.232	176.81
560.437	225.96
560.642	-390.48
560.847	-376.14
561.051	96.94
561.256	113.32
561.461	-200.02
561.666	-394.58
561.871	164.52
562.076	248.49
562.281	-204.11
562.485	-406.86
562.69	205.48
562.895	314.02
563.1	-208.21
563.305	-267.6
563.509	291.49
563.714	557.73
563.919	-277.84
564.123	-253.27
564.328	-64.85
564.533	271.01
564.737	-193.87
564.942	-310.61
565.147	379.56
565.351	586.4
565.556	-142.68
565.761	-109.91
565.965	101.03
566.17	-142.68
566.374	-200.02
566.579	-353.62
566.784	76.46
566.988	-21.84
567.193	-449.87
567.397	-269.65
567.602	-255.31
567.806	-21.84
568.011	-222.55
568.215	-116.05
568.42	41.64
568.624	-13.65
568.828	-335.18
569.033	-128.34
569.237	213.67
569.442	168.62
569.646	-390.48
569.85	-173.39
570.055	15.02
570.259	154.28
570.463	-48.47
570.668	-216.4
570.872	78.51
571.076	0.68
571.281	-103.76
571.485	-118.1
571.689	107.18
571.893	256.68
572.098	-79.19
572.302	-304.46
572.506	221.86
572.71	68.27
572.914	-169.3
573.119	-216.4
573.323	430.76
573.527	363.17
573.731	-240.98
573.935	-310.61
574.139	185
574.343	-193.87
574.547	-251.22
574.751	-202.07
574.955	412.32
575.159	385.7
575.364	-302.42
575.568	-292.18
575.772	-40.28
575.976	387.75
576.18	-230.74
576.383	-423.25
576.587	328.36
576.791	219.82
576.995	-474.45
577.199	-413.01
577.403	264.87
577.607	326.31
577.811	-390.48
578.015	-105.81
578.219	232.1
578.422	201.38
578.626	-216.4
578.83	-13.65
579.034	262.82
579.238	37.55
579.442	-324.94
579.645	123.56
579.849	68.27
580.053	55.98
580.257	-187.73
580.46	-253.27
580.664	268.97
580.868	244.39
581.071	-66.9
581.275	-91.48
581.479	-150.87
581.682	201.38
581.886	-261.46
582.09	-138.58
582.293	189.1
582.497	279.21
582.7	-62.8
582.904	-222.55
583.107	78.51
583.311	37.55
583.515	-142.68
583.718	-87.38
583.922	88.75
584.125	541.35
584.329	-261.46
584.532	-134.48
584.735	422.56
584.939	225.96
585.142	-318.8
585.346	-259.41
585.549	209.58
585.753	-34.13
585.956	-154.96
586.159	-159.06
586.363	459.43
586.566	209.58
586.769	-281.94
586.973	-273.75
587.176	244.39
587.379	291.49
587.582	176.81
587.786	12.97
587.989	12.97
588.192	664.22
588.395	-220.5
588.599	80.55
588.802	156.33
589.005	158.38
589.208	-216.4
589.411	-181.59
589.615	389.8
589.818	436.9
590.021	0.68
590.224	-95.57
590.427	283.3
590.63	256.68
590.833	-402.77
591.036	-204.11
591.239	62.12
591.442	-58.71
591.645	33.45
591.848	-281.94
592.051	131.75
592.254	225.96
592.457	-228.69
592.66	-197.97
592.863	-11.61
593.066	170.66
593.269	-214.35
593.472	-85.33
593.675	-118.1
593.878	238.25
594.081	-89.43
594.284	-300.37
594.486	168.62
594.689	78.51
594.892	-159.06
595.095	-202.07
595.298	240.3
595.5	-68.95
595.703	-66.9
595.906	-97.62
596.109	410.28
596.311	367.27
596.514	-406.86
596.717	-138.58
596.92	391.84
597.122	242.34
597.325	-466.25
597.528	-240.98
597.73	250.53
597.933	68.27
598.136	-212.31
598.338	-423.25
598.541	172.71
598.743	402.08
598.946	-193.87
599.148	-204.11
599.351	346.79
599.554	340.65
599.756	-87.38
599.959	-177.49
600.161	328.36
600.363	615.07
600.566	17.07
600.768	-234.83
600.971	408.23
601.173	295.59
601.376	-232.79
601.578	-150.87
601.78	131.75
601.983	615.07
602.185	-283.98
602.388	-97.62
602.59	248.49
602.792	-38.23
602.995	98.99
603.197	-218.45
603.399	330.41
603.601	185
603.804	-181.59
604.006	-206.16
604.208	125.61
604.41	-394.58
604.613	-15.7
604.815	-228.69
605.017	582.31
605.219	-19.8
605.421	172.71
605.623	-128.34
605.826	375.46
606.028	520.87
606.23	-206.16
606.432	-230.74
606.634	506.53
606.836	373.41
607.038	-208.21
607.24	12.97
607.442	111.27
607.644	131.75
607.846	-68.95
608.048	-243.03
608.25	438.95
608.452	-40.28
608.654	-144.72
608.856	-384.34
609.058	96.94
609.26	176.81
609.462	-83.28
609.664	-150.87
609.866	625.31
610.067	373.41
610.269	-46.42
610.471	-154.96
610.673	-48.47
610.875	209.58
611.077	-396.62
611.278	-122.2
611.48	146.09
611.682	543.39
611.884	-75.09
612.085	-103.76
612.287	-85.33
612.489	295.59
612.69	-296.27
612.892	-136.53
613.094	363.17
613.295	215.72
613.497	-314.7
613.699	-157.01
613.9	459.43
614.102	361.13
614.304	-103.76
614.505	-357.71
614.707	90.79
614.908	90.79
615.11	-339.28
615.311	-161.11
615.513	295.59
615.714	344.74
615.916	-304.46
616.117	-140.63
616.319	107.18
616.52	307.88
616.722	-183.63
616.923	-179.54
617.124	338.6
617.326	228.01
617.527	-105.81
617.729	51.88
617.93	297.64
618.131	336.55
618.333	-183.63
618.534	-48.47
618.735	-36.18
618.937	484
619.138	-286.03
619.339	-224.59
619.54	185
619.742	148.14
619.943	37.55
620.144	-245.07
620.345	301.73
620.546	365.22
620.748	-288.08
620.949	-200.02
621.15	156.33
621.351	150.18
621.552	-243.03
621.753	-326.99
621.954	-232.79
622.155	656.03
622.356	-255.31
622.558	21.16
622.759	39.59
622.96	535.2
623.161	-161.11
623.362	-85.33
623.563	98.99
623.764	228.01
623.965	-107.86
624.166	19.11
624.366	94.89
624.567	264.87
624.768	-404.82
624.969	-52.56
625.17	129.7
625.371	291.49
625.572	-93.52
625.773	-243.03
625.973	291.49
626.174	250.53
626.375	-56.66
626.576	-95.57
626.777	264.87
626.977	735.9
627.178	-279.89
627.379	-42.32
627.58	45.74
627.78	105.13
627.981	-40.28
628.182	-87.38
628.382	348.84
628.583	-243.03
628.784	-329.04
628.984	23.21
629.185	348.84
629.386	293.54
629.586	-81.24
629.787	-146.77
629.987	205.48
630.188	193.19
630.388	-191.83
630.589	-128.34
630.79	740
630.99	185
631.191	0.68
631.391	-89.43
631.591	314.02
631.792	508.58
631.992	4.78
632.193	-105.81
632.393	553.63
632.594	189.1
632.794	-89.43
632.994	70.31
633.195	127.66
633.395	103.08
633.595	-138.58
633.796	148.14
633.996	-42.32
634.196	428.71
634.397	-281.94
634.597	-56.66
634.797	55.98
634.997	543.39
635.198	31.4
635.398	-193.87
635.598	250.53
635.798	330.41
635.998	258.73
636.199	-181.59
636.399	-32.08
636.599	-79.19
636.799	-101.72
636.999	189.1
637.199	289.45
637.399	453.28
637.599	-230.74
637.799	19.11
637.999	-36.18
638.199	451.24
638.399	-224.59
638.599	-77.14
638.799	314.02
638.999	592.55
639.199	-1.37
639.399	-21.84
639.599	504.48
639.799	-136.53
639.999	-232.79
640.199	-212.31
640.399	223.91
640.599	246.44
640.799	-68.95
640.998	84.65
641.198	471.72
641.398	279.21
641.598	-38.23
641.798	-105.81
641.997	1059.48
642.197	131.75
642.397	-40.28
642.597	-134.48
642.796	316.07
642.996	436.9
643.196	12.97
643.395	-220.5
643.595	279.21
643.795	-292.18
643.994	-142.68
644.194	-42.32
644.394	316.07
644.593	191.14
644.793	-191.83
644.992	2.73
645.192	336.55
645.392	-197.97
645.591	2.73
645.791	-56.66
645.99	359.08
646.19	127.66
646.389	-17.75
646.589	-107.86
646.788	393.89
646.987	311.97
647.187	88.75
647.386	103.08
647.586	211.62
647.785	324.26
647.984	-60.76
648.184	10.92
648.383	8.87
648.582	49.83
648.782	-56.66
648.981	160.42
649.18	12.97
649.38	256.68
649.579	-50.52
649.778	-171.35
649.977	289.45
650.177	299.69
650.376	-128.34
650.575	-128.34
650.774	506.53
650.973	76.46
651.173	-230.74
651.372	-17.75
651.571	144.04
651.77	416.42
651.969	-66.9
652.168	-44.37
652.367	-146.77
652.566	340.65
652.765	-48.47
652.964	234.15
653.163	635.55
653.362	191.14
653.561	-93.52
653.76	-36.18
653.959	47.79
654.158	299.69
654.357	213.67
654.556	-44.37
654.755	307.88
654.954	338.6
655.153	21.16
655.352	-13.65
655.551	582.31
655.749	45.74
655.948	-44.37
656.147	39.59
656.346	326.31
656.545	84.65
656.743	2.73
656.942	17.07
657.141	273.06
657.34	-95.57
657.538	84.65
657.737	-1.37
657.936	25.26
658.135	266.92
658.333	-56.66
658.532	72.36
658.731	688.8
658.929	379.56
659.128	271.01
659.326	-75.09
659.525	514.72
659.724	211.62
659.922	-269.65
660.121	-173.39
660.319	248.49
660.518	-54.61
660.716	-210.26
660.915	-95.57
661.113	537.25
661.312	-46.42
661.51	35.5
661.709	-52.56
661.907	385.7
662.105	594.59
662.304	-52.56
662.502	29.35
662.701	518.82
662.899	146.09
663.097	285.35
663.296	-208.21
663.494	496.29
663.692	615.07
663.891	-136.53
664.089	-58.71
664.287	311.97
664.485	549.54
664.684	-85.33
664.882	29.35
665.08	156.33
665.278	250.53
665.476	-101.72
665.675	221.86
665.873	717.47
666.071	397.99
666.269	-95.57
666.467	166.57
666.665	236.2
666.863	199.34
667.061	164.52
667.259	-105.81
667.457	209.58
667.655	385.7
667.853	-146.77
668.051	113.32
668.249	70.31
668.447	375.46
668.645	-173.39
668.843	144.04
669.041	350.89
669.239	158.38
669.437	113.32
669.635	82.6
669.833	109.23
670.031	436.9
670.229	-7.51
670.426	58.03
670.624	88.75
670.822	41.64
671.02	-54.61
671.218	31.4
671.415	-73.04
671.613	248.49
671.811	117.42
672.009	8.87
672.206	397.99
672.404	258.73
672.602	301.73
672.799	135.85
672.997	400.04
673.195	357.03
673.392	127.66
673.59	-177.49
673.788	500.39
673.985	-152.91
674.183	127.66
674.38	6.83
674.578	434.85
674.775	82.6
674.973	-77.14
675.17	-77.14
675.368	572.07
675.565	316.07
675.763	-15.7
675.96	-23.89
676.158	559.78
676.355	156.33
676.553	23.21
676.75	25.26
676.947	189.1
677.145	150.18
677.342	68.27
677.539	121.51
677.737	240.3
677.934	756.38
678.131	115.37
678.329	-85.33
678.526	615.07
678.723	447.14
678.92	43.69
679.118	-46.42
679.315	-7.51
679.512	570.02
679.709	86.7
679.906	107.18
680.104	578.21
680.301	275.11
680.498	-122.2
680.695	-40.28
680.892	131.75
681.089	131.75
681.286	51.88
681.483	-101.72
681.68	447.14
681.877	426.66
682.075	103.08
682.272	260.77
682.469	285.35
682.665	240.3
682.862	-52.56
683.059	-146.77
683.256	336.55
683.453	221.86
683.65	211.62
683.847	60.07
684.044	197.29
684.241	-19.8
684.438	58.03
684.635	-44.37
684.831	672.42
685.028	701.09
685.225	78.51
685.422	125.61
685.619	201.38
685.815	246.44
686.012	201.38
686.209	86.7
686.405	2.73
686.602	436.9
686.799	-54.61
686.996	25.26
687.192	29.35
687.389	758.43
687.586	-36.18
687.782	10.92
687.979	610.98
688.175	537.25
688.372	92.84
688.568	12.97
688.765	234.15
688.962	621.22
689.158	207.53
689.355	-97.62
689.551	471.72
689.748	133.8
689.944	135.85
690.14	-7.51
690.337	527.01
690.533	193.19
690.73	225.96
690.926	64.17
691.123	428.71
691.319	275.11
691.515	-60.76
691.712	150.18
691.908	467.62
692.104	373.41
692.301	236.2
692.497	8.87
692.693	451.24
692.889	496.29
693.086	172.71
693.282	-52.56
693.478	338.6
693.674	668.32
693.87	68.27
694.067	-71
694.263	318.12
694.459	119.46
694.655	240.3
694.851	207.53
695.047	467.62
695.243	383.65
695.439	252.58
695.635	-11.61
695.831	441
696.027	389.8
696.224	33.45
696.42	348.84
696.615	623.27
696.811	502.44
697.007	-146.77
697.203	31.4
697.399	346.79
697.595	649.89
697.791	-83.28
697.987	203.43
698.183	64.17
698.379	68.27
698.575	58.03
698.77	25.26
698.966	477.86
699.162	539.3
699.358	133.8
699.554	131.75
699.749	557.73
699.945	467.62
700.141	185
700.337	201.38
700.532	322.21
700.728	82.6
700.924	-15.7
701.119	-73.04
701.315	385.7
701.511	303.78
701.706	107.18
701.902	-11.61
702.097	293.54
702.293	377.51
702.489	178.86
702.684	90.79
702.88	320.17
703.075	275.11
703.271	152.23
703.466	-75.09
703.662	361.13
703.857	443.04
704.053	96.94
704.248	111.27
704.443	473.76
704.639	486.05
704.834	137.9
705.03	68.27
705.225	479.91
705.42	541.35
705.616	295.59
705.811	12.97
706.006	203.43
706.202	258.73
706.397	234.15
706.592	-30.04
706.787	311.97
706.983	238.25
707.178	467.62
707.373	244.39
707.568	543.39
707.763	537.25
707.959	123.56
708.154	86.7
708.349	324.26
708.544	397.99
708.739	420.52
708.934	49.83
709.129	512.67
709.324	570.02
709.519	2.73
709.714	68.27
709.909	635.55
710.104	459.43
710.299	92.84
710.494	150.18
710.689	527.01
710.884	348.84
711.079	144.04
711.274	430.76
711.469	445.09
711.664	502.44
711.859	195.24
712.054	217.77
712.249	557.73
712.443	600.74
712.638	29.35
712.833	105.13
713.028	330.41
713.223	303.78
713.417	309.93
713.612	70.31
713.807	570.02
714.002	885.41
714.196	303.78
714.391	178.86
714.586	600.74
714.78	330.41
714.975	125.61
715.17	158.38
715.364	164.52
715.559	678.56
715.754	-140.63
715.948	35.5
716.143	770.72
716.337	434.85
716.532	389.8
716.726	135.85
716.921	598.69
717.115	799.39
717.31	-5.46
717.504	520.87
717.699	248.49
717.893	557.73
718.088	62.12
718.282	-15.7
718.476	467.62
718.671	510.63
718.865	123.56
719.059	86.7
719.254	430.76
719.448	656.03
719.642	1436.31
719.837	-25.94
720.031	610.98
720.225	674.46
720.419	201.38
720.614	103.08
720.808	529.06
721.002	324.26
721.196	60.07
721.39	187.05
721.585	649.89
721.779	557.73
721.973	230.06
722.167	53.93
722.361	434.85
722.555	658.08
722.749	211.62
722.943	166.57
723.137	152.23
723.331	535.2
723.525	133.8
723.719	121.51
723.913	539.3
724.107	715.42
724.301	74.41
724.495	209.58
724.689	873.12
724.883	729.76
725.077	133.8
725.271	189.1
725.465	682.66
725.659	307.88
725.853	287.4
726.046	27.31
726.24	283.3
726.434	643.74
726.628	164.52
726.822	281.25
727.015	678.56
727.209	668.32
727.403	254.63
727.596	74.41
727.79	524.96
727.984	633.51
728.177	199.34
728.371	119.46
728.565	647.84
728.758	182.95
728.952	98.99
729.146	162.47
729.339	711.33
729.533	352.93
729.726	117.42
729.92	82.6
730.113	721.57
730.307	488.1
730.5	139.94
730.694	107.18
730.887	477.86
731.081	586.4
731.274	29.35
731.468	275.11
731.661	369.32
731.854	240.3
732.048	148.14
732.241	31.4
732.435	266.92
732.628	510.63
732.821	281.25
733.014	103.08
733.208	164.52
733.401	647.84
733.594	176.81
733.788	139.94
733.981	795.29
734.174	500.39
734.367	168.62
734.56	295.59
734.754	662.18
734.947	397.99
735.14	166.57
735.333	234.15
735.526	555.68
735.719	277.16
735.912	139.94
736.105	174.76
736.298	508.58
736.491	336.55
736.684	160.42
736.877	154.28
737.07	529.06
737.263	680.61
737.456	170.66
737.649	148.14
737.842	346.79
738.035	484
738.228	219.82
738.421	381.6
738.614	721.57
738.807	686.75
739	74.41
739.192	113.32
739.385	524.96
739.578	576.16
739.771	418.47
739.964	246.44
740.156	531.11
740.349	465.57
740.542	461.48
740.735	117.42
740.927	185
741.12	187.05
741.313	133.8
741.505	283.3
741.698	578.21
741.891	615.07
742.083	438.95
742.276	94.89
742.468	512.67
742.661	400.04
742.854	178.86
743.046	148.14
743.239	834.21
743.431	453.28
743.624	289.45
743.816	115.37
744.009	402.08
744.201	522.91
744.393	395.94
744.586	82.6
744.778	705.18
744.971	436.9
745.163	297.64
745.355	453.28
745.548	477.86
745.74	369.32
745.932	326.31
746.125	217.77
746.317	1039
746.509	516.77
746.702	271.01
746.894	234.15
747.086	570.02
747.278	770.72
747.471	379.56
747.663	307.88
747.855	434.85
748.047	805.53
748.239	271.01
748.431	166.57
748.623	844.45
748.815	885.41
749.008	117.42
749.2	178.86
749.392	696.99
749.584	584.35
749.776	357.03
749.968	318.12
750.16	928.41
750.352	426.66
750.544	262.82
750.736	277.16
750.928	662.18
751.12	545.44
751.311	320.17
751.503	295.59
751.695	666.27
751.887	463.52
752.079	74.41
752.271	254.63
752.463	1311.38
752.654	729.76
752.846	389.8
753.038	320.17
753.23	303.78
753.421	692.9
753.613	262.82
753.805	479.91
753.997	684.7
754.188	731.81
754.38	137.9
754.572	283.3
754.763	451.24
754.955	621.22
755.146	375.46
755.338	352.93
755.53	592.55
755.721	516.77
755.913	207.53
756.104	195.24
756.296	492.2
756.487	752.29
756.679	164.52
756.87	316.07
757.062	432.8
757.253	656.03
757.445	264.87
757.636	369.32
757.827	500.39
758.019	1200.79
758.21	244.39
758.401	260.77
758.593	1032.86
758.784	852.64
758.975	123.56
759.167	119.46
759.358	527.01
759.549	838.3
759.74	379.56
759.932	240.3
760.123	799.39
760.314	428.71
760.505	406.18
760.696	283.3
760.888	942.75
761.079	479.91
761.27	297.64
761.461	49.83
761.652	780.96
761.843	416.42
762.034	320.17
762.225	459.43
762.416	492.2
762.607	510.63
762.798	283.3
762.989	314.02
763.18	1426.07
763.371	498.34
763.562	242.34
763.753	404.13
763.944	795.29
764.135	770.72
764.326	475.81
764.517	228.01
764.708	617.12
764.899	715.42
765.089	230.06
765.28	191.14
765.471	596.64
765.662	746.14
765.853	434.85
766.043	219.82
766.234	740
766.425	774.81
766.615	273.06
766.806	211.62
766.997	979.61
767.187	660.13
767.378	367.27
767.569	76.46
767.759	690.85
767.95	615.07
768.141	508.58
768.331	221.86
768.522	500.39
768.712	717.47
768.903	328.36
769.093	213.67
769.284	944.8
769.474	567.97
769.665	78.51
769.855	146.09
770.046	592.55
770.236	500.39
770.426	465.57
770.617	207.53
770.807	639.65
770.998	504.48
771.188	555.68
771.378	295.59
771.569	660.13
771.759	748.19
771.949	254.63
772.139	10.92
772.33	547.49
772.52	897.69
772.71	307.88
772.9	178.86
773.09	1002.14
773.281	934.56
773.471	254.63
773.661	363.17
773.851	895.64
774.041	447.14
774.231	203.43
774.421	500.39
774.611	973.47
774.802	676.51
774.992	412.32
775.182	230.06
775.372	701.09
775.562	756.38
775.752	377.51
775.942	293.54
776.131	844.45
776.321	735.9
776.511	213.67
776.701	197.29
776.891	789.15
777.081	354.98
777.271	381.6
777.461	242.34
777.651	848.54
777.84	862.88
778.03	451.24
778.22	314.02
778.41	885.41
778.599	381.6
778.789	342.69
778.979	277.16
779.169	735.9
779.358	567.97
779.548	680.61
779.738	160.42
779.927	692.9
780.117	332.45
780.307	387.75
780.496	43.69
780.686	674.46
780.875	1026.72
781.065	352.93
781.254	320.17
781.444	535.2
781.633	615.07
781.823	293.54
782.012	291.49
782.202	492.2
782.391	586.4
782.581	217.77
782.77	623.27
782.96	838.3
783.149	682.66
783.338	316.07
783.528	66.22
783.717	881.31
783.906	889.5
784.096	484
784.285	148.14
784.474	504.48
784.663	410.28
784.853	375.46
785.042	367.27
785.231	459.43
785.42	758.43
785.61	506.53
785.799	256.68
785.988	494.24
786.177	547.49
786.366	363.17
786.555	486.05
786.744	670.37
786.933	631.46
787.122	168.62
787.312	182.95
787.501	477.86
787.69	725.66
787.879	322.21
788.068	266.92
788.257	303.78
788.445	477.86
788.634	453.28
788.823	250.53
789.012	1206.94
789.201	1000.09
789.39	432.8
789.579	291.49
789.768	606.88
789.957	645.79
790.145	305.83
790.334	-21.84
790.523	627.36
790.712	535.2
790.9	416.42
791.089	146.09
791.278	916.12
791.467	776.86
791.655	584.35
791.844	748.19
792.033	508.58
792.221	684.7
792.41	467.62
792.599	268.97
792.787	746.14
792.976	778.91
793.164	195.24
793.353	252.58
793.541	690.85
793.73	664.22
793.918	318.12
794.107	297.64
794.295	606.88
794.484	639.65
794.672	350.89
794.861	371.37
795.049	664.22
795.238	1057.43
795.426	187.05
795.614	416.42
795.803	680.61
795.991	926.36
796.179	279.21
796.368	324.26
796.556	950.94
796.744	428.71
796.932	324.26
797.121	318.12
797.309	592.55
797.497	799.39
797.685	283.3
797.874	287.4
798.062	479.91
798.25	893.6
798.438	215.72
798.626	320.17
798.814	701.09
799.002	1108.63
799.19	471.72
799.378	410.28
799.566	871.07
799.755	946.84
799.943	555.68
800.131	283.3
800.318	653.98
800.506	729.76
800.694	281.25
800.882	463.52
801.07	957.08
801.258	557.73
801.446	422.56
801.634	447.14
801.822	680.61
802.01	641.7
802.197	307.88
802.385	637.6
802.573	688.8
802.761	484
802.949	443.04
803.136	258.73
803.324	975.52
803.512	682.66
803.699	500.39
803.887	215.72
804.075	905.88
804.262	498.34
804.45	299.69
804.638	553.63
804.825	481.96
805.013	551.59
805.201	459.43
805.388	369.32
805.576	668.32
805.763	918.17
805.951	420.52
806.138	570.02
806.326	1024.67
806.513	828.06
806.701	443.04
806.888	279.21
807.075	737.95
807.263	1118.87
807.45	297.64
807.638	547.49
807.825	1077.91
808.012	909.98
808.2	479.91
808.387	752.29
808.574	740
808.761	1041.05
808.949	354.98
809.136	529.06
809.323	473.76
809.51	500.39
809.698	686.75
809.885	696.99
810.072	746.14
810.259	965.28
810.446	590.5
810.633	416.42
810.82	946.84
811.008	1049.24
811.195	549.54
811.382	496.29
811.569	748.19
811.756	481.96
811.943	527.01
812.13	453.28
812.317	574.11
812.504	510.63
812.691	555.68
812.878	729.76
813.064	1032.86
813.251	717.47
813.438	397.99
813.625	606.88
813.812	676.51
813.999	729.76
814.186	535.2
814.372	455.33
814.559	758.43
814.746	1059.48
814.933	426.66
815.12	684.7
815.306	586.4
815.493	512.67
815.68	412.32
815.866	371.37
816.053	944.8
816.24	1217.18
816.426	617.12
816.613	346.79
816.799	981.66
816.986	918.17
817.173	377.51
817.359	420.52
817.546	793.25
817.732	418.47
817.919	213.67
818.105	555.68
818.292	717.47
818.478	891.55
818.665	539.3
818.851	492.2
819.037	1266.33
819.224	719.52
819.41	420.52
819.597	488.1
819.783	1233.56
819.969	920.22
820.156	490.15
820.342	381.6
820.528	1565.33
820.714	795.29
820.901	672.42
821.087	430.76
821.273	1215.13
821.459	617.12
821.646	426.66
821.832	430.76
822.018	828.06
822.204	756.38
822.39	524.96
822.576	406.18
822.762	1051.29
822.948	817.82
823.134	791.2
823.32	541.35
823.507	529.06
823.693	869.02
823.879	961.18
824.065	428.71
824.25	848.54
824.436	492.2
824.622	516.77
824.808	412.32
824.994	690.85
825.18	590.5
825.366	397.99
825.552	524.96
825.738	705.18
825.923	1073.82
826.109	723.62
826.295	529.06
826.481	658.08
826.667	557.73
826.852	627.36
827.038	441
827.224	1129.11
827.409	1192.6
827.595	342.69
827.781	803.49
827.966	1030.81
828.152	1065.63
828.338	514.72
828.523	336.55
828.709	572.07
828.894	1018.52
829.08	559.78
829.266	451.24
829.451	615.07
829.637	909.98
829.822	553.63
830.008	445.09
830.193	967.32
830.378	1188.5
830.564	570.02
830.749	438.95
830.935	950.94
831.12	901.79
831.305	481.96
831.491	731.81
831.676	465.57
831.861	985.76
832.047	574.11
832.232	389.8
832.417	1071.77
832.602	795.29
832.788	537.25
832.973	459.43
833.158	832.16
833.343	883.36
833.528	664.22
833.714	682.66
833.899	1043.1
834.084	1331.86
834.269	742.05
834.454	664.22
834.639	967.32
834.824	834.21
835.009	653.98
835.194	645.79
835.379	1008.28
835.564	1196.7
835.749	774.81
835.934	486.05
836.119	989.85
836.304	883.36
836.489	510.63
836.674	754.34
836.859	580.26
837.044	1198.74
837.228	582.31
837.413	420.52
837.598	901.79
837.783	1043.1
837.968	610.98
838.152	438.95
838.337	369.32
838.522	1016.48
838.707	918.17
838.891	754.34
839.076	914.08
839.261	1077.91
839.445	631.46
839.63	631.46
839.815	1278.62
839.999	699.04
840.184	500.39
840.368	572.07
840.553	928.41
840.737	1008.28
840.922	504.48
841.106	434.85
841.291	590.5
841.475	795.29
841.66	561.83
841.844	596.64
842.029	1571.47
842.213	610.98
842.397	574.11
842.582	307.88
842.766	1090.2
842.951	1022.62
843.135	590.5
843.319	608.93
843.504	955.04
843.688	1061.53
843.872	379.56
844.056	592.55
844.241	1057.43
844.425	823.97
844.609	768.67
844.793	451.24
844.977	1149.59
845.161	869.02
845.346	434.85
845.53	658.08
845.714	719.52
845.898	1233.56
846.082	320.17
846.266	514.72
846.45	785.05
846.634	967.32
846.818	574.11
847.002	707.23
847.186	1065.63
847.37	617.12
847.554	475.81
847.738	725.66
847.922	1010.33
848.106	877.21
848.29	451.24
848.473	606.88
848.657	1022.62
848.841	809.63
849.025	604.83
849.209	363.17
849.392	967.32
849.576	842.4
849.76	338.6
849.944	766.62
850.127	1221.27
850.311	608.93
850.495	389.8
850.678	455.33
850.862	1145.5
851.046	1237.66
851.229	946.84
851.413	365.22
851.596	821.92
851.78	832.16
851.964	717.47
852.147	684.7
852.331	1540.76
852.514	1098.39
852.698	680.61
852.881	387.75
853.065	1034.91
853.248	787.1
853.431	682.66
853.615	707.23
853.798	1395.35
853.982	1020.57
854.165	735.9
854.348	572.07
854.532	664.22
854.715	793.25
854.898	549.54
855.081	549.54
855.265	1223.32
855.448	1208.98
855.631	496.29
855.814	647.84
855.997	1016.48
856.181	789.15
856.364	740
856.547	342.69
856.73	918.17
856.913	817.82
857.096	414.37
857.279	619.17
857.462	787.1
857.645	1041.05
857.828	715.42
858.011	758.43
858.194	785.05
858.377	1094.3
858.56	432.8
858.743	617.12
858.926	610.98
859.109	1082.01
859.292	594.59
859.475	455.33
859.658	1196.7
859.841	1016.48
860.023	588.45
860.206	547.49
860.389	959.13
860.572	1233.56
860.755	531.11
860.937	524.96
861.12	828.06
861.303	893.6
861.486	692.9
861.668	436.9
861.851	932.51
862.034	942.75
862.216	776.86
862.399	443.04
862.581	1053.34
862.764	1282.71
862.947	621.22
863.129	576.16
863.312	717.47
863.494	1110.68
863.677	871.07
863.859	402.08
864.042	1163.93
864.224	1096.35
864.406	705.18
864.589	393.89
864.771	996
864.954	629.41
865.136	496.29
865.318	443.04
865.501	1010.33
865.683	535.2
865.865	553.63
866.048	574.11
866.23	950.94
866.412	803.49
866.594	492.2
866.777	727.71
866.959	996
867.141	711.33
867.323	828.06
867.505	748.19
867.687	873.12
867.869	856.73
868.052	674.46
868.234	504.48
868.416	864.93
868.598	1055.39
868.78	615.07
868.962	516.77
869.144	1071.77
869.326	1065.63
869.508	645.79
869.69	524.96
869.872	740
870.054	1157.79
870.236	492.2
870.417	498.34
870.599	778.91
870.781	1254.04
870.963	572.07
871.145	475.81
871.327	570.02
871.508	1024.67
871.69	574.11
871.872	651.94
872.054	803.49
872.235	1004.19
872.417	713.38
872.599	350.89
872.78	1280.66
872.962	1041.05
873.144	443.04
873.325	623.27
873.507	1276.57
873.689	952.99
873.87	412.32
874.052	762.53
874.233	826.01
874.415	1110.68
874.596	727.71
874.778	473.76
874.959	869.02
875.141	1090.2
875.322	649.89
875.503	524.96
875.685	996
875.866	494.24
876.048	602.79
876.229	512.67
876.41	875.17
876.592	1034.91
876.773	547.49
876.954	418.47
877.136	1075.87
877.317	852.64
877.498	406.18
877.679	643.74
877.86	987.8
878.042	866.97
878.223	631.46
878.404	862.88
878.585	1079.96
878.766	1344.15
878.947	903.84
879.128	828.06
879.309	1114.78
879.49	1108.63
879.672	752.29
879.853	629.41
880.034	699.04
880.215	852.64
880.396	633.51
880.576	699.04
880.757	699.04
880.938	1254.04
881.119	580.26
881.3	584.35
881.481	750.24
881.662	1727.12
881.843	635.55
882.023	469.67
882.204	1016.48
882.385	893.6
882.566	533.15
882.747	529.06
882.927	971.42
883.108	959.13
883.289	641.7
883.469	895.64
883.65	899.74
883.831	948.89
884.011	838.3
884.192	594.59
884.373	1151.64
884.553	1041.05
884.734	842.4
884.914	959.13
885.095	1620.63
885.275	1446.55
885.456	1020.57
885.636	484
885.817	834.21
885.997	975.52
886.178	557.73
886.358	768.67
886.538	1084.06
886.719	1827.47
886.899	627.36
887.08	828.06
887.26	1258.14
887.44	778.91
887.621	547.49
887.801	774.81
887.981	1614.48
888.161	1147.55
888.342	717.47
888.522	684.7
888.702	1163.93
888.882	1323.67
889.062	877.21
889.242	508.58
889.423	1315.48
889.603	1184.41
889.783	746.14
889.963	750.24
890.143	1110.68
890.323	1272.47
890.503	639.65
890.683	674.46
890.863	1022.62
891.043	955.04
891.223	850.59
891.403	914.08
891.583	950.94
891.763	1012.38
891.943	721.57
892.122	711.33
892.302	1018.52
892.482	959.13
892.662	930.46
892.842	905.88
893.022	1090.2
893.201	967.32
893.381	912.03
893.561	770.72
893.741	1225.37
893.92	1098.39
894.1	842.4
894.28	832.16
894.459	1303.19
894.639	1090.2
894.819	805.53
894.998	848.54
895.178	1030.81
895.357	1155.74
895.537	803.49
895.716	643.74
895.896	1045.15
896.075	1266.33
896.255	821.92
896.434	629.41
896.614	1288.86
896.793	1360.53
896.973	1006.24
897.152	959.13
897.331	1213.08
897.511	1348.25
897.69	676.51
897.87	938.65
898.049	1297.05
898.228	1135.26
898.407	977.56
898.587	932.51
898.766	926.36
898.945	1262.23
899.124	1084.06
899.304	928.41
899.483	1333.91
899.662	1454.74
899.841	832.16
900.02	805.53
900.199	1411.73
900.378	1176.22
900.557	766.62
900.737	774.81
900.916	1159.83
901.095	1237.66
901.274	1114.78
901.453	768.67
901.632	817.82
901.811	1000.09
901.989	893.6
902.168	723.62
902.347	1235.61
902.526	961.18
902.705	828.06
902.884	983.71
903.063	1254.04
903.242	1399.45
903.42	795.29
903.599	985.76
903.778	1303.19
903.957	1512.08
904.135	1014.43
904.314	864.93
904.493	1065.63
904.672	1204.89
904.85	889.5
905.029	836.25
905.207	1251.99
905.386	1821.33
905.565	799.39
905.743	744.1
905.922	940.7
906.1	1344.15
906.279	746.14
906.457	758.43
906.636	977.56
906.814	1032.86
906.993	746.14
907.171	783.01
907.35	1299.09
907.528	1356.44
907.707	963.23
907.885	586.4
908.063	1430.16
908.242	842.4
908.42	805.53
908.598	619.17
908.777	1249.94
908.955	975.52
909.133	979.61
909.311	758.43
909.49	1016.48
909.668	1102.49
909.846	860.83
910.024	500.39
910.202	1122.97
910.38	1186.46
910.559	629.41
910.737	762.53
910.915	1094.3
911.093	1094.3
911.271	866.97
911.449	946.84
911.627	1082.01
911.805	1503.89
911.983	774.81
912.161	766.62
912.339	1082.01
912.517	1340.05
912.695	1030.81
912.872	860.83
913.05	815.77
913.228	1176.22
913.406	873.12
913.584	729.76
913.762	1211.03
913.939	918.17
914.117	762.53
914.295	670.37
914.473	1155.74
914.65	1170.07
914.828	811.68
915.006	799.39
915.184	832.16
915.361	1145.5
915.539	866.97
915.716	912.03
915.894	1157.79
916.072	1344.15
916.249	967.32
916.427	928.41
916.604	807.58
916.782	1145.5
916.959	709.28
917.137	752.29
917.314	1178.26
917.492	1211.03
917.669	930.46
917.847	901.79
918.024	1182.36
918.201	895.64
918.379	842.4
918.556	758.43
918.733	1311.38
918.911	979.61
919.088	977.56
919.265	770.72
919.442	1106.59
919.62	1008.28
919.797	733.86
919.974	713.38
920.151	1045.15
920.328	1073.82
920.506	744.1
920.683	909.98
920.86	916.12
921.037	854.69
921.214	881.31
921.391	658.08
921.568	1163.93
921.745	909.98
921.922	819.87
922.099	670.37
922.276	1284.76
922.453	1069.72
922.63	686.75
922.807	1053.34
922.984	1057.43
923.161	887.45
923.338	813.73
923.514	742.05
923.691	938.65
923.868	1092.25
924.045	785.05
924.222	637.6
924.399	946.84
924.575	1256.09
924.752	793.25
924.929	826.01
925.105	1065.63
925.282	793.25
925.459	684.7
925.635	797.34
925.812	1016.48
925.989	834.21
926.165	733.86
926.342	518.82
926.518	750.24
926.695	934.56
926.871	639.65
927.048	584.35
927.224	1114.78
927.401	840.35
927.577	766.62
927.754	535.2
927.93	1180.31
928.107	1122.97
928.283	600.74
928.459	864.93
928.636	1092.25
928.812	832.16
928.988	649.89
929.165	504.48
929.341	791.2
929.517	942.75
929.693	934.56
929.87	479.91
930.046	1045.15
930.222	805.53
930.398	610.98
930.574	656.03
930.751	959.13
930.927	709.28
931.103	711.33
931.279	705.18
931.455	809.63
931.631	875.17
931.807	500.39
931.983	512.67
932.159	647.84
932.335	967.32
932.511	731.81
932.687	699.04
932.863	938.65
933.039	924.32
933.215	576.16
933.391	498.34
933.566	801.44
933.742	856.73
933.918	570.02
934.094	451.24
934.27	848.54
934.445	873.12
934.621	731.81
934.797	574.11
934.973	985.76
935.148	909.98
935.324	426.66
935.5	346.79
935.675	973.47
935.851	848.54
936.027	496.29
936.202	639.65
936.378	846.49
936.553	746.14
936.729	944.8
936.904	434.85
937.08	516.77
937.255	522.91
937.431	516.77
937.606	266.92
937.782	492.2
937.957	690.85
938.133	453.28
938.308	346.79
938.483	637.6
938.659	486.05
938.834	477.86
939.009	340.65
939.185	545.44
939.36	498.34
939.535	58.03
939.71	520.87
939.886	852.64
940.061	688.8
940.236	541.35
940.411	381.6
940.586	733.86
940.761	709.28
940.937	320.17
941.112	273.06
941.287	557.73
941.462	586.4
941.637	172.71
941.812	311.97
941.987	557.73
942.162	516.77
942.337	369.32
942.512	408.23
942.687	803.49
942.862	692.9
943.037	197.29
943.212	-15.7
943.386	494.24
943.561	541.35
943.736	467.62
943.911	602.79
944.086	656.03
944.26	590.5
944.435	369.32
944.61	441
944.785	813.73
944.959	1020.57
945.134	285.35
945.309	168.62
945.483	369.32
945.658	746.14
945.833	21.16
946.007	207.53
946.182	934.56
946.357	320.17
946.531	139.94
946.706	238.25
946.88	109.23
947.055	473.76
947.229	271.01
947.404	195.24
947.578	682.66
947.752	449.19
947.927	127.66
948.101	158.38
948.276	606.88
948.45	584.35
948.624	432.8
948.799	139.94
948.973	553.63
949.147	207.53
949.321	279.21
949.496	213.67
949.67	754.34
949.844	352.93
950.018	334.5
950.193	221.86
950.367	989.85
950.541	467.62
950.715	279.21
950.889	434.85
951.063	422.56
951.237	641.7
951.411	86.7
951.585	21.16
951.759	553.63
951.933	477.86
952.107	236.2
952.281	400.04
952.455	887.45
952.629	676.51
952.803	271.01
952.977	170.66
953.151	651.94
953.325	676.51
953.499	402.08
953.672	76.46
953.846	295.59
954.02	385.7
954.194	223.91
954.368	209.58
954.541	686.75
954.715	412.32
954.889	357.03
955.062	123.56
955.236	477.86
955.41	436.9
955.583	408.23
955.757	39.59
955.93	477.86
956.104	281.25
956.278	293.54
956.451	250.53
956.625	567.97
956.798	905.88
956.972	459.43
957.145	144.04
957.319	533.15
957.492	455.33
957.665	377.51
957.839	217.77
958.012	516.77
958.185	328.36
958.359	316.07
958.532	451.24
958.705	635.55
958.879	516.77
959.052	344.74
959.225	55.98
959.398	467.62
959.572	615.07
959.745	176.81
959.918	273.06
960.091	400.04
960.264	606.88
960.438	131.75
960.611	221.86
960.784	676.51
960.957	418.47
961.13	625.31
961.303	266.92
961.476	508.58
961.649	701.09
961.822	195.24
961.995	301.73
962.168	582.31
962.341	549.54
962.514	217.77
962.686	199.34
962.859	508.58
963.032	623.27
963.205	146.09
963.378	92.84
963.551	533.15
963.723	467.62
963.896	303.78
964.069	369.32
964.242	533.15
964.414	653.98
964.587	307.88
964.76	309.93
964.932	484
965.105	447.14
965.278	268.97
965.45	213.67
965.623	608.93
965.795	645.79
965.968	262.82
966.14	303.78
966.313	492.2
966.485	481.96
966.658	273.06
966.83	125.61
967.003	733.86
967.175	651.94
967.348	197.29
967.52	340.65
967.692	823.97
967.865	584.35
968.037	297.64
968.209	529.06
968.382	481.96
968.554	668.32
968.726	193.19
968.898	182.95
969.071	582.31
969.243	567.97
969.415	240.3
969.587	322.21
969.759	914.08
969.932	596.64
970.104	266.92
970.276	25.26
970.448	410.28
970.62	434.85
970.792	316.07
970.964	336.55
971.136	936.6
971.308	570.02
971.48	221.86
971.652	264.87
971.824	907.93
971.996	377.51
972.168	295.59
972.339	314.02
972.511	760.48
972.683	381.6
972.855	541.35
973.027	258.73
973.199	514.72
973.37	596.64
973.542	340.65
973.714	385.7
973.886	459.43
974.057	750.24
974.229	260.77
974.401	107.18
974.572	291.49
974.744	129.7
974.915	234.15
975.087	74.41
975.259	811.68
975.43	293.54
975.602	238.25
975.773	189.1
975.945	320.17
976.116	690.85
976.288	176.81
976.459	402.08
976.63	279.21
976.802	527.01
976.973	129.7
977.145	389.8
977.316	895.64
977.487	615.07
977.659	426.66
977.83	168.62
978.001	787.1
978.172	510.63
978.344	221.86
978.515	303.78
978.686	414.37
978.857	905.88
979.028	225.96
979.2	135.85
979.371	680.61
979.542	402.08
979.713	260.77
979.884	-40.28
980.055	268.97
980.226	361.13
980.397	260.77
980.568	101.03
980.739	699.04
980.91	332.45
981.081	402.08
981.252	221.86
981.423	633.51
981.594	670.37
981.765	180.9
981.936	324.26
982.106	471.72
982.277	719.52
982.448	197.29
982.619	397.99
982.79	430.76
982.96	692.9
983.131	314.02
983.302	2.73
983.472	291.49
983.643	592.55
983.814	328.36
983.984	180.9
984.155	438.95
984.326	680.61
984.496	285.35
984.667	240.3
984.837	297.64
985.008	733.86
985.178	385.7
985.349	262.82
985.519	518.82
985.69	324.26
985.86	223.91
986.031	150.18
986.201	522.91
986.371	637.6
986.542	58.03
986.712	74.41
986.882	578.21
987.053	522.91
987.223	189.1
987.393	363.17
987.563	291.49
987.734	565.92
987.904	475.81
988.074	176.81
988.244	561.83
988.414	309.93
988.585	152.23
988.755	287.4
988.925	359.08
989.095	815.77
989.265	139.94
989.435	121.51
989.605	606.88
989.775	578.21
989.945	422.56
990.115	107.18
990.285	363.17
990.455	469.67
990.625	283.3
990.795	80.55
990.965	746.14
991.134	293.54
991.304	154.28
991.474	166.57
991.644	459.43
991.814	803.49
991.984	82.6
992.153	148.14
992.323	438.95
992.493	461.48
992.662	-27.99
992.832	275.11
993.002	451.24
993.171	475.81
993.341	-50.52
993.511	238.25
993.68	332.45
993.85	504.48
994.019	21.16
994.189	72.36
994.358	471.72
994.528	289.45
994.697	-132.44
994.867	37.55
995.036	606.88
995.206	295.59
995.375	25.26
995.544	316.07
995.714	389.8
995.883	273.06
996.052	213.67
996.222	-56.66
996.391	873.12
996.56	447.14
996.73	49.83
996.899	-32.08
997.068	740
997.237	395.94
997.406	107.18
997.576	-23.89
997.745	385.7
997.914	443.04
998.083	-109.91
998.252	4.78
998.421	451.24
998.59	144.04
998.759	-30.04
998.928	-114
999.097	649.89
999.266	445.09
999.435	166.57
999.604	-116.05
999.773	830.11
999.942	225.96
1000.111	-105.81
1000.28	-73.04
1000.448	217.77
1000.617	31.4
1000.786	254.63
1000.955	-54.61
1001.124	469.67
1001.292	977.56
1001.461	-9.56
1001.63	-64.85
1001.798	699.04
1001.967	578.21
1002.136	-132.44
1002.304	39.59
1002.473	436.9
1002.642	361.13
1002.81	49.83
1002.979	-7.51
1003.147	617.12
1003.316	983.71
1003.484	-1.37
1003.653	-81.24
1003.821	664.22
1003.99	266.92
1004.158	115.37
1004.327	101.03
1004.495	508.58
1004.663	193.19
1004.832	199.34
1005	-159.06
1005.168	469.67
1005.337	334.5
1005.505	-122.2
1005.673	266.92
1005.842	406.18
1006.01	410.28
1006.178	-68.95
1006.346	-32.08
1006.514	461.48
1006.683	561.83
1006.851	0.68
1007.019	-146.77
1007.187	189.1
1007.355	4.78
1007.523	-210.26
1007.691	-103.76
1007.859	-64.85
1008.027	596.64
1008.195	-7.51
1008.363	-93.52
1008.531	537.25
1008.699	174.76
1008.867	-154.96
1009.035	17.07
1009.203	598.69
1009.37	275.11
1009.538	49.83
1009.706	465.57
1009.874	400.04
1010.042	225.96
1010.209	-154.96
1010.377	-128.34
1010.545	602.79
1010.713	301.73
1010.88	-126.29
1011.048	-9.56
1011.216	275.11
1011.383	576.16
1011.551	-75.09
1011.718	-130.39
1011.886	600.74
1012.054	365.22
1012.221	-56.66
1012.389	-101.72
1012.556	244.39
1012.724	772.77
1012.891	25.26
1013.058	-116.05
1013.226	473.76
1013.393	518.82
1013.561	-183.63
1013.728	-120.15
1013.895	453.28
1014.063	445.09
1014.23	-157.01
1014.397	-85.33
1014.565	496.29
1014.732	193.19
1014.899	-19.8
1015.066	-191.83
1015.233	336.55
1015.401	418.47
1015.568	-44.37
1015.735	109.23
1015.902	283.3
1016.069	434.85
1016.236	-62.8
1016.403	-79.19
1016.57	111.27
1016.737	639.65
1016.904	-85.33
1017.071	-89.43
1017.238	203.43
1017.405	451.24
1017.572	-3.41
1017.739	66.22
1017.906	436.9
1018.073	565.92
1018.24	-126.29
1018.407	41.64
1018.573	496.29
1018.74	238.25
1018.907	-11.61
1019.074	-200.02
1019.241	567.97
1019.407	258.73
1019.574	-81.24
1019.741	-159.06
1019.907	455.33
1020.074	449.19
1020.241	-296.27
1020.407	-148.82
1020.574	451.24
1020.74	469.67
1020.907	-1.37
1021.073	-116.05
1021.24	838.3
1021.406	567.97
1021.573	-146.77
1021.739	-159.06
1021.906	563.87
1022.072	295.59
1022.239	-3.41
1022.405	-175.44
1022.571	377.51
1022.738	105.13
1022.904	-114
1023.07	-40.28
1023.237	330.41
1023.403	512.67
1023.569	-46.42
1023.735	-77.14
1023.902	395.94
1024.068	320.17
1024.234	-89.43
1024.4	-120.15
1024.566	365.22
1024.732	539.3
1024.898	-77.14
1025.065	-218.45
1025.231	479.91
1025.397	180.9
1025.563	19.11
1025.729	-169.3
1025.895	-191.83
1026.061	74.41
1026.227	-165.2
1026.392	-148.82
1026.558	516.77
1026.724	443.04
1026.89	-181.59
1027.056	-30.04
1027.222	297.64
1027.388	82.6
1027.553	-68.95
1027.719	-75.09
1027.885	594.59
1028.051	338.6
1028.216	-288.08
1028.382	-95.57
1028.548	531.11
1028.713	195.24
1028.879	-208.21
1029.045	107.18
1029.21	656.03
1029.376	494.24
1029.541	2.73
1029.707	-71
1029.873	406.18
1030.038	436.9
1030.204	-171.35
1030.369	-54.61
1030.534	426.66
1030.7	158.38
1030.865	-126.29
1031.031	-175.44
1031.196	363.17
1031.361	221.86
1031.527	-85.33
1031.692	-114
1031.857	-146.77
1032.023	463.52
1032.188	-169.3
1032.353	-134.48
1032.518	658.08
1032.684	314.02
1032.849	-202.07
1033.014	-116.05
1033.179	426.66
1033.344	412.32
1033.509	-56.66
1033.674	-116.05
1033.839	410.28
1034.004	410.28
1034.17	-52.56
1034.335	-181.59
1034.5	219.82
1034.664	131.75
1034.829	-228.69
1034.994	-81.24
1035.159	322.21
1035.324	320.17
1035.489	-204.11
1035.654	-208.21
1035.819	506.53
1035.984	299.69
1036.148	-73.04
1036.313	-126.29
1036.478	465.57
1036.643	246.44
1036.807	-171.35
1036.972	-159.06
1037.137	561.83
1037.301	258.73
1037.466	-286.03
1037.631	-52.56
1037.795	531.11
1037.96	283.3
1038.124	160.42
1038.289	-171.35
1038.454	400.04
1038.618	328.36
1038.783	-64.85
1038.947	8.87
1039.111	262.82
1039.276	199.34
1039.44	-165.2
1039.605	363.17
1039.769	283.3
1039.933	254.63
1040.098	-30.04
1040.262	74.41
1040.426	479.91
1040.591	314.02
1040.755	-152.91
1040.919	-181.59
1041.083	336.55
1041.248	264.87
1041.412	-363.86
1041.576	-200.02
1041.74	185
1041.904	475.81
1042.068	-204.11
1042.232	-48.47
1042.397	496.29
1042.561	354.98
1042.725	-271.7
1042.889	25.26
1043.053	346.79
1043.217	389.8
1043.381	8.87
1043.544	-261.46
1043.708	502.44
1043.872	-1.37
1044.036	-376.14
1044.2	-281.94
1044.364	549.54
1044.528	582.31
1044.691	4756.07
1044.855	-159.06
1045.019	471.72
1045.183	391.84
1045.346	-89.43
1045.51	-150.87
1045.674	467.62
1045.837	436.9
1046.001	-60.76
1046.165	-159.06
1046.328	780.96
1046.492	455.33
1046.655	25.26
1046.819	-7.51
1046.983	148.14
1047.146	352.93
1047.31	-44.37
1047.473	-269.65
1047.636	205.48
1047.8	39.59
1047.963	-75.09
1048.127	-177.49
1048.29	21.16
