Data from Ink_Intensity_USB4F045381__40__00040.txt Node

Date: Mon Jul 17 09:53:15 EDT 2023
User: mmckonesweet
Spectrometer: USB4F04538
Trigger mode: 4
Integration Time (sec): 9.000000E-1
Scans to average: 1
Electric dark correction enabled: true
Nonlinearity correction enabled: false
Boxcar width: 0
XAxis mode: Wavelengths
Number of Pixels in Spectrum: 3648
>>>>>Begin Spectral Data<<<<<
345.52	-945.31
345.736	-945.31
345.952	-945.31
346.168	-904.35
346.384	-949.4
346.6	-148.65
346.816	-201.9
347.032	-183.46
347.248	238.42
347.464	-154.79
347.68	-148.65
347.896	131.92
348.112	318.29
348.328	-105.64
348.544	-54.44
348.76	58.2
348.975	250.71
349.191	-267.43
349.407	-148.65
349.623	15.19
349.839	-81.07
350.055	-138.41
350.27	52.05
350.486	174.93
350.702	258.9
350.918	193.36
351.133	-138.41
351.349	27.48
351.565	340.82
351.781	-214.18
351.996	-13.48
352.212	332.62
352.428	-185.51
352.644	-183.46
352.859	-281.77
353.075	281.43
353.291	13.14
353.506	-48.3
353.722	-308.39
353.938	-126.12
354.153	439.12
354.369	70.48
354.584	-253.09
354.8	146.26
355.016	-328.87
355.231	-238.76
355.447	-93.35
355.662	125.78
355.878	854.86
356.093	-363.69
356.309	-109.74
356.524	-205.99
356.74	172.88
356.955	-167.08
357.171	-33.96
357.386	195.41
357.602	-191.66
357.817	-64.68
358.033	-150.7
358.248	330.58
358.464	140.12
358.679	-113.83
358.895	-249
359.11	-33.96
359.325	361.3
359.541	201.55
359.756	70.48
359.972	-353.45
360.187	203.6
360.402	-138.41
360.618	-218.28
360.833	912.2
361.048	127.83
361.264	-167.08
361.479	-27.82
361.694	41.81
361.909	156.5
362.125	-124.07
362.34	-126.12
362.555	252.75
362.77	33.62
362.986	-306.34
363.201	-191.66
363.416	168.79
363.631	50
363.847	-255.14
364.062	-220.33
364.277	119.64
364.492	93.01
364.707	-142.5
364.922	-396.45
365.138	236.37
365.353	295.76
365.568	-261.29
365.783	-193.7
365.998	-54.44
366.213	506.7
366.428	-240.81
366.643	52.05
366.858	244.56
367.073	174.93
367.288	-97.45
367.503	-292.01
367.718	84.82
367.933	248.66
368.148	-289.96
368.363	-160.94
368.578	-54.44
368.793	289.62
369.008	-128.17
369.223	-253.09
369.438	95.06
369.653	371.54
369.868	-337.06
370.083	-234.66
370.298	29.52
370.513	250.71
370.728	11.09
370.943	-165.03
371.157	-158.89
371.372	455.5
371.587	-263.33
371.802	-234.66
372.017	82.77
372.232	439.12
372.446	-91.31
372.661	-222.38
372.876	181.07
373.091	142.16
373.306	-44.2
373.52	-249
373.735	-146.6
373.95	306
374.165	-72.87
374.379	-115.88
374.594	-165.03
374.809	66.39
375.023	-3.24
375.238	-246.95
375.453	248.66
375.667	-230.57
375.882	-154.79
376.097	-236.71
376.311	4.95
376.526	-40.11
376.741	-242.85
376.955	70.48
377.17	492.37
377.384	490.32
377.599	-97.45
377.813	-242.85
378.028	580.43
378.242	86.87
378.457	-83.11
378.672	-314.53
378.886	103.25
379.101	-66.73
379.315	-367.78
379.53	-171.18
379.744	117.59
379.958	174.93
380.173	-146.6
380.387	-167.08
380.602	97.11
380.816	-150.7
381.031	-152.74
381.245	-185.51
381.459	189.27
381.674	2523.95
381.888	-181.42
382.103	45.91
382.317	-345.25
382.531	414.54
382.746	-58.54
382.96	-199.85
383.174	-162.98
383.388	342.86
383.603	107.35
383.817	-302.25
384.031	121.68
384.246	394.06
384.46	19.29
384.674	248.66
384.888	-7.34
385.103	72.53
385.317	-306.34
385.531	-93.35
385.745	271.19
385.959	240.47
386.174	-205.99
386.388	-294.05
386.602	-142.5
386.816	-124.07
387.03	-177.32
387.244	-130.22
387.458	64.34
387.672	306
387.887	-265.38
388.101	-255.14
388.315	361.3
388.529	66.39
388.743	-179.37
388.957	-289.96
389.171	308.05
389.385	-269.48
389.599	-173.22
389.813	37.72
390.027	125.78
390.241	576.33
390.455	-89.26
390.669	-171.18
390.883	-126.12
391.097	297.81
391.311	43.86
391.525	-236.71
391.738	168.79
391.952	93.01
392.166	-76.97
392.38	-283.81
392.594	189.27
392.808	281.43
393.022	19.29
393.236	-222.38
393.449	127.83
393.663	95.06
393.877	-318.63
394.091	-113.83
394.305	-93.35
394.518	-113.83
394.732	-298.15
394.946	-140.46
395.16	422.73
395.373	64.34
395.587	-281.77
395.801	-138.41
396.015	230.23
396.228	88.92
396.442	-285.86
396.656	-292.01
396.869	260.95
397.083	375.63
397.297	-54.44
397.51	-187.56
397.724	299.86
397.938	11.09
398.151	-337.06
398.365	-240.81
398.578	117.59
398.792	303.95
399.005	-85.16
399.219	-132.26
399.433	119.64
399.646	201.55
399.86	7
400.073	-64.68
400.287	95.06
400.5	-165.03
400.714	-21.67
400.927	-46.25
401.141	127.83
401.354	910.15
401.567	183.12
401.781	-261.29
401.994	324.43
402.208	539.47
402.421	-144.55
402.635	-126.12
402.848	47.96
403.061	207.7
403.275	-101.55
403.488	-185.51
403.701	467.79
403.915	211.79
404.128	-60.59
404.341	-193.7
404.555	103.25
404.768	72.53
404.981	66.39
405.195	-183.46
405.408	467.79
405.621	113.49
405.834	-68.78
406.048	-216.23
406.261	340.82
406.474	437.07
406.687	-185.51
406.9	-5.29
407.114	33.62
407.327	9.05
407.54	-263.33
407.753	-316.58
407.966	-214.18
408.179	207.7
408.392	-210.09
408.605	-341.16
408.819	107.35
409.032	131.92
409.245	-222.38
409.458	60.24
409.671	160.59
409.884	189.27
410.097	-339.11
410.31	-42.15
410.523	95.06
410.736	-81.07
410.949	-48.3
411.162	-158.89
411.375	383.82
411.588	199.51
411.801	11.09
412.014	-205.99
412.227	52.05
412.44	-154.79
412.653	-179.37
412.865	23.38
413.078	187.22
413.291	150.36
413.504	-85.16
413.717	-199.85
413.93	176.98
414.143	-205.99
414.356	-162.98
414.568	-326.82
414.781	187.22
414.994	-15.53
415.207	-36.01
415.42	-74.92
415.632	279.38
415.845	428.88
416.058	-322.73
416.271	-259.24
416.483	-17.58
416.696	457.55
416.909	-263.33
417.121	-195.75
417.334	152.4
417.547	441.17
417.759	-187.56
417.972	-236.71
418.185	-56.49
418.397	248.66
418.61	-322.73
418.823	-212.14
419.035	416.59
419.248	33.62
419.46	-76.97
419.673	-76.97
419.885	197.46
420.098	-25.77
420.311	-169.13
420.523	-464.04
420.736	195.41
420.948	47.96
421.161	-273.57
421.373	-351.4
421.586	52.05
421.798	-128.17
422.01	-285.86
422.223	-111.78
422.435	-87.21
422.648	146.26
422.86	-193.7
423.073	-189.61
423.285	371.54
423.497	-240.81
423.71	-140.46
423.922	-332.97
424.134	21.33
424.347	408.4
424.559	62.29
424.771	25.43
424.984	-101.55
425.196	144.21
425.408	-357.54
425.621	-318.63
425.833	240.47
426.045	258.9
426.257	-228.52
426.47	-93.35
426.682	41.81
426.894	45.91
427.106	-179.37
427.318	-148.65
427.531	-119.98
427.743	150.36
427.955	-271.53
428.167	172.88
428.379	133.97
428.591	-72.87
428.804	-74.92
429.016	-246.95
429.228	-146.6
429.44	193.36
429.652	9.05
429.864	-335.01
430.076	-91.31
430.288	-27.82
430.5	-195.75
430.712	-23.72
430.924	207.7
431.136	-3.24
431.348	-339.11
431.56	-218.28
431.772	27.48
431.984	-199.85
432.196	-197.8
432.408	-203.94
432.62	-101.55
432.832	111.44
433.044	45.91
433.256	-79.02
433.468	213.84
433.679	-306.34
433.891	-292.01
434.103	-64.68
434.315	238.42
434.527	232.27
434.739	-146.6
434.95	-212.14
435.162	144.21
435.374	-113.83
435.586	-158.89
435.798	-191.66
436.009	-236.71
436.221	-40.11
436.433	-208.04
436.645	-144.55
436.856	-58.54
437.068	322.38
437.28	-310.44
437.491	142.16
437.703	43.86
437.915	0.85
438.126	-76.97
438.338	39.76
438.55	50
438.761	170.83
438.973	-154.79
439.184	-187.56
439.396	-42.15
439.608	189.27
439.819	-343.21
440.031	-38.06
440.242	168.79
440.454	146.26
440.665	-158.89
440.877	-126.12
441.088	80.72
441.3	11.09
441.511	-378.02
441.723	-205.99
441.934	123.73
442.146	9.05
442.357	-66.73
442.569	97.11
442.78	-23.72
442.991	385.87
443.203	93.01
443.414	-369.83
443.626	353.1
443.837	-158.89
444.048	-345.25
444.26	-394.4
444.471	17.24
444.682	250.71
444.894	-382.12
445.105	-345.25
445.316	289.62
445.528	111.44
445.739	-93.35
445.95	-132.26
446.161	82.77
446.373	252.75
446.584	-169.13
446.795	-259.24
447.006	76.63
447.217	385.87
447.429	-345.25
447.64	-341.16
447.851	295.76
448.062	-36.01
448.273	-306.34
448.484	-287.91
448.695	148.31
448.907	-81.07
449.118	-191.66
449.329	-64.68
449.54	-162.98
449.751	-181.42
449.962	-220.33
450.173	-271.53
450.384	230.23
450.595	193.36
450.806	-240.81
451.017	-109.74
451.228	316.24
451.439	160.59
451.65	-236.71
451.861	-402.6
452.072	-195.75
452.283	31.57
452.494	56.15
452.705	-271.53
452.915	293.71
453.126	107.35
453.337	-261.29
453.548	-228.52
453.759	283.47
453.97	416.59
454.181	-52.39
454.391	-140.46
454.602	70.48
454.813	140.12
455.024	-189.61
455.235	-175.27
455.445	23.38
455.656	160.59
455.867	-89.26
456.078	-152.74
456.288	-1.19
456.499	181.07
456.71	-253.09
456.921	23.38
457.131	107.35
457.342	19.29
457.553	-119.98
457.763	-205.99
457.974	125.78
458.184	193.36
458.395	-289.96
458.606	-310.44
458.816	176.98
459.027	467.79
459.237	-7.34
459.448	-298.15
459.659	246.61
459.869	500.56
460.08	-378.02
460.29	-48.3
460.501	518.99
460.711	-136.36
460.922	-330.92
461.132	-199.85
461.343	533.33
461.553	-265.38
461.764	-228.52
461.974	-226.47
462.184	174.93
462.395	95.06
462.605	-107.69
462.816	-251.05
463.026	35.67
463.236	324.43
463.447	-212.14
463.657	-316.58
463.867	193.36
464.078	-79.02
464.288	-255.14
464.498	-240.81
464.709	31.57
464.919	-23.72
465.129	-197.8
465.339	-289.96
465.55	37.72
465.76	279.38
465.97	-173.22
466.18	-242.85
466.391	103.25
466.601	138.07
466.811	-201.9
467.021	-265.38
467.231	140.12
467.441	291.66
467.651	-181.42
467.862	-423.08
468.072	-36.01
468.282	244.56
468.492	-249
468.702	-146.6
468.912	-5.29
469.122	547.66
469.332	-25.77
469.542	-257.19
469.752	195.41
469.962	-1.19
470.172	-283.81
470.382	-259.24
470.592	90.96
470.802	357.2
471.012	-152.74
471.222	-230.57
471.432	199.51
471.642	129.88
471.852	-162.98
472.062	-335.01
472.272	-64.68
472.482	-212.14
472.691	-322.73
472.901	-312.49
473.111	66.39
473.321	488.27
473.531	-298.15
473.741	-183.46
473.95	101.2
474.16	127.83
474.37	-179.37
474.58	-361.64
474.79	375.63
474.999	107.35
475.209	-292.01
475.419	-238.76
475.628	-91.31
475.838	271.19
476.048	-173.22
476.258	-339.11
476.467	174.93
476.677	-189.61
476.886	-126.12
477.096	-111.78
477.306	-201.9
477.515	289.62
477.725	-224.42
477.935	-160.94
478.144	336.72
478.354	-136.36
478.563	-218.28
478.773	-269.48
478.982	148.31
479.192	246.61
479.401	-109.74
479.611	-326.82
479.82	-175.27
480.03	29.52
480.239	-302.25
480.449	-310.44
480.658	361.3
480.868	-160.94
481.077	-148.65
481.287	-183.46
481.496	74.58
481.705	346.96
481.915	-1.19
482.124	-44.2
482.333	70.48
482.543	209.75
482.752	-115.88
482.961	-275.62
483.171	101.2
483.38	4.95
483.589	-212.14
483.799	-195.75
484.008	2.9
484.217	219.99
484.426	-158.89
484.636	-355.49
484.845	-11.43
485.054	-216.23
485.263	66.39
485.472	-191.66
485.682	349.01
485.891	68.44
486.1	-304.29
486.309	-136.36
486.518	82.77
486.727	281.43
486.936	-214.18
487.146	-136.36
487.355	363.34
487.564	-203.94
487.773	-236.71
487.982	-103.59
488.191	-140.46
488.4	0.85
488.609	-267.43
488.818	-208.04
489.027	537.42
489.236	371.54
489.445	-236.71
489.654	-308.39
489.863	127.83
490.072	9.05
490.281	150.36
490.49	-289.96
490.698	369.49
490.907	289.62
491.116	-246.95
491.325	-320.68
491.534	310.1
491.743	17.24
491.952	-146.6
492.16	-183.46
492.369	133.97
492.578	74.58
492.787	-115.88
492.996	-429.22
493.204	-105.64
493.413	443.21
493.622	-414.88
493.831	-451.75
494.039	287.57
494.248	-228.52
494.457	-230.57
494.665	-398.5
494.874	181.07
495.083	523.09
495.291	-199.85
495.5	-347.3
495.709	66.39
495.917	131.92
496.126	-167.08
496.335	-277.67
496.543	-58.54
496.752	17.24
496.96	-23.72
497.169	-343.21
497.377	7
497.586	254.8
497.794	-158.89
498.003	-367.78
498.211	-15.53
498.42	387.92
498.628	-95.4
498.837	-363.69
499.045	187.22
499.254	76.63
499.462	-195.75
499.671	-277.67
499.879	340.82
500.087	187.22
500.296	-230.57
500.504	-154.79
500.713	45.91
500.921	512.85
501.129	-226.47
501.338	-208.04
501.546	47.96
501.754	0.85
501.962	-210.09
502.171	-257.19
502.379	62.29
502.587	420.69
502.795	-148.65
503.004	-183.46
503.212	-97.45
503.42	219.99
503.628	-261.29
503.837	-201.9
504.045	160.59
504.253	435.02
504.461	-265.38
504.669	-380.07
504.877	240.47
505.085	256.85
505.294	-289.96
505.502	7
505.71	4.95
505.918	275.28
506.126	-238.76
506.334	-193.7
506.542	-140.46
506.75	125.78
506.958	-220.33
507.166	-146.6
507.374	-76.97
507.582	373.58
507.79	-115.88
507.998	-251.05
508.206	131.92
508.414	152.4
508.622	-294.05
508.83	-203.94
509.037	451.41
509.245	-21.67
509.453	-296.1
509.661	-263.33
509.869	236.37
510.077	-103.59
510.285	-152.74
510.492	-500.9
510.7	594.76
510.908	-142.5
511.116	-230.57
511.324	-203.94
511.531	-66.73
511.739	62.29
511.947	-126.12
512.155	17.24
512.362	-40.11
512.57	-224.42
512.778	-335.01
512.985	-320.68
513.193	217.94
513.401	359.25
513.608	-208.04
513.816	-238.76
514.024	150.36
514.231	314.19
514.439	-236.71
514.646	-191.66
514.854	129.88
515.061	224.08
515.269	-246.95
515.477	-220.33
515.684	-191.66
515.892	271.19
516.099	-287.91
516.307	-427.17
516.514	129.88
516.722	383.82
516.929	-234.66
517.136	-343.21
517.344	310.1
517.551	45.91
517.759	-171.18
517.966	-261.29
518.173	-113.83
518.381	15.19
518.588	-130.22
518.796	-275.62
519.003	203.6
519.21	-9.39
519.418	-189.61
519.625	31.57
519.832	19.29
520.039	66.39
520.247	-394.4
520.454	-251.05
520.661	256.85
520.868	74.58
521.076	-158.89
521.283	-175.27
521.49	574.28
521.697	109.4
521.904	-177.32
522.112	-316.58
522.319	144.21
522.526	166.74
522.733	-289.96
522.94	-283.81
523.147	-7.34
523.354	260.95
523.561	-457.89
523.768	-271.53
523.975	201.55
524.183	-21.67
524.39	-117.93
524.597	-326.82
524.804	-23.72
525.011	-220.33
525.218	-330.92
525.425	-238.76
525.632	326.48
525.838	-148.65
526.045	-162.98
526.252	-326.82
526.459	1049.41
526.666	760.65
526.873	-285.86
527.08	-191.66
527.287	320.34
527.494	191.31
527.701	-296.1
527.907	-255.14
528.114	82.77
528.321	47.96
528.528	-203.94
528.735	-246.95
528.941	-105.64
529.148	-72.87
529.355	-140.46
529.562	-363.69
529.768	437.07
529.975	-54.44
530.182	-179.37
530.388	-218.28
530.595	275.28
530.802	-240.81
531.008	-87.21
531.215	-255.14
531.422	709.45
531.628	639.82
531.835	-158.89
532.042	-144.55
532.248	-62.63
532.455	70.48
532.661	-146.6
532.868	-257.19
533.074	62.29
533.281	281.43
533.487	-222.38
533.694	-339.11
533.9	-142.5
534.107	144.21
534.313	-277.67
534.52	-289.96
534.726	285.52
534.933	418.64
535.139	-277.67
535.345	-351.4
535.552	27.48
535.758	64.34
535.965	-162.98
536.171	-222.38
536.377	226.13
536.584	373.58
536.79	-238.76
536.996	-132.26
537.203	2.9
537.409	127.83
537.615	-187.56
537.821	-44.2
538.028	78.68
538.234	207.7
538.44	-279.72
538.646	-130.22
538.853	142.16
539.059	-5.29
539.265	174.93
539.471	-447.65
539.677	269.14
539.883	-17.58
540.09	-238.76
540.296	166.74
540.502	23.38
540.708	-156.84
540.914	-83.11
541.12	-195.75
541.326	148.31
541.532	-5.29
541.738	-124.07
541.944	-165.03
542.15	262.99
542.356	-3.24
542.562	-281.77
542.768	-226.47
542.974	656.2
543.18	551.76
543.386	-244.9
543.592	-459.94
543.798	387.92
544.004	193.36
544.21	-240.81
544.415	-169.13
544.621	13.14
544.827	226.13
545.033	-308.39
545.239	-11.43
545.445	-119.98
545.651	33.62
545.856	-216.23
546.062	-253.09
546.268	-46.25
546.474	86.87
546.679	-195.75
546.885	-169.13
547.091	-5.29
547.297	543.57
547.502	-158.89
547.708	-345.25
547.914	-101.55
548.119	213.84
548.325	-271.53
548.531	-294.05
548.736	396.11
548.942	-81.07
549.147	-271.53
549.353	-33.96
549.559	314.19
549.764	181.07
549.97	-292.01
550.175	-183.46
550.381	176.98
550.586	-79.02
550.792	-165.03
550.997	-160.94
551.203	142.16
551.408	47.96
551.614	-244.9
551.819	-292.01
552.025	465.74
552.23	510.8
552.435	-314.53
552.641	-52.39
552.846	-72.87
553.052	295.76
553.257	-74.92
553.462	-238.76
553.668	-128.17
553.873	271.19
554.078	-244.9
554.283	-240.81
554.489	4.95
554.694	-5.29
554.899	-285.86
555.105	-29.87
555.31	215.89
555.515	303.95
555.72	-117.93
555.925	-281.77
556.131	195.41
556.336	-128.17
556.541	-273.57
556.746	-343.21
556.951	283.47
557.156	383.82
557.361	-113.83
557.567	-128.17
557.772	598.86
557.977	181.07
558.182	-160.94
558.387	-236.71
558.592	-42.15
558.797	306
559.002	-54.44
559.207	-66.73
559.412	-29.87
559.617	494.41
559.822	-208.04
560.027	-312.49
560.232	133.97
560.437	318.29
560.642	-312.49
560.847	-275.62
561.051	37.72
561.256	150.36
561.461	-146.6
561.666	-375.97
561.871	189.27
562.076	172.88
562.281	-154.79
562.485	-294.05
562.69	191.31
562.895	293.71
563.1	-171.18
563.305	-324.77
563.509	379.73
563.714	621.39
563.919	-165.03
564.123	-232.62
564.328	70.48
564.533	326.48
564.737	-189.61
564.942	-214.18
565.147	432.97
565.351	521.04
565.556	-79.02
565.761	-119.98
565.965	133.97
566.17	-64.68
566.374	-93.35
566.579	-222.38
566.784	66.39
566.988	-1.19
567.193	-347.3
567.397	-195.75
567.602	-244.9
567.806	43.86
568.011	-232.62
568.215	-126.12
568.42	54.1
568.624	-36.01
568.828	-179.37
569.033	-83.11
569.237	131.92
569.442	185.17
569.646	-289.96
569.85	-177.32
570.055	-17.58
570.259	109.4
570.463	-7.34
570.668	-236.71
570.872	99.16
571.076	-15.53
571.281	-58.54
571.485	-44.2
571.689	31.57
571.893	219.99
572.098	-29.87
572.302	-179.37
572.506	183.12
572.71	113.49
572.914	-193.7
573.119	-85.16
573.323	426.83
573.527	396.11
573.731	-167.08
573.935	-187.56
574.139	160.59
574.343	-156.84
574.547	-203.94
574.751	-195.75
574.955	306
575.159	324.43
575.364	-210.09
575.568	-275.62
575.772	37.72
575.976	383.82
576.18	-277.67
576.383	-279.72
576.587	262.99
576.791	230.23
576.995	-408.74
577.199	-412.84
577.403	320.34
577.607	394.06
577.811	-371.88
578.015	-95.4
578.219	140.12
578.422	346.96
578.626	-138.41
578.83	-33.96
579.034	385.87
579.238	19.29
579.442	-277.67
579.645	215.89
579.849	21.33
580.053	101.2
580.257	-60.59
580.46	-23.72
580.664	291.66
580.868	70.48
581.071	-19.63
581.275	-48.3
581.479	-175.27
581.682	154.45
581.886	-242.85
582.09	-7.34
582.293	277.33
582.497	336.72
582.7	78.68
582.904	-246.95
583.107	62.29
583.311	25.43
583.515	-44.2
583.718	-60.59
583.922	133.97
584.125	422.73
584.329	-281.77
584.532	64.34
584.735	365.39
584.939	219.99
585.142	-324.77
585.346	-136.36
585.549	189.27
585.753	-33.96
585.956	-199.85
586.159	-21.67
586.363	449.36
586.566	185.17
586.769	-267.43
586.973	-249
587.176	246.61
587.379	260.95
587.582	183.12
587.786	70.48
587.989	84.82
588.192	746.31
588.395	-36.01
588.599	152.4
588.802	170.83
589.005	262.99
589.208	-171.18
589.411	-70.83
589.615	353.1
589.818	500.56
590.021	156.5
590.224	-27.82
590.427	242.51
590.63	281.43
590.833	-271.53
591.036	-160.94
591.239	50
591.442	-93.35
591.645	58.2
591.848	-169.13
592.051	250.71
592.254	306
592.457	-76.97
592.66	-122.02
592.863	4.95
593.066	308.05
593.269	-115.88
593.472	-42.15
593.675	-76.97
593.878	359.25
594.081	-1.19
594.284	-222.38
594.486	293.71
594.689	84.82
594.892	-23.72
595.095	-185.51
595.298	240.47
595.5	2.9
595.703	7
595.906	47.96
596.109	504.65
596.311	396.11
596.514	-369.83
596.717	-13.48
596.92	400.21
597.122	187.22
597.325	-412.84
597.528	-122.02
597.73	484.17
597.933	166.74
598.136	-193.7
598.338	-384.16
598.541	289.62
598.743	400.21
598.946	-76.97
599.148	-85.16
599.351	310.1
599.554	342.86
599.756	23.38
599.959	-167.08
600.161	334.67
600.363	727.88
600.566	88.92
600.768	-113.83
600.971	598.86
601.173	334.67
601.376	-130.22
601.578	-68.78
601.78	217.94
601.983	555.85
602.185	-185.51
602.388	66.39
602.59	205.65
602.792	76.63
602.995	172.88
603.197	-203.94
603.399	310.1
603.601	297.81
603.804	-62.63
604.006	-119.98
604.208	107.35
604.41	-195.75
604.613	105.3
604.815	-156.84
605.017	688.97
605.219	11.09
605.421	181.07
605.623	-95.4
605.826	387.92
606.028	539.47
606.23	-132.26
606.432	-31.91
606.634	582.48
606.836	533.33
607.038	-111.78
607.24	39.76
607.442	207.7
607.644	193.36
607.846	101.2
608.048	-119.98
608.25	371.54
608.452	52.05
608.654	-66.73
608.856	-292.01
609.058	121.68
609.26	269.14
609.462	70.48
609.664	-46.25
609.866	564.04
610.067	336.72
610.269	58.2
610.471	-70.83
610.673	70.48
610.875	277.33
611.077	-199.85
611.278	37.72
611.48	154.45
611.682	613.2
611.884	43.86
612.085	-50.35
612.287	-76.97
612.489	322.38
612.69	-259.24
612.892	-9.39
613.094	289.62
613.295	142.16
613.497	-228.52
613.699	-40.11
613.9	580.43
614.102	353.1
614.304	-1.19
614.505	-191.66
614.707	78.68
614.908	105.3
615.11	-203.94
615.311	-13.48
615.513	344.91
615.714	336.72
615.916	-134.31
616.117	-60.59
616.319	158.55
616.52	383.82
616.722	-76.97
616.923	-130.22
617.124	371.54
617.326	400.21
617.527	31.57
617.729	160.59
617.93	447.31
618.131	383.82
618.333	-85.16
618.534	37.72
618.735	-36.01
618.937	467.79
619.138	-171.18
619.339	-91.31
619.54	379.73
619.742	64.34
619.943	21.33
620.144	-33.96
620.345	383.82
620.546	453.45
620.748	-93.35
620.949	-99.5
621.15	144.21
621.351	230.23
621.552	-109.74
621.753	-255.14
621.954	-64.68
622.155	648.01
622.356	-81.07
622.558	181.07
622.759	240.47
622.96	635.72
623.161	-15.53
623.362	-7.34
623.563	172.88
623.764	254.8
623.965	39.76
624.166	88.92
624.366	115.54
624.567	215.89
624.768	-326.82
624.969	33.62
625.17	168.79
625.371	449.36
625.572	35.67
625.773	-130.22
625.973	373.58
626.174	314.19
626.375	90.96
626.576	43.86
626.777	328.53
626.977	725.83
627.178	-111.78
627.379	127.83
627.58	185.17
627.78	262.99
627.981	119.64
628.182	82.77
628.382	496.46
628.583	-97.45
628.784	-154.79
628.984	142.16
629.185	344.91
629.386	338.77
629.586	80.72
629.787	-154.79
629.987	373.58
630.188	158.55
630.388	-54.44
630.589	29.52
630.79	824.14
630.99	201.55
631.191	37.72
631.391	39.76
631.591	467.79
631.792	572.24
631.992	152.4
632.193	-9.39
632.393	605
632.594	193.36
632.794	-109.74
632.994	131.92
633.195	252.75
633.395	217.94
633.595	-15.53
633.796	156.5
633.996	97.11
634.196	484.17
634.397	-122.02
634.597	144.21
634.797	54.1
634.997	586.57
635.198	228.18
635.398	-130.22
635.598	236.37
635.798	559.95
635.998	482.13
636.199	-48.3
636.399	127.83
636.599	19.29
636.799	82.77
636.999	287.57
637.199	316.24
637.399	406.35
637.599	-38.06
637.799	133.97
637.999	138.07
638.199	574.28
638.399	-130.22
638.599	33.62
638.799	355.15
638.999	742.22
639.199	176.98
639.399	50
639.599	633.68
639.799	52.05
639.999	-60.59
640.199	-148.65
640.399	289.62
640.599	322.38
640.799	117.59
640.998	162.64
641.198	574.28
641.398	340.82
641.598	201.55
641.798	82.77
641.997	1176.39
642.197	252.75
642.397	144.21
642.597	115.54
642.796	392.02
642.996	613.2
643.196	181.07
643.395	-128.17
643.595	355.15
643.795	-134.31
643.994	31.57
644.194	189.27
644.394	381.78
644.593	244.56
644.793	-113.83
644.992	80.72
645.192	416.59
645.392	-107.69
645.591	121.68
645.791	64.34
645.99	387.92
646.19	142.16
646.389	56.15
646.589	7
646.788	471.89
646.987	463.69
647.187	279.38
647.386	262.99
647.586	267.09
647.785	416.59
647.984	86.87
648.184	88.92
648.383	162.64
648.582	146.26
648.782	82.77
648.981	213.84
649.18	43.86
649.38	361.3
649.579	80.72
649.778	-31.91
649.977	357.2
650.177	404.3
650.376	-31.91
650.575	23.38
650.774	625.48
650.973	150.36
651.173	-132.26
651.372	138.07
651.571	316.24
651.77	570.19
651.969	35.67
652.168	195.41
652.367	-1.19
652.566	226.13
652.765	7
652.964	316.24
653.163	766.79
653.362	244.56
653.561	93.01
653.76	107.35
653.959	174.93
654.158	371.54
654.357	267.09
654.556	115.54
654.755	406.35
654.954	535.37
655.153	148.31
655.352	136.02
655.551	658.25
655.749	131.92
655.948	181.07
656.147	144.21
656.346	420.69
656.545	172.88
656.743	136.02
656.942	197.46
657.141	342.86
657.34	-3.24
657.538	80.72
657.737	21.33
657.936	209.75
658.135	416.59
658.333	41.81
658.532	103.25
658.731	709.45
658.929	488.27
659.128	383.82
659.326	88.92
659.525	578.38
659.724	187.22
659.922	-79.02
660.121	-126.12
660.319	355.15
660.518	90.96
660.716	-54.44
660.915	13.14
661.113	566.09
661.312	-50.35
661.51	152.4
661.709	-56.49
661.907	508.75
662.105	756.55
662.304	54.1
662.502	127.83
662.701	596.81
662.899	199.51
663.097	441.17
663.296	-68.78
663.494	523.09
663.692	662.35
663.891	129.88
664.089	74.58
664.287	328.53
664.485	615.24
664.684	27.48
664.882	205.65
665.08	262.99
665.278	338.77
665.476	-113.83
665.675	408.4
665.873	742.22
666.071	600.91
666.269	50
666.467	301.9
666.665	398.16
666.863	293.71
667.061	236.37
667.259	54.1
667.457	373.58
667.655	473.93
667.853	-48.3
668.051	234.32
668.249	62.29
668.447	453.45
668.645	-74.92
668.843	306
669.041	435.02
669.239	193.36
669.437	131.92
669.635	131.92
669.833	279.38
670.031	392.02
670.229	287.57
670.426	228.18
670.624	215.89
670.822	90.96
671.02	93.01
671.218	205.65
671.415	113.49
671.613	310.1
671.811	115.54
672.009	213.84
672.206	486.22
672.404	351.06
672.602	314.19
672.799	252.75
672.997	318.29
673.195	559.95
673.392	262.99
673.59	37.72
673.788	539.47
673.985	-66.73
674.183	158.55
674.38	152.4
674.578	424.78
674.775	160.59
674.973	-17.58
675.17	21.33
675.368	621.39
675.565	496.46
675.763	62.29
675.96	-44.2
676.158	582.48
676.355	312.14
676.553	168.79
676.75	207.7
676.947	299.86
677.145	215.89
677.342	183.12
677.539	154.45
677.737	410.45
677.934	863.05
678.131	357.2
678.329	129.88
678.526	654.16
678.723	402.26
678.92	217.94
679.118	105.3
679.315	93.01
679.512	680.78
679.709	164.69
679.906	236.37
680.104	615.24
680.301	353.1
680.498	47.96
680.695	70.48
680.892	123.73
681.089	228.18
681.286	230.23
681.483	54.1
681.68	531.28
681.877	523.09
682.075	283.47
682.272	416.59
682.469	484.17
682.665	328.53
682.862	62.29
683.059	-23.72
683.256	379.73
683.453	402.26
683.65	289.62
683.847	113.49
684.044	273.23
684.241	170.83
684.438	295.76
684.635	62.29
684.831	695.11
685.028	795.47
685.225	93.01
685.422	166.74
685.619	324.43
685.815	408.4
686.012	297.81
686.209	201.55
686.405	144.21
686.602	551.76
686.799	29.52
686.996	50
687.192	131.92
687.389	863.05
687.586	168.79
687.782	154.45
687.979	772.94
688.175	607.05
688.372	150.36
688.568	187.22
688.765	187.22
688.962	674.64
689.158	324.43
689.355	-50.35
689.551	510.8
689.748	148.31
689.944	363.34
690.14	95.06
690.337	516.94
690.533	289.62
690.73	262.99
690.926	236.37
691.123	465.74
691.319	301.9
691.515	-29.87
691.712	336.72
691.908	590.67
692.104	469.84
692.301	291.66
692.497	50
692.693	549.71
692.889	574.28
693.086	228.18
693.282	-7.34
693.478	289.62
693.674	660.3
693.87	176.98
694.067	-40.11
694.263	469.84
694.459	295.76
694.655	328.53
694.851	283.47
695.047	463.69
695.243	547.66
695.439	355.15
695.635	52.05
695.831	504.65
696.027	338.77
696.224	193.36
696.42	465.74
696.615	678.73
696.811	496.46
697.007	58.2
697.203	201.55
697.399	475.98
697.595	691.02
697.791	162.64
697.987	291.66
698.183	138.07
698.379	277.33
698.575	160.59
698.77	224.08
698.966	564.04
699.162	678.73
699.358	217.94
699.554	219.99
699.749	482.13
699.945	658.25
700.141	273.23
700.337	314.19
700.532	406.35
700.728	193.36
700.924	164.69
701.119	72.53
701.315	467.79
701.511	353.1
701.706	205.65
701.902	-46.25
702.097	412.5
702.293	537.42
702.489	363.34
702.684	224.08
702.88	342.86
703.075	353.1
703.271	254.8
703.466	-3.24
703.662	449.36
703.857	549.71
704.053	185.17
704.248	146.26
704.443	531.28
704.639	496.46
704.834	248.66
705.03	183.12
705.225	600.91
705.42	641.87
705.616	349.01
705.811	144.21
706.006	299.86
706.202	205.65
706.397	201.55
706.592	74.58
706.787	424.78
706.983	416.59
707.178	566.09
707.373	328.53
707.568	578.38
707.763	709.45
707.959	136.02
708.154	142.16
708.349	281.43
708.544	475.98
708.739	293.71
708.934	99.16
709.129	496.46
709.324	617.29
709.519	109.4
709.714	86.87
709.909	648.01
710.104	496.46
710.299	197.46
710.494	250.71
710.689	564.04
710.884	455.5
711.079	281.43
711.274	410.45
711.469	516.94
711.664	504.65
711.859	82.77
712.054	299.86
712.249	668.49
712.443	684.87
712.638	76.63
712.833	82.77
713.028	330.58
713.223	346.96
713.417	463.69
713.612	242.51
713.807	541.52
714.002	1028.93
714.196	435.02
714.391	136.02
714.586	613.2
714.78	316.24
714.975	273.23
715.17	281.43
715.364	320.34
715.559	609.1
715.754	-76.97
715.948	154.45
716.143	901.96
716.337	516.94
716.532	445.26
716.726	170.83
716.921	512.85
717.115	727.88
717.31	78.68
717.504	717.64
717.699	295.76
717.893	516.94
718.088	168.79
718.282	70.48
718.476	543.57
718.671	480.08
718.865	217.94
719.059	172.88
719.254	379.73
719.448	740.17
719.642	1440.58
719.837	11.09
720.031	518.99
720.225	684.87
720.419	248.66
720.614	222.03
720.808	633.68
721.002	437.07
721.196	195.41
721.39	191.31
721.585	805.71
721.779	566.09
721.973	260.95
722.167	62.29
722.361	543.57
722.555	660.3
722.749	213.84
722.943	140.12
723.137	154.45
723.331	471.89
723.525	287.57
723.719	197.46
723.913	635.72
724.107	791.37
724.301	45.91
724.495	240.47
724.689	836.42
724.883	697.16
725.077	142.16
725.271	258.9
725.465	736.07
725.659	478.03
725.853	306
726.046	50
726.24	281.43
726.434	629.58
726.628	199.51
726.822	340.82
727.015	691.02
727.209	752.46
727.403	222.03
727.596	125.78
727.79	639.82
727.984	562
728.177	240.47
728.371	267.09
728.565	768.84
728.758	213.84
728.952	95.06
729.146	277.33
729.339	770.89
729.533	412.5
729.726	308.05
729.92	86.87
730.113	731.98
730.307	518.99
730.5	115.54
730.694	152.4
730.887	371.54
731.081	578.38
731.274	129.88
731.468	297.81
731.661	375.63
731.854	252.75
732.048	303.95
732.241	86.87
732.435	252.75
732.628	535.37
732.821	367.44
733.014	217.94
733.208	172.88
733.401	703.31
733.594	148.31
733.788	273.23
733.981	701.26
734.174	506.7
734.367	260.95
734.56	387.92
734.754	693.07
734.947	486.22
735.14	142.16
735.333	342.86
735.526	666.44
735.719	213.84
735.912	121.68
736.105	144.21
736.298	478.03
736.491	385.87
736.684	213.84
736.877	88.92
737.07	516.94
737.263	736.07
737.456	179.03
737.649	113.49
737.842	336.72
738.035	426.83
738.228	273.23
738.421	414.54
738.614	719.69
738.807	549.71
739	111.44
739.192	133.97
739.385	467.79
739.578	566.09
739.771	426.83
739.964	246.61
740.156	537.42
740.349	445.26
740.542	377.68
740.735	7
740.927	207.7
741.12	136.02
741.313	162.64
741.505	344.91
741.698	492.37
741.891	480.08
742.083	492.37
742.276	195.41
742.468	392.02
742.661	461.65
742.854	201.55
743.046	203.6
743.239	846.66
743.431	322.38
743.624	219.99
743.816	17.24
744.009	322.38
744.201	623.44
744.393	461.65
744.586	146.26
744.778	631.63
744.971	447.31
745.163	242.51
745.355	349.01
745.548	412.5
745.74	361.3
745.932	396.11
746.125	199.51
746.317	932.68
746.509	486.22
746.702	207.7
746.894	279.38
747.086	475.98
747.278	666.44
747.471	308.05
747.663	351.06
747.855	422.73
748.047	740.17
748.239	146.26
748.431	150.36
748.623	797.51
748.815	861
749.008	164.69
749.2	84.82
749.392	531.28
749.584	496.46
749.776	320.34
749.968	277.33
750.16	930.63
750.352	349.01
750.544	240.47
750.736	125.78
750.928	609.1
751.12	533.33
751.311	125.78
751.503	267.09
751.695	488.27
751.887	357.2
752.079	-72.87
752.271	217.94
752.463	1196.87
752.654	625.48
752.846	320.34
753.038	244.56
753.23	355.15
753.421	576.33
753.613	301.9
753.805	381.78
753.997	605
754.188	617.29
754.38	148.31
754.572	183.12
754.763	326.48
754.955	578.38
755.146	301.9
755.338	340.82
755.53	516.94
755.721	449.36
755.913	123.73
756.104	197.46
756.296	435.02
756.487	627.53
756.679	166.74
756.87	312.14
757.062	334.67
757.253	586.57
757.445	240.47
757.636	201.55
757.827	457.55
758.019	959.3
758.21	189.27
758.401	279.38
758.593	947.01
758.784	770.89
758.975	150.36
759.167	226.13
759.358	471.89
759.549	740.17
759.74	246.61
759.932	191.31
760.123	789.32
760.314	299.86
760.505	361.3
760.696	197.46
760.888	844.62
761.079	340.82
761.27	129.88
761.461	21.33
761.652	805.71
761.843	328.53
762.034	197.46
762.225	512.85
762.416	463.69
762.607	504.65
762.798	273.23
762.989	199.51
763.18	1141.57
763.371	369.49
763.562	209.75
763.753	334.67
763.944	584.52
764.135	590.67
764.326	342.86
764.517	269.14
764.708	480.08
764.899	502.61
765.089	275.28
765.28	107.35
765.471	480.08
765.662	541.52
765.853	328.53
766.043	105.3
766.234	691.02
766.425	639.82
766.615	324.43
766.806	107.35
766.997	787.27
767.187	562
767.378	209.75
767.569	25.43
767.759	564.04
767.95	533.33
768.141	365.39
768.331	181.07
768.522	371.54
768.712	670.54
768.903	211.79
769.093	168.79
769.284	875.34
769.474	445.26
769.665	45.91
769.855	-23.72
770.046	504.65
770.236	385.87
770.426	430.93
770.617	185.17
770.807	619.34
770.998	416.59
771.188	375.63
771.378	78.68
771.569	637.77
771.759	631.63
771.949	103.25
772.139	31.57
772.33	529.23
772.52	824.14
772.71	166.74
772.9	144.21
773.09	834.38
773.281	731.98
773.471	203.6
773.661	314.19
773.851	662.35
774.041	271.19
774.231	176.98
774.421	269.14
774.611	850.76
774.802	500.56
774.992	283.47
775.182	150.36
775.372	357.2
775.562	805.71
775.752	322.38
775.942	176.98
776.131	750.41
776.321	570.19
776.511	222.03
776.701	156.5
776.891	678.73
777.081	199.51
777.271	277.33
777.461	31.57
777.651	619.34
777.84	654.16
778.03	351.06
778.22	111.44
778.41	799.56
778.599	228.18
778.789	377.68
778.979	140.12
779.169	586.57
779.358	422.73
779.548	539.47
779.738	136.02
779.927	523.09
780.117	201.55
780.307	287.57
780.496	-105.64
780.686	447.31
780.875	850.76
781.065	176.98
781.254	152.4
781.444	525.13
781.633	355.15
781.823	185.17
782.012	131.92
782.202	357.2
782.391	463.69
782.581	131.92
782.77	336.72
782.96	660.3
783.149	396.11
783.338	240.47
783.528	88.92
783.717	557.9
783.906	697.16
784.096	297.81
784.285	33.62
784.474	357.2
784.663	275.28
784.853	271.19
785.042	236.37
785.231	279.38
785.42	643.92
785.61	369.49
785.799	41.81
785.988	342.86
786.177	420.69
786.366	242.51
786.555	396.11
786.744	658.25
786.933	439.12
787.122	86.87
787.312	148.31
787.501	381.78
787.69	521.04
787.879	201.55
788.068	123.73
788.257	179.03
788.445	351.06
788.634	285.52
788.823	105.3
789.012	1098.56
789.201	707.4
789.39	349.01
789.579	125.78
789.768	373.58
789.957	406.35
790.145	142.16
790.334	-111.78
790.523	209.75
790.712	246.61
790.9	213.84
791.089	60.24
791.278	607.05
791.467	414.54
791.655	443.21
791.844	648.01
792.033	318.29
792.221	379.73
792.41	328.53
792.599	109.4
792.787	549.71
792.976	514.89
793.164	189.27
793.353	123.73
793.541	605
793.73	508.75
793.918	226.13
794.107	232.27
794.295	373.58
794.484	486.22
794.672	258.9
794.861	219.99
795.049	488.27
795.238	840.52
795.426	76.63
795.614	332.62
795.803	518.99
795.991	768.84
796.179	205.65
796.368	150.36
796.556	703.31
796.744	281.43
796.932	185.17
797.121	152.4
797.309	328.53
797.497	658.25
797.685	363.34
797.874	176.98
798.062	383.82
798.25	742.22
798.438	103.25
798.626	162.64
798.814	545.61
799.002	994.12
799.19	371.54
799.378	222.03
799.566	645.96
799.755	820.04
799.943	385.87
800.131	121.68
800.318	508.75
800.506	492.37
800.694	217.94
800.882	265.04
801.07	695.11
801.258	422.73
801.446	224.08
801.634	193.36
801.822	459.6
802.01	342.86
802.197	107.35
802.385	396.11
802.573	404.3
802.761	236.37
802.949	283.47
803.136	76.63
803.324	703.31
803.512	471.89
803.699	230.23
803.887	-40.11
804.075	811.85
804.262	283.47
804.45	54.1
804.638	291.66
804.825	271.19
805.013	291.66
805.201	222.03
805.388	86.87
805.576	371.54
805.763	785.23
805.951	215.89
806.138	412.5
806.326	904.01
806.513	562
806.701	244.56
806.888	115.54
807.075	580.43
807.263	807.75
807.45	88.92
807.638	301.9
807.825	824.14
808.012	662.35
808.2	283.47
808.387	471.89
808.574	531.28
808.761	748.36
808.949	82.77
809.136	260.95
809.323	344.91
809.51	357.2
809.698	441.17
809.885	396.11
810.072	443.21
810.259	717.64
810.446	357.2
810.633	148.31
810.82	740.17
811.008	736.07
811.195	408.4
811.382	328.53
811.569	443.21
811.756	158.55
811.943	265.04
812.13	238.42
812.317	283.47
812.504	363.34
812.691	334.67
812.878	322.38
813.064	779.08
813.251	453.45
813.438	-5.29
813.625	379.73
813.812	437.07
813.999	389.97
814.186	293.71
814.372	217.94
814.559	445.26
814.746	766.79
814.933	355.15
815.12	387.92
815.306	377.68
815.493	195.41
815.68	185.17
815.866	346.96
816.053	744.27
816.24	1006.41
816.426	340.82
816.613	99.16
816.799	641.87
816.986	770.89
817.173	152.4
817.359	230.23
817.546	412.5
817.732	265.04
817.919	-19.63
818.105	432.97
818.292	312.14
818.478	547.66
818.665	281.43
818.851	191.31
819.037	944.97
819.224	412.5
819.41	144.21
819.597	209.75
819.783	779.08
819.969	516.94
820.156	295.76
820.342	191.31
820.528	1137.48
820.714	490.32
820.901	463.69
821.087	127.83
821.273	813.9
821.459	385.87
821.646	78.68
821.832	193.36
822.018	490.32
822.204	564.04
822.39	246.61
822.576	25.43
822.762	533.33
822.948	594.76
823.134	492.37
823.32	248.66
823.507	224.08
823.693	516.94
823.879	578.38
824.065	232.27
824.25	516.94
824.436	222.03
824.622	260.95
824.808	123.73
824.994	254.8
825.18	330.58
825.366	183.12
825.552	136.02
825.738	349.01
825.923	695.11
826.109	510.8
826.295	160.59
826.481	246.61
826.667	357.2
826.852	346.96
827.038	179.03
827.224	688.97
827.409	848.71
827.595	84.82
827.781	441.17
827.966	555.85
828.152	623.44
828.338	306
828.523	154.45
828.709	258.9
828.894	713.55
829.08	254.8
829.266	111.44
829.451	299.86
829.637	668.49
829.822	353.1
830.008	166.74
830.193	633.68
830.378	863.05
830.564	322.38
830.749	150.36
830.935	531.28
831.12	617.29
831.305	164.69
831.491	293.71
831.676	207.7
831.861	787.27
832.047	265.04
832.232	152.4
832.417	648.01
832.602	525.13
832.788	318.29
832.973	86.87
833.158	426.83
833.343	449.36
833.528	318.29
833.714	340.82
833.899	580.43
834.084	832.33
834.269	394.06
834.454	230.23
834.639	627.53
834.824	410.45
835.009	375.63
835.194	430.93
835.379	498.51
835.564	770.89
835.749	443.21
835.934	168.79
836.119	629.58
836.304	533.33
836.489	222.03
836.674	430.93
836.859	250.71
837.044	789.32
837.228	250.71
837.413	193.36
837.598	500.56
837.783	715.59
837.968	209.75
838.152	123.73
838.337	-50.35
838.522	639.82
838.707	652.11
838.891	385.87
839.076	580.43
839.261	674.64
839.445	224.08
839.63	338.77
839.815	887.62
839.999	404.3
840.184	222.03
840.368	234.32
840.553	656.2
840.737	652.11
840.922	117.59
841.106	103.25
841.291	183.12
841.475	457.55
841.66	265.04
841.844	250.71
842.029	1188.68
842.213	107.35
842.397	193.36
842.582	129.88
842.766	768.84
842.951	641.87
843.135	283.47
843.319	201.55
843.504	459.6
843.688	631.63
843.872	78.68
844.056	215.89
844.241	531.28
844.425	441.17
844.609	369.49
844.793	-3.24
844.977	658.25
845.161	576.33
845.346	82.77
845.53	236.37
845.714	381.78
845.898	852.81
846.082	-5.29
846.266	140.12
846.45	385.87
846.634	496.46
846.818	279.38
847.002	328.53
847.186	584.52
847.37	252.75
847.554	144.21
847.738	322.38
847.922	512.85
848.106	566.09
848.29	142.16
848.473	181.07
848.657	539.47
848.841	445.26
849.025	258.9
849.209	37.72
849.392	566.09
849.576	349.01
849.76	-7.34
849.944	301.9
850.127	830.28
850.311	170.83
850.495	199.51
850.678	17.24
850.862	795.47
851.046	838.47
851.229	359.25
851.413	158.55
851.596	467.79
851.78	410.45
851.964	287.57
852.147	269.14
852.331	1203.01
852.514	680.78
852.698	349.01
852.881	168.79
853.065	643.92
853.248	332.62
853.431	312.14
853.615	310.1
853.798	949.06
853.982	523.09
854.165	291.66
854.348	207.7
854.532	228.18
854.715	271.19
854.898	287.57
855.081	244.56
855.265	820.04
855.448	781.13
855.631	119.64
855.814	256.85
855.997	680.78
856.181	418.64
856.364	330.58
856.547	105.3
856.73	475.98
856.913	484.17
857.096	125.78
857.279	267.09
857.462	303.95
857.645	736.07
857.828	279.38
858.011	330.58
858.194	351.06
858.377	678.73
858.56	136.02
858.743	176.98
858.926	289.62
859.109	496.46
859.292	197.46
859.475	23.38
859.658	734.03
859.841	564.04
860.023	74.58
860.206	111.44
860.389	516.94
860.572	774.99
860.755	201.55
860.937	267.09
861.12	361.3
861.303	480.08
861.486	312.14
861.668	197.46
861.851	617.29
862.034	482.13
862.216	357.2
862.399	27.48
862.581	521.04
862.764	877.38
862.947	285.52
863.129	152.4
863.312	254.8
863.494	815.94
863.677	527.18
863.859	15.19
864.042	590.67
864.224	809.8
864.406	222.03
864.589	84.82
864.771	480.08
864.954	203.6
865.136	111.44
865.318	29.52
865.501	557.9
865.683	-38.06
865.865	193.36
866.048	154.45
866.23	484.17
866.412	426.83
866.594	107.35
866.777	240.47
866.959	605
867.141	308.05
867.323	547.66
867.505	283.47
867.687	398.16
867.869	478.03
868.052	338.77
868.234	90.96
868.416	416.59
868.598	672.59
868.78	191.31
868.962	107.35
869.144	703.31
869.326	734.03
869.508	228.18
869.69	113.49
869.872	258.9
870.054	627.53
870.236	109.4
870.417	90.96
870.599	398.16
870.781	834.38
870.963	379.73
871.145	150.36
871.327	152.4
871.508	641.87
871.69	179.03
871.872	297.81
872.054	392.02
872.235	543.57
872.417	234.32
872.599	111.44
872.78	660.3
872.962	447.31
873.144	47.96
873.325	201.55
873.507	912.2
873.689	400.21
873.87	82.77
874.052	344.91
874.233	406.35
874.415	688.97
874.596	262.99
874.778	72.53
874.959	381.78
875.141	555.85
875.322	215.89
875.503	144.21
875.685	592.72
875.866	-38.06
876.048	33.62
876.229	78.68
876.41	340.82
876.592	486.22
876.773	117.59
876.954	41.81
877.136	783.18
877.317	344.91
877.498	29.52
877.679	281.43
877.86	639.82
878.042	389.97
878.223	127.83
878.404	381.78
878.585	609.1
878.766	811.85
878.947	396.11
879.128	353.1
879.309	621.39
879.49	594.76
879.672	234.32
879.853	291.66
880.034	256.85
880.215	318.29
880.396	308.05
880.576	179.03
880.757	267.09
880.938	762.7
881.119	99.16
881.3	162.64
881.481	295.76
881.662	1196.87
881.843	97.11
882.023	-62.63
882.204	500.56
882.385	500.56
882.566	164.69
882.747	99.16
882.927	383.82
883.108	430.93
883.289	148.31
883.469	496.46
883.65	252.75
883.831	381.78
884.011	369.49
884.192	207.7
884.373	635.72
884.553	500.56
884.734	299.86
884.914	545.61
885.095	961.35
885.275	744.27
885.456	529.23
885.636	62.29
885.817	422.73
885.997	392.02
886.178	123.73
886.358	197.46
886.538	426.83
886.719	1286.98
886.899	99.16
887.08	365.39
887.26	650.06
887.44	181.07
887.621	156.5
887.801	361.3
887.981	1024.84
888.161	521.04
888.342	306
888.522	232.27
888.702	662.35
888.882	740.17
889.062	336.72
889.242	-27.82
889.423	752.46
889.603	578.38
889.783	398.16
889.963	213.84
890.143	537.42
890.323	709.45
890.503	138.07
890.683	209.75
890.863	478.03
891.043	529.23
891.223	396.11
891.403	389.97
891.583	465.74
891.763	484.17
891.943	269.14
892.122	146.26
892.302	492.37
892.482	473.93
892.662	389.97
892.842	269.14
893.022	596.81
893.201	295.76
893.381	334.67
893.561	205.65
893.741	723.79
893.92	537.42
894.1	412.5
894.28	285.52
894.459	598.86
894.639	549.71
894.819	301.9
894.998	301.9
895.178	602.96
895.357	594.76
895.537	140.12
895.716	76.63
895.896	553.8
896.075	842.57
896.255	252.75
896.434	60.24
896.614	635.72
896.793	758.6
896.973	369.49
897.152	392.02
897.331	605
897.511	670.54
897.69	140.12
897.87	297.81
898.049	586.57
898.228	494.41
898.407	453.45
898.587	418.64
898.766	308.05
898.945	666.44
899.124	512.85
899.304	369.49
899.483	680.78
899.662	850.76
899.841	224.08
900.02	285.52
900.199	836.42
900.378	545.61
900.557	279.38
900.737	136.02
900.916	619.34
901.095	660.3
901.274	523.09
901.453	207.7
901.632	267.09
901.811	293.71
901.989	181.07
902.168	172.88
902.347	639.82
902.526	398.16
902.705	234.32
902.884	310.1
903.063	817.99
903.242	846.66
903.42	258.9
903.599	365.39
903.778	684.87
903.957	809.8
904.135	328.53
904.314	310.1
904.493	531.28
904.672	619.34
904.85	234.32
905.029	250.71
905.207	598.86
905.386	1229.63
905.565	172.88
905.743	238.42
905.922	367.44
906.1	703.31
906.279	162.64
906.457	195.41
906.636	406.35
906.814	451.41
906.993	187.22
907.171	238.42
907.35	723.79
907.528	627.53
907.707	453.45
907.885	174.93
908.063	1010.5
908.242	330.58
908.42	299.86
908.598	43.86
908.777	629.58
908.955	269.14
909.133	357.2
909.311	127.83
909.49	373.58
909.668	518.99
909.846	230.23
910.024	52.05
910.202	432.97
910.38	627.53
910.559	111.44
910.737	211.79
910.915	598.86
911.093	514.89
911.271	234.32
911.449	492.37
911.627	576.33
911.805	873.29
911.983	256.85
912.161	262.99
912.339	549.71
912.517	731.98
912.695	410.45
912.872	328.53
913.05	281.43
913.228	500.56
913.406	193.36
913.584	148.31
913.762	613.2
913.939	342.86
914.117	222.03
914.295	121.68
914.473	639.82
914.65	463.69
914.828	166.74
915.006	201.55
915.184	201.55
915.361	475.98
915.539	344.91
915.716	457.55
915.894	551.76
916.072	721.74
916.249	414.54
916.427	342.86
916.604	168.79
916.782	611.15
916.959	136.02
917.137	285.52
917.314	592.72
917.492	574.28
917.669	306
917.847	336.72
918.024	578.38
918.201	346.96
918.379	373.58
918.556	316.24
918.733	656.2
918.911	459.6
919.088	512.85
919.265	285.52
919.442	613.2
919.62	398.16
919.797	107.35
919.974	133.97
920.151	453.45
920.328	498.51
920.506	250.71
920.683	443.21
920.86	254.8
921.037	275.28
921.214	299.86
921.391	142.16
921.568	637.77
921.745	187.22
921.922	316.24
922.099	84.82
922.276	662.35
922.453	523.09
922.63	176.98
922.807	537.42
922.984	480.08
923.161	283.47
923.338	332.62
923.514	129.88
923.691	410.45
923.868	521.04
924.045	203.6
924.222	68.44
924.399	482.13
924.575	662.35
924.752	242.51
924.929	287.57
925.105	500.56
925.282	197.46
925.459	189.27
925.635	308.05
925.812	398.16
925.989	181.07
926.165	308.05
926.342	84.82
926.518	170.83
926.695	439.12
926.871	121.68
927.048	105.3
927.224	670.54
927.401	328.53
927.577	246.61
927.754	99.16
927.93	600.91
928.107	496.46
928.283	133.97
928.459	373.58
928.636	508.75
928.812	285.52
928.988	88.92
929.165	19.29
929.341	398.16
929.517	447.31
929.693	627.53
929.87	33.62
930.046	529.23
930.222	308.05
930.398	199.51
930.574	279.38
930.751	389.97
930.927	297.81
931.103	224.08
931.279	238.42
931.455	191.31
931.631	430.93
931.807	9.05
931.983	56.15
932.159	60.24
932.335	484.17
932.511	181.07
932.687	166.74
932.863	437.07
933.039	420.69
933.215	142.16
933.391	103.25
933.566	379.73
933.742	303.95
933.918	156.5
934.094	27.48
934.27	381.78
934.445	326.48
934.621	336.72
934.797	84.82
934.973	590.67
935.148	488.27
935.324	29.52
935.5	-128.17
935.675	584.52
935.851	467.79
936.027	148.31
936.202	201.55
936.378	439.12
936.553	256.85
936.729	467.79
936.904	70.48
937.08	62.29
937.255	279.38
937.431	58.2
937.606	-42.15
937.782	242.51
937.957	320.34
938.133	148.31
938.308	-5.29
938.483	338.77
938.659	107.35
938.834	213.84
939.009	111.44
939.185	170.83
939.36	121.68
939.535	-220.33
939.71	250.71
939.886	463.69
940.061	535.37
940.236	172.88
940.411	115.54
940.586	328.53
940.761	355.15
940.937	84.82
941.112	-48.3
941.287	295.76
941.462	297.81
941.637	-89.26
941.812	66.39
941.987	416.59
942.162	226.13
942.337	140.12
942.512	-15.53
942.687	398.16
942.862	359.25
943.037	-58.54
943.212	-238.76
943.386	133.97
943.561	310.1
943.736	164.69
943.911	322.38
944.086	297.81
944.26	291.66
944.435	-25.77
944.61	156.5
944.785	490.32
944.959	590.67
945.134	123.73
945.309	-148.65
945.483	39.76
945.658	568.14
945.833	-201.9
946.007	-134.31
946.182	688.97
946.357	-31.91
946.531	-40.11
946.706	-72.87
946.88	-173.22
947.055	195.41
947.229	-50.35
947.404	-33.96
947.578	435.02
947.752	115.54
947.927	-138.41
948.101	-64.68
948.276	193.36
948.45	254.8
948.624	160.59
948.799	-113.83
948.973	299.86
949.147	-62.63
949.321	109.4
949.496	-11.43
949.67	502.61
949.844	213.84
950.018	-29.87
950.193	33.62
950.367	734.03
950.541	0.85
950.715	158.55
950.889	158.55
951.063	78.68
951.237	385.87
951.411	-185.51
951.585	-48.3
951.759	285.52
951.933	219.99
952.107	-93.35
952.281	162.64
952.455	514.89
952.629	377.68
952.803	-152.74
952.977	-62.63
953.151	338.77
953.325	295.76
953.499	185.17
953.672	-111.78
953.846	-46.25
954.02	66.39
954.194	-117.93
954.368	-85.16
954.541	312.14
954.715	27.48
954.889	136.02
955.062	-101.55
955.236	162.64
955.41	86.87
955.583	136.02
955.757	-113.83
955.93	183.12
956.104	-23.72
956.278	-66.73
956.451	93.01
956.625	349.01
956.798	637.77
956.972	287.57
957.145	-165.03
957.319	226.13
957.492	95.06
957.665	158.55
957.839	-117.93
958.012	306
958.185	-42.15
958.359	-31.91
958.532	193.36
958.705	418.64
958.879	340.82
959.052	37.72
959.225	-179.37
959.398	187.22
959.572	271.19
959.745	-87.21
959.918	68.44
960.091	113.49
960.264	303.95
960.438	-124.07
960.611	-95.4
960.784	353.1
960.957	93.01
961.13	250.71
961.303	-64.68
961.476	201.55
961.649	394.06
961.822	-97.45
961.995	62.29
962.168	379.73
962.341	136.02
962.514	4.95
962.686	-11.43
962.859	289.62
963.032	353.1
963.205	-9.39
963.378	-212.14
963.551	346.96
963.723	201.55
963.896	140.12
964.069	213.84
964.242	142.16
964.414	308.05
964.587	33.62
964.76	17.24
964.932	193.36
965.105	154.45
965.278	11.09
965.45	-107.69
965.623	224.08
965.795	275.28
965.968	-40.11
966.14	0.85
966.313	181.07
966.485	271.19
966.658	72.53
966.83	-105.64
967.003	451.41
967.175	400.21
967.348	27.48
967.52	13.14
967.692	564.04
967.865	127.83
968.037	11.09
968.209	224.08
968.382	168.79
968.554	349.01
968.726	15.19
968.898	-99.5
969.071	224.08
969.243	283.47
969.415	19.29
969.587	74.58
969.759	709.45
969.932	361.3
970.104	17.24
970.276	-339.11
970.448	121.68
970.62	185.17
970.792	93.01
970.964	54.1
971.136	471.89
971.308	314.19
971.48	-31.91
971.652	-38.06
971.824	574.28
971.996	140.12
972.168	0.85
972.339	39.76
972.511	451.41
972.683	68.44
972.855	267.09
973.027	11.09
973.199	209.75
973.37	330.58
973.542	185.17
973.714	142.16
973.886	213.84
974.057	445.26
974.229	-140.46
974.401	-56.49
974.572	21.33
974.744	-228.52
974.915	-7.34
975.087	-136.36
975.259	527.18
975.43	15.19
975.602	2.9
975.773	-134.31
975.945	-1.19
976.116	361.3
976.288	-134.31
976.459	154.45
976.63	95.06
976.802	326.48
976.973	21.33
977.145	80.72
977.316	596.81
977.487	549.71
977.659	103.25
977.83	17.24
978.001	643.92
978.172	244.56
978.344	-122.02
978.515	68.44
978.686	9.05
978.857	449.36
979.028	-11.43
979.2	-95.4
979.371	410.45
979.542	219.99
979.713	162.64
979.884	-408.74
980.055	31.57
980.226	238.42
980.397	-29.87
980.568	-117.93
980.739	414.54
980.91	172.88
981.081	189.27
981.252	-64.68
981.423	375.63
981.594	422.73
981.765	-107.69
981.936	97.11
982.106	148.31
982.277	418.64
982.448	-68.78
982.619	80.72
982.79	70.48
982.96	514.89
983.131	58.2
983.302	-144.55
983.472	76.63
983.643	236.37
983.814	29.52
983.984	-81.07
984.155	84.82
984.326	389.97
984.496	70.48
984.667	-54.44
984.837	88.92
985.008	443.21
985.178	133.97
985.349	15.19
985.519	13.14
985.69	66.39
985.86	54.1
986.031	-107.69
986.201	258.9
986.371	375.63
986.542	-54.44
986.712	-242.85
986.882	293.71
987.053	252.75
987.223	-167.08
987.393	68.44
987.563	119.64
987.734	285.52
987.904	236.37
988.074	-54.44
988.244	195.41
988.414	109.4
988.585	-79.02
988.755	41.81
988.925	93.01
989.095	559.95
989.265	-64.68
989.435	-17.58
989.605	318.29
989.775	207.7
989.945	262.99
990.115	-167.08
990.285	181.07
990.455	205.65
990.625	70.48
990.795	-134.31
990.965	582.48
991.134	-52.39
991.304	-87.21
991.474	-72.87
991.644	234.32
991.814	449.36
991.984	-199.85
992.153	-58.54
992.323	119.64
992.493	158.55
992.662	-249
992.832	93.01
993.002	162.64
993.171	228.18
993.341	-162.98
993.511	56.15
993.68	-1.19
993.85	342.86
994.019	-240.81
994.189	-148.65
994.358	152.4
994.528	25.43
994.697	-339.11
994.867	-203.94
995.036	301.9
995.206	50
995.375	-160.94
995.544	35.67
995.714	267.09
995.883	84.82
996.052	50
996.222	-244.9
996.391	660.3
996.56	136.02
996.73	-150.7
996.899	-244.9
997.068	463.69
997.237	142.16
997.406	-101.55
997.576	-68.78
997.745	230.23
997.914	168.79
998.083	-337.06
998.252	-138.41
998.421	176.98
998.59	27.48
998.759	-208.04
998.928	-353.45
999.097	430.93
999.266	269.14
999.435	56.15
999.604	-287.91
999.773	633.68
999.942	25.43
1000.111	-244.9
1000.28	-259.24
1000.448	-9.39
1000.617	-109.74
1000.786	70.48
1000.955	-289.96
1001.124	291.66
1001.292	746.31
1001.461	-230.57
1001.63	-179.37
1001.798	521.04
1001.967	432.97
1002.136	-259.24
1002.304	-210.09
1002.473	277.33
1002.642	131.92
1002.81	-150.7
1002.979	-232.62
1003.147	258.9
1003.316	660.3
1003.484	-105.64
1003.653	-249
1003.821	459.6
1003.99	88.92
1004.158	-58.54
1004.327	-132.26
1004.495	199.51
1004.663	64.34
1004.832	-66.73
1005	-355.49
1005.168	287.57
1005.337	131.92
1005.505	-279.72
1005.673	-3.24
1005.842	275.28
1006.01	258.9
1006.178	-259.24
1006.346	-203.94
1006.514	215.89
1006.683	396.11
1006.851	-246.95
1007.019	-271.53
1007.187	-138.41
1007.355	-341.16
1007.523	-431.27
1007.691	-330.92
1007.859	-124.07
1008.027	291.66
1008.195	-158.89
1008.363	-298.15
1008.531	318.29
1008.699	-19.63
1008.867	-187.56
1009.035	-205.99
1009.203	316.24
1009.37	123.73
1009.538	-162.98
1009.706	187.22
1009.874	129.88
1010.042	19.29
1010.209	-316.58
1010.377	-265.38
1010.545	303.95
1010.713	150.36
1010.88	-298.15
1011.048	-126.12
1011.216	-3.24
1011.383	435.02
1011.551	-267.43
1011.718	-226.47
1011.886	330.58
1012.054	142.16
1012.221	-240.81
1012.389	-263.33
1012.556	-7.34
1012.724	486.22
1012.891	-38.06
1013.058	-330.92
1013.226	185.17
1013.393	269.14
1013.561	-294.05
1013.728	-392.36
1013.895	287.57
1014.063	291.66
1014.23	-363.69
1014.397	-259.24
1014.565	285.52
1014.732	-7.34
1014.899	-306.34
1015.066	-330.92
1015.233	86.87
1015.401	164.69
1015.568	-216.23
1015.735	-124.07
1015.902	152.4
1016.069	160.59
1016.236	-201.9
1016.403	-199.85
1016.57	-89.26
1016.737	234.32
1016.904	-185.51
1017.071	-220.33
1017.238	-130.22
1017.405	332.62
1017.572	-193.7
1017.739	4.95
1017.906	166.74
1018.073	381.78
1018.24	-261.29
1018.407	-205.99
1018.573	383.82
1018.74	-7.34
1018.907	-173.22
1019.074	-351.4
1019.241	322.38
1019.407	103.25
1019.574	-251.05
1019.741	-406.69
1019.907	156.5
1020.074	166.74
1020.241	-474.28
1020.407	-277.67
1020.574	277.33
1020.74	279.38
1020.907	-148.65
1021.073	-205.99
1021.24	598.86
1021.406	447.31
1021.573	-369.83
1021.739	-179.37
1021.906	254.8
1022.072	78.68
1022.239	-199.85
1022.405	-226.47
1022.571	70.48
1022.738	-42.15
1022.904	-273.57
1023.07	-214.18
1023.237	224.08
1023.403	289.62
1023.569	-218.28
1023.735	-136.36
1023.902	152.4
1024.068	185.17
1024.234	-257.19
1024.4	-249
1024.566	252.75
1024.732	267.09
1024.898	-236.71
1025.065	-380.07
1025.231	293.71
1025.397	-15.53
1025.563	-236.71
1025.729	-308.39
1025.895	-361.64
1026.061	-23.72
1026.227	-390.31
1026.392	-130.22
1026.558	342.86
1026.724	219.99
1026.89	-332.97
1027.056	-181.42
1027.222	250.71
1027.388	25.43
1027.553	-214.18
1027.719	-275.62
1027.885	467.79
1028.051	176.98
1028.216	-378.02
1028.382	-232.62
1028.548	269.14
1028.713	25.43
1028.879	-310.44
1029.045	-83.11
1029.21	486.22
1029.376	371.54
1029.541	-150.7
1029.707	-171.18
1029.873	262.99
1030.038	303.95
1030.204	-226.47
1030.369	-216.23
1030.534	236.37
1030.7	43.86
1030.865	-210.09
1031.031	-273.57
1031.196	193.36
1031.361	248.66
1031.527	-220.33
1031.692	-318.63
1031.857	-263.33
1032.023	349.01
1032.188	-300.2
1032.353	-177.32
1032.518	518.99
1032.684	166.74
1032.849	-380.07
1033.014	-193.7
1033.179	344.91
1033.344	254.8
1033.509	-130.22
1033.674	-199.85
1033.839	279.38
1034.004	262.99
1034.17	-185.51
1034.335	-371.88
1034.5	-21.67
1034.664	9.05
1034.829	-193.7
1034.994	-214.18
1035.159	242.51
1035.324	181.07
1035.489	-255.14
1035.654	-224.42
1035.819	447.31
1035.984	152.4
1036.148	-148.65
1036.313	-117.93
1036.478	418.64
1036.643	60.24
1036.807	-171.18
1036.972	-201.9
1037.137	443.21
1037.301	172.88
1037.466	-347.3
1037.631	-93.35
1037.795	375.63
1037.96	289.62
1038.124	15.19
1038.289	-345.25
1038.454	310.1
1038.618	205.65
1038.783	-113.83
1038.947	-216.23
1039.111	262.99
1039.276	82.77
1039.44	-228.52
1039.605	228.18
1039.769	60.24
1039.933	193.36
1040.098	-179.37
1040.262	97.11
1040.426	408.4
1040.591	275.28
1040.755	-259.24
1040.919	-187.56
1041.083	150.36
1041.248	119.64
1041.412	-312.49
1041.576	-335.01
1041.74	23.38
1041.904	414.54
1042.068	-269.48
1042.232	-152.74
1042.397	203.6
1042.561	295.76
1042.725	-404.64
1042.889	-7.34
1043.053	287.57
1043.217	267.09
1043.381	-130.22
1043.544	-337.06
1043.708	299.86
1043.872	-64.68
1044.036	-447.65
1044.2	-361.64
1044.364	449.36
1044.528	504.65
1044.691	2458.42
1044.855	-351.4
1045.019	312.14
1045.183	381.78
1045.346	-210.09
1045.51	-222.38
1045.674	334.67
1045.837	228.18
1046.001	-212.14
1046.165	-183.46
1046.328	635.72
1046.492	303.95
1046.655	-46.25
1046.819	-115.88
1046.983	37.72
1047.146	262.99
1047.31	-126.12
1047.473	-357.54
1047.636	156.5
1047.8	31.57
1047.963	-165.03
1048.127	-287.91
1048.29	-11.43
