Data from Ink_Intensity_USB4F045381__149__00149.txt Node

Date: Mon Jul 17 11:27:33 EDT 2023
User: mmckonesweet
Spectrometer: USB4F04538
Trigger mode: 4
Integration Time (sec): 9.000000E-1
Scans to average: 1
Electric dark correction enabled: true
Nonlinearity correction enabled: false
Boxcar width: 0
XAxis mode: Wavelengths
Number of Pixels in Spectrum: 3648
>>>>>Begin Spectral Data<<<<<
345.52	-970.91
345.736	-970.91
345.952	-970.91
346.168	-1007.77
346.384	-1003.68
346.6	-149.67
346.816	-252.07
347.032	-235.69
347.248	372.56
347.464	-250.02
347.68	-82.09
347.896	42.84
348.112	395.09
348.328	-37.03
348.544	-69.8
348.76	-4.27
348.975	270.16
349.191	-237.74
349.407	-247.97
349.623	16.21
349.839	-16.55
350.055	-63.66
350.27	30.55
350.486	196.43
350.702	327.5
350.918	218.96
351.133	-147.62
351.349	157.52
351.565	452.43
351.781	-233.64
351.996	1.88
352.212	225.11
352.428	-139.43
352.644	-182.44
352.859	-243.88
353.075	282.45
353.291	77.65
353.506	-188.58
353.722	-204.97
353.938	-61.61
354.153	364.37
354.369	98.13
354.584	-166.06
354.8	221.01
355.016	-348.33
355.231	-213.16
355.447	-39.08
355.662	147.28
355.878	814.92
356.093	-352.42
356.309	-2.22
356.524	-254.12
356.74	223.06
356.955	-164.01
357.171	-69.8
357.386	231.25
357.602	-139.43
357.817	-145.58
358.033	-200.87
358.248	460.62
358.464	151.38
358.679	-188.58
358.895	-295.08
359.11	36.69
359.325	333.65
359.541	132.95
359.756	30.55
359.972	-286.89
360.187	120.66
360.402	-229.54
360.618	-190.63
360.833	991.05
361.048	98.13
361.264	-221.35
361.479	40.79
361.694	-10.41
361.909	278.35
362.125	-176.3
362.34	-61.61
362.555	202.58
362.77	73.56
362.986	-290.98
363.201	-151.72
363.416	161.62
363.631	81.75
363.847	-192.68
364.062	-123.05
364.277	212.82
364.492	149.33
364.707	-252.07
364.922	-362.66
365.138	298.83
365.353	315.22
365.568	-297.13
365.783	-178.34
365.998	155.47
366.213	548.68
366.428	-182.44
366.643	-22.7
366.858	247.63
367.073	167.76
367.288	-88.23
367.503	-245.93
367.718	184.15
367.933	210.77
368.148	-256.17
368.363	-94.38
368.578	14.17
368.793	479.05
369.008	-106.67
369.223	-209.06
369.438	245.59
369.653	403.28
369.868	-258.21
370.083	-204.97
370.298	151.38
370.513	358.22
370.728	-51.37
370.943	-200.87
371.157	-192.68
371.372	601.93
371.587	-221.35
371.802	-204.97
372.017	69.46
372.232	384.85
372.446	-51.37
372.661	-270.5
372.876	266.07
373.091	73.56
373.306	-51.37
373.52	-204.97
373.735	-233.64
373.95	450.38
374.165	3.93
374.379	-75.95
374.594	-90.28
374.809	83.8
375.023	81.75
375.238	-213.16
375.453	272.21
375.667	-286.89
375.882	-161.96
376.097	-63.66
376.311	57.17
376.526	-47.27
376.741	-155.82
376.955	96.08
377.17	524.11
377.384	550.73
377.599	-110.76
377.813	-174.25
378.028	649.04
378.242	239.44
378.457	-39.08
378.672	-379.04
378.886	71.51
379.101	22.36
379.315	-307.37
379.53	-188.58
379.744	126.8
379.958	196.43
380.173	-170.15
380.387	-237.74
380.602	231.25
380.816	-45.23
381.031	-204.97
381.245	-194.73
381.459	120.66
381.674	876.36
381.888	-176.3
382.103	100.18
382.317	-118.95
382.531	569.16
382.746	-20.65
382.96	-164.01
383.174	-20.65
383.388	466.77
383.603	69.46
383.817	-282.79
384.031	180.05
384.246	501.58
384.46	-47.27
384.674	239.44
384.888	40.79
385.103	16.21
385.317	-219.3
385.531	-55.47
385.745	360.27
385.959	374.61
386.174	-176.3
386.388	-286.89
386.602	124.76
386.816	-155.82
387.03	-22.7
387.244	-139.43
387.458	-8.36
387.672	411.47
387.887	-317.61
388.101	-319.65
388.315	352.08
388.529	194.39
388.743	-112.81
388.957	-229.54
389.171	366.42
389.385	-131.24
389.599	-82.09
389.813	81.75
390.027	194.39
390.241	597.84
390.455	-129.19
390.669	-98.47
390.883	-47.27
391.097	388.94
391.311	57.17
391.525	-98.47
391.738	204.63
391.952	241.49
392.166	20.31
392.38	-188.58
392.594	323.41
392.808	309.07
393.022	-125.1
393.236	-190.63
393.449	241.49
393.663	173.91
393.877	-262.31
394.091	-86.19
394.305	102.23
394.518	-90.28
394.732	-254.12
394.946	-135.34
395.16	354.13
395.373	75.6
395.587	-243.88
395.801	-145.58
396.015	229.2
396.228	167.76
396.442	-243.88
396.656	-311.46
396.869	247.63
397.083	474.96
397.297	-112.81
397.51	-229.54
397.724	427.85
397.938	159.57
398.151	-266.41
398.365	-258.21
398.578	223.06
398.792	352.08
399.005	-43.18
399.219	-84.14
399.433	192.34
399.646	190.29
399.86	8.02
400.073	-8.36
400.287	278.35
400.5	26.45
400.714	75.6
400.927	-51.37
401.141	290.64
401.354	1052.49
401.567	241.49
401.781	-172.2
401.994	321.36
402.208	577.36
402.421	-145.58
402.635	-118.95
402.848	65.36
403.061	309.07
403.275	-102.57
403.488	-219.3
403.701	462.67
403.915	225.11
404.128	48.98
404.341	-129.19
404.555	145.24
404.768	32.6
404.981	73.56
405.195	-247.97
405.408	407.38
405.621	304.98
405.834	20.31
406.048	-184.49
406.261	405.33
406.474	417.61
406.687	-180.39
406.9	5.97
407.114	28.5
407.327	227.15
407.54	-319.65
407.753	-284.84
407.966	-114.86
408.179	284.5
408.392	-270.5
408.605	-307.37
408.819	165.71
409.032	280.4
409.245	-252.07
409.458	61.27
409.671	313.17
409.884	202.58
410.097	-305.32
410.31	-30.89
410.523	221.01
410.736	3.93
410.949	-71.85
411.162	-92.33
411.375	425.81
411.588	290.64
411.801	34.64
412.014	-186.54
412.227	12.12
412.44	-26.79
412.653	-194.73
412.865	40.79
413.078	196.43
413.291	180.05
413.504	-153.77
413.717	-258.21
413.93	270.16
414.143	-102.57
414.356	-106.67
414.568	-209.06
414.781	298.83
414.994	141.14
415.207	-90.28
415.42	-106.67
415.632	360.27
415.845	556.88
416.058	-247.97
416.271	-309.41
416.483	94.04
416.696	565.07
416.909	-151.72
417.121	-184.49
417.334	247.63
417.547	515.92
417.759	-135.34
417.972	-155.82
418.185	-49.32
418.397	304.98
418.61	-225.45
418.823	-114.86
419.035	405.33
419.248	-28.84
419.46	-63.66
419.673	-137.38
419.885	180.05
420.098	-61.61
420.311	-127.14
420.523	-336.04
420.736	231.25
420.948	24.4
421.161	-184.49
421.373	-336.04
421.586	106.32
421.798	-114.86
422.01	-233.64
422.223	-137.38
422.435	3.93
422.648	186.19
422.86	-178.34
423.073	-176.3
423.285	294.74
423.497	-241.83
423.71	-176.3
423.922	-221.35
424.134	132.95
424.347	442.19
424.559	-32.94
424.771	77.65
424.984	-0.17
425.196	233.3
425.408	-266.41
425.621	-344.23
425.833	343.89
426.045	362.32
426.257	-278.69
426.47	-155.82
426.682	173.91
426.894	147.28
427.106	-145.58
427.318	-245.93
427.531	-188.58
427.743	251.73
427.955	-166.06
428.167	206.67
428.379	141.14
428.591	8.02
428.804	-59.56
429.016	-188.58
429.228	36.69
429.44	188.24
429.652	12.12
429.864	-307.37
430.076	-32.94
430.288	24.4
430.5	-18.6
430.712	-22.7
430.924	309.07
431.136	59.22
431.348	-270.5
431.56	-135.34
431.772	16.21
431.984	14.17
432.196	-159.91
432.408	-176.3
432.62	-47.27
432.832	59.22
433.044	114.52
433.256	-104.62
433.468	309.07
433.679	-307.37
433.891	-243.88
434.103	73.56
434.315	417.61
434.527	225.11
434.739	-98.47
434.95	-145.58
435.162	274.26
435.374	-14.51
435.586	-121
435.798	-231.59
436.009	-147.62
436.221	-57.51
436.433	-213.16
436.645	-73.9
436.856	18.26
437.068	405.33
437.28	-155.82
437.491	75.6
437.703	81.75
437.915	192.34
438.126	-157.86
438.338	85.84
438.55	-8.36
438.761	212.82
438.973	-188.58
439.184	-159.91
439.396	149.33
439.608	278.35
439.819	-229.54
440.031	-73.9
440.242	167.76
440.454	237.39
440.665	-114.86
440.877	-26.79
441.088	120.66
441.3	-24.75
441.511	-299.17
441.723	-250.02
441.934	208.72
442.146	89.94
442.357	55.12
442.569	100.18
442.78	81.75
442.991	485.2
443.203	190.29
443.414	-309.41
443.626	356.18
443.837	-133.29
444.048	-293.03
444.26	-305.32
444.471	42.84
444.682	214.87
444.894	-368.81
445.105	-331.94
445.316	270.16
445.528	184.15
445.739	-49.32
445.95	-112.81
446.161	210.77
446.373	339.79
446.584	-182.44
446.795	-168.1
447.006	149.33
447.217	425.81
447.429	-293.03
447.64	-266.41
447.851	307.02
448.062	106.32
448.273	-350.37
448.484	-217.26
448.695	216.91
448.907	-2.22
449.118	-86.19
449.329	-12.46
449.54	-73.9
449.751	-200.87
449.962	-211.11
450.173	-217.26
450.384	327.5
450.595	329.55
450.806	-159.91
451.017	-123.05
451.228	411.47
451.439	261.97
451.65	-141.48
451.861	-323.75
452.072	-200.87
452.283	85.84
452.494	-4.27
452.705	-233.64
452.915	460.62
453.126	186.19
453.337	-166.06
453.548	-241.83
453.759	270.16
453.97	501.58
454.181	22.36
454.391	-172.2
454.602	42.84
454.813	210.77
455.024	-153.77
455.235	-239.78
455.445	110.42
455.656	210.77
455.867	-98.47
456.078	-254.12
456.288	69.46
456.499	182.1
456.71	-202.92
456.921	3.93
457.131	214.87
457.342	110.42
457.553	-110.76
457.763	-200.87
457.974	225.11
458.184	278.35
458.395	-297.13
458.606	-252.07
458.816	255.83
459.027	440.14
459.237	-112.81
459.448	-409.76
459.659	352.08
459.869	560.97
460.08	-299.17
460.29	-63.66
460.501	520.01
460.711	-51.37
460.922	-299.17
461.132	-270.5
461.343	692.04
461.553	-192.68
461.764	-243.88
461.974	-217.26
462.184	270.16
462.395	196.43
462.605	-121
462.816	-254.12
463.026	100.18
463.236	345.94
463.447	-245.93
463.657	-200.87
463.867	247.63
464.078	24.4
464.288	-172.2
464.498	-188.58
464.709	75.6
464.919	26.45
465.129	-114.86
465.339	-229.54
465.55	163.67
465.76	323.41
465.97	-192.68
466.18	-229.54
466.391	335.7
466.601	173.91
466.811	-131.24
467.021	-348.33
467.231	167.76
467.441	366.42
467.651	-80.04
467.862	-483.49
468.072	28.5
468.282	313.17
468.492	-170.15
468.702	-131.24
468.912	24.4
469.122	681.8
469.332	94.04
469.542	-282.79
469.752	153.43
469.962	118.61
470.172	-274.6
470.382	-250.02
470.592	302.93
470.802	393.04
471.012	-131.24
471.222	-258.21
471.432	286.54
471.642	343.89
471.852	-45.23
472.062	-166.06
472.272	-6.31
472.482	-268.45
472.691	-176.3
472.901	-260.26
473.111	106.32
473.321	589.64
473.531	-278.69
473.741	-172.2
473.95	194.39
474.16	249.68
474.37	-135.34
474.58	-319.65
474.79	560.97
474.999	249.68
475.209	-237.74
475.419	-202.92
475.628	-28.84
475.838	354.13
476.048	-174.25
476.258	-278.69
476.467	358.22
476.677	57.17
476.886	-51.37
477.096	-209.06
477.306	-77.99
477.515	341.84
477.725	-170.15
477.935	-121
478.144	298.83
478.354	-94.38
478.563	-215.21
478.773	-184.49
478.982	212.82
479.192	298.83
479.401	-80.04
479.611	-207.02
479.82	-114.86
480.03	40.79
480.239	-211.11
480.449	-301.22
480.658	417.61
480.868	-188.58
481.077	-112.81
481.287	-104.62
481.496	178
481.705	444.24
481.915	65.36
482.124	98.13
482.333	139.09
482.543	380.75
482.752	-131.24
482.961	-213.16
483.171	313.17
483.38	122.71
483.589	-127.14
483.799	-254.12
484.008	57.17
484.217	247.63
484.426	-164.01
484.636	-307.37
484.845	184.15
485.054	-217.26
485.263	108.37
485.472	-221.35
485.682	434
485.891	61.27
486.1	-303.27
486.309	-295.08
486.518	229.2
486.727	323.41
486.936	-137.38
487.146	-4.27
487.355	376.66
487.564	-133.29
487.773	-145.58
487.982	-133.29
488.191	-6.31
488.4	36.69
488.609	-172.2
488.818	-196.78
489.027	591.69
489.236	341.84
489.445	-118.95
489.654	-211.11
489.863	274.26
490.072	141.14
490.281	83.8
490.49	-127.14
490.698	495.44
490.907	386.9
491.116	-186.54
491.325	-467.11
491.534	368.46
491.743	89.94
491.952	-84.14
492.16	-125.1
492.369	173.91
492.578	274.26
492.787	-139.43
492.996	-340.13
493.204	-63.66
493.413	507.73
493.622	-377
493.831	-452.77
494.039	434
494.248	-192.68
494.457	-198.82
494.665	-401.57
494.874	245.59
495.083	517.97
495.291	-159.91
495.5	-237.74
495.709	280.4
495.917	126.8
496.126	-34.99
496.335	-254.12
496.543	-41.13
496.752	130.9
496.96	59.22
497.169	-360.61
497.377	16.21
497.586	325.46
497.794	-32.94
498.003	-309.41
498.211	71.51
498.42	362.32
498.628	-164.01
498.837	-225.45
499.045	229.2
499.254	155.47
499.462	-192.68
499.671	-200.87
499.879	450.38
500.087	339.79
500.296	-262.31
500.504	-110.76
500.713	147.28
500.921	573.26
501.129	-221.35
501.338	-170.15
501.546	110.42
501.754	122.71
501.962	-188.58
502.171	-278.69
502.379	165.71
502.587	464.72
502.795	-104.62
503.004	-202.92
503.212	20.31
503.42	419.66
503.628	-174.25
503.837	-90.28
504.045	272.21
504.253	477.01
504.461	-190.63
504.669	-385.19
504.877	182.1
505.085	438.09
505.294	-319.65
505.502	28.5
505.71	145.24
505.918	302.93
506.126	-233.64
506.334	-268.45
506.542	48.98
506.75	116.56
506.958	-174.25
507.166	-147.62
507.374	-37.03
507.582	483.15
507.79	-73.9
507.998	-188.58
508.206	233.3
508.414	155.47
508.622	-245.93
508.83	-184.49
509.037	462.67
509.245	104.28
509.453	-266.41
509.661	-319.65
509.869	264.02
510.077	89.94
510.285	-98.47
510.492	-430.24
510.7	632.65
510.908	-8.36
511.116	-174.25
511.324	-200.87
511.531	67.41
511.739	55.12
511.947	-80.04
512.155	69.46
512.362	188.24
512.57	-209.06
512.778	-227.5
512.985	-374.95
513.193	266.07
513.401	532.3
513.608	-190.63
513.816	-192.68
514.024	270.16
514.231	466.77
514.439	-176.3
514.646	-192.68
514.854	257.87
515.061	343.89
515.269	-235.69
515.477	-223.4
515.684	-166.06
515.892	384.85
516.099	-372.9
516.307	-344.23
516.514	280.4
516.722	479.05
516.929	-145.58
517.136	-323.75
517.344	479.05
517.551	169.81
517.759	-235.69
517.966	-182.44
518.173	-16.55
518.381	26.45
518.588	-147.62
518.796	-241.83
519.003	313.17
519.21	143.19
519.418	-161.96
519.625	145.24
519.832	145.24
520.039	120.66
520.247	-340.13
520.454	-168.1
520.661	372.56
520.868	190.29
521.076	-123.05
521.283	-159.91
521.49	620.36
521.697	210.77
521.904	-149.67
522.112	-155.82
522.319	300.88
522.526	243.54
522.733	-256.17
522.94	-190.63
523.147	85.84
523.354	255.83
523.561	-329.89
523.768	-139.43
523.975	352.08
524.183	96.08
524.39	-86.19
524.597	-274.6
524.804	116.56
525.011	-127.14
525.218	-161.96
525.425	-192.68
525.632	446.29
525.838	28.5
526.045	-202.92
526.252	-245.93
526.459	1189.7
526.666	935.75
526.873	-235.69
527.08	-180.39
527.287	450.38
527.494	339.79
527.701	-274.6
527.907	-243.88
528.114	321.36
528.321	28.5
528.528	-159.91
528.735	-204.97
528.941	-2.22
529.148	24.4
529.355	-86.19
529.562	-237.74
529.768	548.68
529.975	102.23
530.182	-110.76
530.388	-196.78
530.595	331.6
530.802	-168.1
531.008	-75.95
531.215	-168.1
531.422	438.09
531.628	831.3
531.835	-125.1
532.042	-145.58
532.248	-16.55
532.455	190.29
532.661	-143.53
532.868	-166.06
533.074	196.43
533.281	221.01
533.487	-98.47
533.694	-239.78
533.9	-170.15
534.107	302.93
534.313	-207.02
534.52	-239.78
534.726	343.89
534.933	507.73
535.139	-270.5
535.345	-288.93
535.552	157.52
535.758	165.71
535.965	-176.3
536.171	-147.62
536.377	221.01
536.584	481.1
536.79	-106.67
536.996	-114.86
537.203	182.1
537.409	184.15
537.615	-123.05
537.821	57.17
538.028	362.32
538.234	335.7
538.44	-217.26
538.646	-82.09
538.853	311.12
539.059	36.69
539.265	286.54
539.471	-372.9
539.677	335.7
539.883	114.52
540.09	-217.26
540.296	272.21
540.502	137.04
540.708	-41.13
540.914	5.97
541.12	-188.58
541.326	282.45
541.532	98.13
541.738	-170.15
541.944	-61.61
542.15	298.83
542.356	65.36
542.562	-239.78
542.768	-133.29
542.974	679.75
543.18	573.26
543.386	-135.34
543.592	-325.8
543.798	528.21
544.004	421.71
544.21	-241.83
544.415	-155.82
544.621	202.58
544.827	323.41
545.033	-239.78
545.239	55.12
545.445	-118.95
545.651	247.63
545.856	-176.3
546.062	-194.73
546.268	44.88
546.474	104.28
546.679	-215.21
546.885	-90.28
547.091	-92.33
547.297	644.94
547.502	-92.33
547.708	-276.65
547.914	-18.6
548.119	319.31
548.325	-336.04
548.531	-245.93
548.736	554.83
548.942	-32.94
549.147	-204.97
549.353	51.03
549.559	421.71
549.764	212.82
549.97	-131.24
550.175	-129.19
550.381	302.93
550.586	102.23
550.792	-16.55
550.997	-133.29
551.203	372.56
551.408	343.89
551.614	-182.44
551.819	-266.41
552.025	540.49
552.23	614.22
552.435	-137.38
552.641	20.31
552.846	24.4
553.052	454.48
553.257	-6.31
553.462	-135.34
553.668	-26.79
553.873	335.7
554.078	-252.07
554.283	-170.15
554.489	245.59
554.694	155.47
554.899	-209.06
555.105	8.02
555.31	270.16
555.515	347.98
555.72	-100.52
555.925	-307.37
556.131	331.6
556.336	81.75
556.541	-127.14
556.746	-200.87
556.951	503.63
557.156	485.2
557.361	18.26
557.567	53.08
557.772	679.75
557.977	360.27
558.182	-207.02
558.387	-147.62
558.592	79.7
558.797	481.1
559.002	-59.56
559.207	3.93
559.412	114.52
559.617	694.09
559.822	-139.43
560.027	-186.54
560.232	290.64
560.437	403.28
560.642	-217.26
560.847	-127.14
561.051	216.91
561.256	233.3
561.461	-94.38
561.666	-188.58
561.871	212.82
562.076	421.71
562.281	-98.47
562.485	-182.44
562.69	393.04
562.895	524.11
563.1	-131.24
563.305	-139.43
563.509	444.24
563.714	726.86
563.919	-141.48
564.123	-168.1
564.328	165.71
564.533	571.21
564.737	-118.95
564.942	-137.38
565.147	491.34
565.351	626.51
565.556	71.51
565.761	5.97
565.965	208.72
566.17	5.97
566.374	-98.47
566.579	-170.15
566.784	315.22
566.988	110.42
567.193	-157.86
567.397	-98.47
567.602	-100.52
567.806	126.8
568.011	-127.14
568.215	-41.13
568.42	180.05
568.624	157.52
568.828	-106.67
569.033	79.7
569.237	329.55
569.442	354.13
569.646	-176.3
569.85	-112.81
570.055	214.87
570.259	317.26
570.463	167.76
570.668	-86.19
570.872	165.71
571.076	137.04
571.281	57.17
571.485	-12.46
571.689	120.66
571.893	466.77
572.098	87.89
572.302	-82.09
572.506	327.5
572.71	165.71
572.914	34.64
573.119	-90.28
573.323	620.36
573.527	513.87
573.731	-43.18
573.935	-37.03
574.139	354.13
574.343	-67.75
574.547	-47.27
574.751	-106.67
574.955	601.93
575.159	542.54
575.364	5.97
575.568	-180.39
575.772	192.34
575.976	485.2
576.18	-114.86
576.383	-262.31
576.587	472.91
576.791	368.46
576.995	-166.06
577.199	-151.72
577.403	532.3
577.607	513.87
577.811	-110.76
578.015	8.02
578.219	352.08
578.422	483.15
578.626	24.4
578.83	55.12
579.034	591.69
579.238	317.26
579.442	-43.18
579.645	356.18
579.849	233.3
580.053	319.31
580.257	-24.75
580.46	-100.52
580.664	460.62
580.868	401.23
581.071	223.06
581.275	30.55
581.479	-82.09
581.682	442.19
581.886	-86.19
582.09	8.02
582.293	509.77
582.497	563.02
582.7	198.48
582.904	-92.33
583.107	286.54
583.311	206.67
583.515	20.31
583.718	44.88
583.922	405.33
584.125	665.42
584.329	-94.38
584.532	202.58
584.735	620.36
584.939	462.67
585.142	-110.76
585.346	-88.23
585.549	390.99
585.753	231.25
585.956	-41.13
586.159	141.14
586.363	706.38
586.566	436.05
586.769	-20.65
586.973	-28.84
587.176	403.28
587.379	597.84
587.582	339.79
587.786	227.15
587.989	341.84
588.192	902.98
588.395	73.56
588.599	370.51
588.802	370.51
589.005	477.01
589.208	32.6
589.411	44.88
589.615	573.26
589.818	698.19
590.021	294.74
590.224	161.62
590.427	524.11
590.63	462.67
590.833	-41.13
591.036	-0.17
591.239	212.82
591.442	233.3
591.645	266.07
591.848	81.75
592.051	397.14
592.254	565.07
592.457	130.9
592.66	100.18
592.863	315.22
593.066	464.72
593.269	44.88
593.472	114.52
593.675	114.52
593.878	577.36
594.081	122.71
594.284	-8.36
594.486	436.05
594.689	460.62
594.892	141.14
595.095	143.19
595.298	464.72
595.5	210.77
595.703	178
595.906	264.02
596.109	630.6
596.311	571.21
596.514	-174.25
596.717	65.36
596.92	614.22
597.122	411.47
597.325	-164.01
597.528	-2.22
597.73	712.52
597.933	456.53
598.136	59.22
598.338	-182.44
598.541	524.11
598.743	696.14
598.946	159.57
599.148	141.14
599.351	620.36
599.554	573.26
599.756	286.54
599.959	169.81
600.161	597.84
600.363	950.09
600.566	376.66
600.768	85.84
600.971	853.83
601.173	536.4
601.376	104.28
601.578	167.76
601.78	548.68
601.983	937.8
602.185	77.65
602.388	253.78
602.59	505.68
602.792	376.66
602.995	397.14
603.197	96.08
603.399	702.28
603.601	491.34
603.804	163.67
604.006	167.76
604.208	360.27
604.41	20.31
604.613	307.02
604.815	212.82
605.017	991.05
605.219	241.49
605.421	466.77
605.623	157.52
605.826	788.3
606.028	782.15
606.23	190.29
606.432	141.14
606.634	986.95
606.836	751.43
607.038	94.04
607.24	366.42
607.442	442.19
607.644	548.68
607.846	343.89
608.048	171.86
608.25	757.58
608.452	255.83
608.654	233.3
608.856	-51.37
609.058	354.13
609.26	585.55
609.462	327.5
609.664	264.02
609.866	1015.62
610.067	659.28
610.269	374.61
610.471	270.16
610.673	487.25
610.875	667.47
611.077	73.56
611.278	419.66
611.48	493.39
611.682	909.13
611.884	331.6
612.085	302.93
612.287	259.92
612.489	614.22
612.69	159.57
612.892	266.07
613.094	841.54
613.295	565.07
613.497	157.52
613.699	241.49
613.9	843.59
614.102	780.11
614.304	286.54
614.505	200.53
614.707	530.25
614.908	425.81
615.11	110.42
615.311	329.55
615.513	794.44
615.714	712.52
615.916	151.38
616.117	315.22
616.319	536.4
616.52	728.91
616.722	225.11
616.923	302.93
617.124	874.31
617.326	628.56
617.527	438.09
617.729	520.01
617.93	677.71
618.131	757.58
618.333	368.46
618.534	333.65
618.735	438.09
618.937	890.7
619.138	143.19
619.339	153.43
619.54	683.85
619.742	479.05
619.943	405.33
620.144	343.89
620.345	825.16
620.546	782.15
620.748	245.59
620.949	284.5
621.15	599.88
621.351	716.62
621.552	319.31
621.753	147.28
621.954	286.54
622.155	1081.16
622.356	212.82
622.558	509.77
622.759	552.78
622.96	974.66
623.161	401.23
623.362	368.46
623.563	616.27
623.764	675.66
623.965	442.19
624.166	552.78
624.366	503.63
624.567	644.94
624.768	81.75
624.969	319.31
625.17	581.45
625.371	743.24
625.572	487.25
625.773	272.21
625.973	825.16
626.174	851.78
626.375	403.28
626.576	495.44
626.777	735.05
626.977	1238.85
627.178	276.31
627.379	464.72
627.58	569.16
627.78	722.76
627.981	526.16
628.182	540.49
628.382	905.03
628.583	390.99
628.784	223.06
628.984	577.36
629.185	874.31
629.386	753.48
629.586	458.57
629.787	403.28
629.987	835.4
630.188	687.95
630.388	462.67
630.589	421.71
630.79	1240.9
630.99	708.43
631.191	464.72
631.391	474.96
631.591	929.61
631.792	1034.05
631.992	628.56
632.193	429.9
632.393	980.81
632.594	753.48
632.794	458.57
632.994	485.2
633.195	622.41
633.395	630.6
633.595	454.48
633.796	671.56
633.996	565.07
634.196	962.37
634.397	268.11
634.597	558.92
634.797	620.36
634.997	1087.3
635.198	669.52
635.398	368.46
635.598	745.29
635.798	1146.69
635.998	827.21
636.199	436.05
636.399	520.01
636.599	493.39
636.799	542.54
636.999	794.44
637.199	866.12
637.399	982.85
637.599	450.38
637.799	679.75
637.999	603.98
638.199	1056.58
638.399	462.67
638.599	411.47
638.799	835.4
638.999	1236.8
639.199	679.75
639.399	722.76
639.599	1115.97
639.799	532.3
639.999	436.05
640.199	354.13
640.399	769.87
640.599	945.99
640.799	589.64
640.998	851.78
641.198	1142.6
641.398	851.78
641.598	634.7
641.798	524.11
641.997	1771.32
642.197	745.29
642.397	616.27
642.597	573.26
642.796	950.09
642.996	1191.75
643.196	649.04
643.395	477.01
643.595	862.02
643.795	515.92
643.994	501.58
644.194	630.6
644.394	984.9
644.593	943.94
644.793	436.05
644.992	683.85
645.192	1079.11
645.392	413.52
645.591	673.61
645.791	649.04
645.99	991.05
646.19	733
646.389	735.05
646.589	606.03
646.788	1068.87
646.987	999.24
647.187	915.27
647.386	855.88
647.586	876.36
647.785	1128.26
647.984	675.66
648.184	767.82
648.383	755.53
648.582	761.67
648.782	724.81
648.981	757.58
649.18	745.29
649.38	898.89
649.579	649.04
649.778	524.11
649.977	1072.96
650.177	966.47
650.376	589.64
650.575	669.52
650.774	1220.42
650.973	704.33
651.173	503.63
651.372	745.29
651.571	1015.62
651.77	1158.98
651.969	710.47
652.168	800.59
652.367	700.23
652.566	1044.29
652.765	667.47
652.964	974.66
653.163	1406.78
653.362	837.45
653.561	728.91
653.76	632.65
653.959	876.36
654.158	1158.98
654.357	943.94
654.556	747.34
654.755	1060.68
654.954	1105.73
655.153	722.76
655.352	862.02
655.551	1263.43
655.749	835.4
655.948	837.45
656.147	847.69
656.346	1122.12
656.545	972.61
656.743	925.51
656.942	859.98
657.141	1066.82
657.34	712.52
657.538	778.06
657.737	778.06
657.936	847.69
658.135	1077.06
658.333	745.29
658.532	925.51
658.731	1529.66
658.929	1238.85
659.128	1068.87
659.326	700.23
659.525	1376.06
659.724	958.28
659.922	526.16
660.121	614.22
660.319	1175.36
660.518	847.69
660.716	794.44
660.915	704.33
661.113	1261.38
661.312	749.39
661.51	970.57
661.709	757.58
661.907	1298.24
662.105	1474.37
662.304	780.11
662.502	851.78
662.701	1460.03
662.899	1032.01
663.097	1128.26
663.296	704.33
663.494	1296.19
663.692	1423.17
663.891	771.91
664.089	692.04
664.287	1163.08
664.485	1394.5
664.684	685.9
664.882	952.13
665.08	1126.21
665.278	1214.27
665.476	819.02
665.675	1228.61
665.873	1625.92
666.071	1429.31
666.269	825.16
666.467	1138.5
666.665	1152.84
666.863	1126.21
667.061	1032.01
667.259	839.5
667.457	1064.77
667.655	1247.04
667.853	786.25
668.051	993.09
668.249	921.42
668.447	1181.51
668.645	823.11
668.843	995.14
669.041	1283.91
669.239	1113.92
669.437	1060.68
669.635	1093.44
669.833	1050.44
670.031	1355.58
670.229	948.04
670.426	1060.68
670.624	974.66
670.822	927.56
671.02	933.7
671.218	1046.34
671.415	956.23
671.613	1150.79
671.811	1032.01
672.009	894.79
672.206	1275.71
672.404	1224.51
672.602	1199.94
672.799	962.37
672.997	1224.51
673.195	1470.27
673.392	1175.36
673.59	872.26
673.788	1455.94
673.985	745.29
674.183	1107.78
674.38	1009.48
674.578	1328.96
674.775	1013.57
674.973	948.04
675.17	843.59
675.368	1634.11
675.565	1367.87
675.763	933.7
675.96	982.85
676.158	1433.41
676.355	1253.19
676.553	900.94
676.75	970.57
676.947	1238.85
677.145	1195.84
677.342	1130.31
677.539	1079.11
677.737	1257.28
677.934	1687.36
678.131	1195.84
678.329	962.37
678.526	1685.31
678.723	1423.17
678.92	1122.12
679.118	1034.05
679.315	1007.43
679.512	1566.53
679.709	1025.86
679.906	1019.72
680.104	1566.53
680.301	1351.49
680.498	857.93
680.695	974.66
680.892	1230.66
681.089	1120.07
681.286	1175.36
681.483	853.83
681.68	1490.75
681.877	1466.17
682.075	1187.65
682.272	1326.91
682.469	1507.13
682.665	1212.23
682.862	1023.81
683.059	837.45
683.256	1498.94
683.453	1345.34
683.65	1150.79
683.847	1138.5
684.044	1249.09
684.241	1079.11
684.438	1236.8
684.635	999.24
684.831	1775.42
685.028	1832.76
685.225	982.85
685.422	1267.52
685.619	1331.01
685.815	1408.83
686.012	1228.61
686.209	1171.27
686.405	1075.01
686.602	1503.04
686.799	902.98
686.996	933.7
687.192	1187.65
687.389	1914.68
687.586	1052.49
687.782	1224.51
687.979	1802.04
688.175	1630.01
688.372	1240.9
688.568	1154.88
688.765	1269.57
688.962	1707.84
689.158	1218.37
689.355	1027.91
689.551	1560.38
689.748	1228.61
689.944	1400.64
690.14	1050.44
690.337	1523.52
690.533	1214.27
690.73	1376.06
690.926	1261.38
691.123	1527.61
691.319	1367.87
691.515	1027.91
691.712	1343.3
691.908	1558.33
692.104	1480.51
692.301	1400.64
692.497	1046.34
692.693	1642.3
692.889	1541.95
693.086	1281.86
693.282	892.74
693.478	1363.78
693.674	1822.52
693.87	1161.03
694.067	1124.16
694.263	1593.15
694.459	1386.3
694.655	1439.55
694.851	1302.34
695.047	1527.61
695.243	1689.4
695.439	1417.02
695.635	1279.81
695.831	1630.01
696.027	1500.99
696.224	1285.95
696.42	1607.48
696.615	1793.85
696.811	1736.51
697.007	1077.06
697.203	1271.62
697.399	1591.1
697.595	1859.38
697.791	1150.79
697.987	1441.6
698.183	1308.48
698.379	1376.06
698.575	1269.57
698.77	1302.34
698.966	1607.48
699.162	1773.37
699.358	1236.8
699.554	1290.05
699.749	1697.6
699.945	1752.89
700.141	1443.65
700.337	1384.26
700.532	1443.65
700.728	1331.01
700.924	1146.69
701.119	1290.05
701.315	1734.46
701.511	1328.96
701.706	1394.5
701.902	1075.01
702.097	1525.57
702.293	1632.06
702.489	1388.35
702.684	1230.66
702.88	1419.07
703.075	1414.98
703.271	1349.44
703.466	1195.84
703.662	1560.38
703.857	1734.46
704.053	1273.67
704.248	1199.94
704.443	1593.15
704.639	1720.12
704.834	1441.6
705.03	1253.19
705.225	1656.64
705.42	1843
705.616	1443.65
705.811	1206.08
706.006	1421.12
706.202	1455.94
706.397	1515.33
706.592	1316.67
706.787	1621.82
706.983	1615.68
707.178	1621.82
707.373	1560.38
707.568	1806.14
707.763	1820.47
707.959	1355.58
708.154	1353.54
708.349	1650.49
708.544	1609.53
708.739	1527.61
708.934	1269.57
709.129	1886.01
709.324	1920.82
709.519	1242.95
709.714	1238.85
709.909	1873.72
710.104	1716.03
710.299	1457.98
710.494	1455.94
710.689	1902.39
710.884	1707.84
711.079	1554.24
711.274	1617.72
711.469	1625.92
711.664	1789.75
711.859	1230.66
712.054	1427.26
712.249	1840.95
712.443	1845.05
712.638	1208.13
712.833	1427.26
713.028	1664.83
713.223	1662.78
713.417	1769.27
713.612	1527.61
713.807	1888.06
714.002	2201.4
714.196	1601.34
714.391	1505.09
714.586	1935.16
714.78	1697.6
714.975	1476.41
715.17	1533.76
715.364	1664.83
715.559	1904.44
715.754	1290.05
715.948	1390.4
716.143	2125.62
716.337	1707.84
716.532	1795.9
716.726	1414.98
716.921	1904.44
717.115	2051.89
717.31	1339.2
717.504	1974.07
717.699	1609.53
717.893	1906.49
718.088	1337.15
718.282	1445.7
718.476	1818.43
718.671	1873.72
718.865	1470.27
719.059	1480.51
719.254	1738.55
719.448	1957.69
719.642	2877.23
719.837	1283.91
720.031	1879.86
720.225	2154.29
720.419	1595.2
720.614	1374.02
720.808	1916.73
721.002	1769.27
721.196	1412.93
721.39	1464.13
721.585	2045.75
721.779	1859.38
721.973	1472.32
722.167	1273.67
722.361	1769.27
722.555	1904.44
722.749	1374.02
722.943	1439.55
723.137	1457.98
723.331	1816.38
723.525	1648.44
723.719	1431.36
723.913	1894.2
724.107	2082.61
724.301	1294.15
724.495	1636.16
724.689	2203.44
724.883	2002.74
725.077	1556.29
725.271	1560.38
725.465	2015.03
725.659	1752.89
725.853	1658.68
726.046	1425.22
726.24	1613.63
726.434	2002.74
726.628	1599.29
726.822	1605.44
727.015	2023.22
727.209	2094.9
727.403	1572.67
727.596	1439.55
727.79	2039.61
727.984	2111.29
728.177	1580.86
728.371	1617.72
728.565	2076.47
728.758	1650.49
728.952	1449.79
729.146	1535.81
729.339	2066.23
729.533	1845.05
729.726	1429.31
729.92	1507.13
730.113	2148.15
730.307	1744.7
730.5	1648.44
730.694	1533.76
730.887	1791.8
731.081	1996.6
731.274	1427.26
731.468	1691.45
731.661	1898.3
731.854	1777.47
732.048	1607.48
732.241	1531.71
732.435	1826.62
732.628	2006.84
732.821	1806.14
733.014	1511.23
733.208	1748.79
733.401	1845.05
733.594	1603.39
733.788	1574.72
733.981	2174.77
734.174	2027.32
734.367	1627.96
734.56	1730.36
734.754	2035.51
734.947	1814.33
735.14	1539.9
735.333	1597.24
735.526	2082.61
735.719	1826.62
735.912	1625.92
736.105	1517.37
736.298	1857.34
736.491	1711.93
736.684	1642.3
736.877	1605.44
737.07	1994.55
737.263	2146.1
737.456	1621.82
737.649	1648.44
737.842	1767.23
738.035	1908.54
738.228	1658.68
738.421	1863.48
738.614	2260.79
738.807	2031.41
739	1544
739.192	1509.18
739.385	2094.9
739.578	2133.81
739.771	2047.8
739.964	1652.54
740.156	2051.89
740.349	2035.51
740.542	1908.54
740.735	1535.81
740.927	1734.46
741.12	1652.54
741.313	1630.01
741.505	1877.82
741.698	1937.21
741.891	2058.04
742.083	1865.53
742.276	1670.97
742.468	1969.98
742.661	1834.81
742.854	1836.86
743.046	1589.05
743.239	2443.06
743.431	1996.6
743.624	1929.02
743.816	1517.37
744.009	2017.08
744.201	2088.76
744.393	1969.98
744.586	1711.93
744.778	2248.5
744.971	2010.93
745.163	1908.54
745.355	1810.23
745.548	2117.43
745.74	1924.92
745.932	1859.38
746.125	1621.82
746.317	2565.93
746.509	1996.6
746.702	1732.41
746.894	1769.27
747.086	2113.33
747.278	2387.76
747.471	1883.96
747.663	1924.92
747.855	2203.44
748.047	2477.87
748.239	1765.18
748.431	1759.03
748.623	2449.2
748.815	2354.99
749.008	1693.5
749.2	1740.6
749.392	2055.99
749.584	2162.48
749.776	1953.59
749.968	1883.96
750.16	2557.74
750.352	2058.04
750.544	1763.13
750.736	1775.42
750.928	2135.86
751.12	2025.27
751.311	1843
751.503	1879.86
751.695	2164.53
751.887	2088.76
752.079	1578.81
752.271	1697.6
752.463	2936.62
752.654	2203.44
752.846	1838.91
753.038	1859.38
753.23	1949.5
753.421	2359.09
753.613	1787.71
753.805	2019.13
753.997	2334.51
754.188	2348.85
754.38	1896.25
754.572	1818.43
754.763	2010.93
754.955	2273.07
755.146	1933.11
755.338	1752.89
755.53	2115.38
755.721	2152.24
755.913	1785.66
756.104	1705.79
756.296	2076.47
756.487	2285.36
756.679	1806.14
756.87	1799.99
757.062	2027.32
757.253	2191.16
757.445	1867.58
757.636	1953.59
757.827	1976.12
758.019	2637.61
758.21	1926.97
758.401	1799.99
758.593	2602.8
758.784	2518.83
758.975	1720.12
759.167	1646.4
759.358	2072.37
759.549	2320.18
759.74	1740.6
759.932	1763.13
760.123	2572.08
760.314	2015.03
760.505	1998.65
760.696	1875.77
760.888	2625.33
761.079	2072.37
761.27	1867.58
761.461	1668.92
761.652	2598.7
761.843	2060.09
762.034	1935.16
762.225	2107.19
762.416	2137.91
762.607	2170.68
762.798	1969.98
762.989	1843
763.18	2973.48
763.371	2109.24
763.562	1883.96
763.753	1863.48
763.944	2426.67
764.135	2369.33
764.326	2035.51
764.517	1865.53
764.708	2150.2
764.899	2383.66
765.089	1900.34
765.28	1718.08
765.471	2223.92
765.662	2371.38
765.853	1894.2
766.043	1718.08
766.234	2324.27
766.425	2369.33
766.615	1992.5
766.806	1638.2
766.997	2404.14
767.187	2252.59
767.378	1834.81
767.569	1840.95
767.759	2240.31
767.95	2115.38
768.141	1992.5
768.331	1843
768.522	2117.43
768.712	2408.24
768.903	1867.58
769.093	1787.71
769.284	2506.54
769.474	2234.16
769.665	1836.86
769.855	1752.89
770.046	2385.71
770.236	2043.7
770.426	2090.81
770.617	1816.38
770.807	2187.06
770.998	2215.73
771.188	2119.48
771.378	1824.57
771.569	2404.14
771.759	2338.61
771.949	1795.9
772.139	1738.55
772.33	2207.54
772.52	2518.83
772.71	1855.29
772.9	1748.79
773.09	2590.51
773.281	2549.55
773.471	1810.23
773.661	1910.58
773.851	2432.82
774.041	2191.16
774.231	1875.77
774.421	2019.13
774.611	2613.04
774.802	2182.96
774.992	2047.8
775.182	1793.85
775.372	2154.29
775.562	2494.26
775.752	1955.64
775.942	1947.45
776.131	2424.62
776.321	2324.27
776.511	1955.64
776.701	1933.11
776.891	2363.19
777.081	2002.74
777.271	1976.12
777.461	1910.58
777.651	2293.55
777.84	2402.1
778.03	2086.71
778.22	2002.74
778.41	2567.98
778.599	1961.78
778.789	2021.17
778.979	1892.15
779.169	2303.79
779.358	2185.01
779.548	2146.1
779.738	1861.43
779.927	2191.16
780.117	1881.91
780.307	1867.58
780.496	1742.65
780.686	2369.33
780.875	2610.99
781.065	1949.5
781.254	1920.82
781.444	2135.86
781.633	2148.15
781.823	1836.86
782.012	1873.72
782.202	2072.37
782.391	2189.11
782.581	1857.34
782.77	2012.98
782.96	2352.95
783.149	2207.54
783.338	2092.85
783.528	1812.28
783.717	2471.73
783.906	2498.35
784.096	2076.47
784.285	1779.51
784.474	2025.27
784.663	1965.88
784.853	2107.19
785.042	2012.98
785.231	2029.37
785.42	2365.23
785.61	1908.54
785.799	1834.81
785.988	2051.89
786.177	2211.64
786.366	2053.94
786.555	2164.53
786.744	2465.58
786.933	2271.03
787.122	1918.78
787.312	1867.58
787.501	1953.59
787.69	2332.47
787.879	1929.02
788.068	1756.99
788.257	1814.33
788.445	2064.18
788.634	2064.18
788.823	1791.8
789.012	2950.95
789.201	2563.89
789.39	2049.85
789.579	1869.62
789.768	2121.52
789.957	2281.27
790.145	1908.54
790.334	1662.78
790.523	2150.2
790.712	2041.65
790.9	1988.41
791.089	1812.28
791.278	2371.38
791.467	2268.98
791.655	2256.69
791.844	2580.27
792.033	1984.31
792.221	2133.81
792.41	2123.57
792.599	1771.32
792.787	2492.21
792.976	2400.05
793.164	1945.4
793.353	1883.96
793.541	2359.09
793.73	2406.19
793.918	1949.5
794.107	1943.35
794.295	2125.62
794.484	2133.81
794.672	1967.93
794.861	1961.78
795.049	2354.99
795.238	2543.41
795.426	1834.81
795.614	2064.18
795.803	2361.14
795.991	2459.44
796.179	2031.41
796.368	1994.55
796.556	2391.86
796.744	2004.79
796.932	1879.86
797.121	1775.42
797.309	2246.45
797.497	2408.24
797.685	1980.22
797.874	2033.46
798.062	2207.54
798.25	2494.26
798.438	1855.29
798.626	1933.11
798.814	2350.9
799.002	2754.35
799.19	2076.47
799.378	1955.64
799.566	2473.78
799.755	2570.03
799.943	2174.77
800.131	1941.3
800.318	2379.57
800.506	2330.42
800.694	2037.56
800.882	2191.16
801.07	2625.33
801.258	2279.22
801.446	2023.22
801.634	2033.46
801.822	2371.38
802.01	2230.07
802.197	1904.44
802.385	2187.06
802.573	2481.97
802.761	2092.85
802.949	2178.87
803.136	1865.53
803.324	2641.71
803.512	2260.79
803.699	2150.2
803.887	1904.44
804.075	2610.99
804.262	2252.59
804.45	1834.81
804.638	2254.64
804.825	2201.4
805.013	2123.57
805.201	2101.05
805.388	2090.81
805.576	2350.9
805.763	2801.45
805.951	2230.07
806.138	2279.22
806.326	2791.21
806.513	2514.73
806.701	2094.9
806.888	2060.09
807.075	2504.5
807.263	2862.89
807.45	1906.49
807.638	2295.6
807.825	2846.51
808.012	2606.89
808.2	2311.99
808.387	2473.78
808.574	2488.11
808.761	2776.87
808.949	2113.33
809.136	2242.36
809.323	2404.14
809.51	2342.71
809.698	2594.61
809.885	2289.46
810.072	2428.72
810.259	2705.2
810.446	2254.64
810.633	2170.68
810.82	2670.38
811.008	2715.44
811.195	2340.66
811.382	2203.44
811.569	2426.67
811.756	2135.86
811.943	2152.24
812.13	2195.25
812.317	2400.05
812.504	2367.28
812.691	2256.69
812.878	2330.42
813.064	2883.37
813.251	2594.61
813.438	2051.89
813.625	2518.83
813.812	2438.96
813.999	2447.15
814.186	2424.62
814.372	2246.45
814.559	2666.28
814.746	2944.81
814.933	2273.07
815.12	2457.39
815.306	2383.66
815.493	2354.99
815.68	2281.27
815.866	2426.67
816.053	2744.11
816.24	2973.48
816.426	2426.67
816.613	2258.74
816.799	2678.57
816.986	2858.79
817.173	2201.4
817.359	2176.82
817.546	2668.33
817.732	2254.64
817.919	2193.2
818.105	2430.77
818.292	2498.35
818.478	2729.77
818.665	2375.47
818.851	2217.78
819.037	3155.75
819.224	2610.99
819.41	2367.28
819.597	2281.27
819.783	3014.44
819.969	2672.43
820.156	2416.43
820.342	2326.32
820.528	3329.83
820.714	2592.56
820.901	2676.52
821.087	2162.48
821.273	2998.06
821.459	2402.1
821.646	2252.59
821.832	2215.73
822.018	2670.38
822.204	2621.23
822.39	2316.08
822.576	2293.55
822.762	2830.12
822.948	2615.09
823.134	2506.54
823.32	2416.43
823.507	2352.95
823.693	2686.76
823.879	2737.96
824.065	2326.32
824.25	2742.06
824.436	2432.82
824.622	2393.9
824.808	2135.86
824.994	2418.48
825.18	2377.52
825.366	2078.52
825.552	2305.84
825.738	2520.88
825.923	2883.37
826.109	2436.91
826.295	2248.5
826.481	2379.57
826.667	2389.81
826.852	2408.24
827.038	2258.74
827.224	2860.84
827.409	2953
827.595	2236.21
827.781	2451.25
827.966	2783.02
828.152	2721.58
828.338	2406.19
828.523	2055.99
828.709	2428.72
828.894	2977.58
829.08	2443.06
829.266	2406.19
829.451	2459.44
829.637	2727.72
829.822	2447.15
830.008	2309.94
830.193	2887.47
830.378	2858.79
830.564	2484.02
830.749	2293.55
830.935	2707.24
831.12	2793.26
831.305	2191.16
831.491	2406.19
831.676	2330.42
831.861	2754.35
832.047	2418.48
832.232	2291.51
832.417	2846.51
832.602	2559.79
832.788	2246.45
832.973	2283.31
833.158	2459.44
833.343	2627.37
833.528	2518.83
833.714	2400.05
833.899	2639.66
834.084	2993.96
834.269	2375.47
834.454	2387.76
834.639	2721.58
834.824	2594.61
835.009	2481.97
835.194	2449.2
835.379	2842.41
835.564	3047.21
835.749	2680.62
835.934	2334.51
836.119	2918.18
836.304	2608.94
836.489	2379.57
836.674	2535.21
836.859	2361.14
837.044	2785.07
837.228	2406.19
837.413	2250.55
837.598	2703.15
837.783	2877.23
837.968	2301.75
838.152	2121.52
838.337	2230.07
838.522	2690.86
838.707	2852.65
838.891	2539.31
839.076	2803.5
839.261	2737.96
839.445	2420.53
839.63	2410.29
839.815	3030.82
839.999	2555.69
840.184	2338.61
840.368	2330.42
840.553	2754.35
840.737	2803.5
840.922	2232.12
841.106	2160.44
841.291	2287.41
841.475	2621.23
841.66	2301.75
841.844	2281.27
842.029	3331.87
842.213	2301.75
842.397	2344.75
842.582	2156.34
842.766	2893.61
842.951	2869.03
843.135	2348.85
843.319	2258.74
843.504	2707.24
843.688	2801.45
843.872	2092.85
844.056	2291.51
844.241	2713.39
844.425	2465.58
844.609	2629.42
844.793	2142
844.977	2770.73
845.161	2590.51
845.346	2142
845.53	2232.12
845.714	2428.72
845.898	2940.71
846.082	2287.41
846.266	2305.84
846.45	2527.02
846.634	2744.11
846.818	2262.83
847.002	2576.17
847.186	2705.2
847.37	2434.86
847.554	2166.58
847.738	2434.86
847.922	2613.04
848.106	2760.49
848.29	2150.2
848.473	2285.36
848.657	2828.07
848.841	2557.74
849.025	2260.79
849.209	2125.62
849.392	2768.68
849.576	2488.11
849.76	2025.27
849.944	2604.85
850.127	3012.39
850.311	2354.99
850.495	2170.68
850.678	2236.21
850.862	2785.07
851.046	2840.36
851.229	2488.11
851.413	2121.52
851.596	2578.22
851.78	2551.6
851.964	2379.57
852.147	2273.07
852.331	3309.35
852.514	2821.93
852.698	2268.98
852.881	2191.16
853.065	2778.92
853.248	2359.09
853.431	2344.75
853.615	2473.78
853.798	3151.65
853.982	2768.68
854.165	2592.56
854.348	2252.59
854.532	2320.18
854.715	2383.66
854.898	2338.61
855.081	2234.16
855.265	3026.73
855.448	2871.08
855.631	2164.53
855.814	2314.03
855.997	2748.2
856.181	2516.78
856.364	2389.81
856.547	2195.25
856.73	2670.38
856.913	2467.63
857.096	2117.43
857.279	2297.65
857.462	2357.04
857.645	2776.87
857.828	2422.58
858.011	2377.52
858.194	2441.01
858.377	2789.16
858.56	2154.29
858.743	2330.42
858.926	2287.41
859.109	2551.6
859.292	2277.17
859.475	2154.29
859.658	2766.64
859.841	2676.52
860.023	2144.05
860.206	2137.91
860.389	2582.32
860.572	2803.5
860.755	2242.36
860.937	2191.16
861.12	2434.86
861.303	2494.26
861.486	2428.72
861.668	2084.66
861.851	2649.9
862.034	2594.61
862.216	2367.28
862.399	2080.57
862.581	2627.37
862.764	2877.23
862.947	2191.16
863.129	2189.11
863.312	2162.48
863.494	2891.56
863.677	2531.12
863.859	1959.74
864.042	2774.83
864.224	2823.98
864.406	2275.12
864.589	1982.26
864.771	2574.13
864.954	2150.2
865.136	2174.77
865.318	1990.45
865.501	2670.38
865.683	2144.05
865.865	2295.6
866.048	2129.72
866.23	2551.6
866.412	2529.07
866.594	2082.61
866.777	2412.34
866.959	2727.72
867.141	2285.36
867.323	2473.78
867.505	2305.84
867.687	2547.5
867.869	2533.17
868.052	2385.71
868.234	2150.2
868.416	2490.16
868.598	2780.97
868.78	2197.3
868.962	2090.81
869.144	2744.11
869.326	2613.04
869.508	2236.21
869.69	2150.2
869.872	2469.68
870.054	2819.88
870.236	2017.08
870.417	2191.16
870.599	2258.74
870.781	2783.02
870.963	2406.19
871.145	2080.57
871.327	2219.83
871.508	2672.43
871.69	2232.12
871.872	2281.27
872.054	2504.5
872.235	2602.8
872.417	2252.59
872.599	2271.03
872.78	2887.47
872.962	2613.04
873.144	1978.17
873.325	2273.07
873.507	2903.85
873.689	2545.45
873.87	2023.22
874.052	2242.36
874.233	2389.81
874.415	2899.75
874.596	2232.12
874.778	2228.02
874.959	2506.54
875.141	2877.23
875.322	2180.92
875.503	2072.37
875.685	2672.43
875.866	2236.21
876.048	2115.38
876.229	2170.68
876.41	2613.04
876.592	2608.94
876.773	2119.48
876.954	2025.27
877.136	2809.64
877.317	2469.68
877.498	2035.51
877.679	2311.99
877.86	2686.76
878.042	2410.29
878.223	2174.77
878.404	2602.8
878.585	2629.42
878.766	2924.33
878.947	2406.19
879.128	2522.93
879.309	2666.28
879.49	2924.33
879.672	2264.88
879.853	2348.85
880.034	2340.66
880.215	2535.21
880.396	2371.38
880.576	2346.8
880.757	2441.01
880.938	2891.56
881.119	2328.37
881.3	2170.68
881.481	2375.47
881.662	3409.7
881.843	2195.25
882.023	2225.97
882.204	2678.57
882.385	2572.08
882.566	2473.78
882.747	2354.99
882.927	2608.94
883.108	2678.57
883.289	2314.03
883.469	2746.16
883.65	2717.48
883.831	2692.91
884.011	2584.37
884.192	2334.51
884.373	2983.72
884.553	2791.21
884.734	2647.85
884.914	2760.49
885.095	3295.01
885.275	3170.08
885.456	2842.41
885.636	2305.84
885.817	2744.11
885.997	2879.27
886.178	2512.69
886.358	2473.78
886.538	2760.49
886.719	3698.46
886.899	2406.19
887.08	2596.65
887.26	3034.92
887.44	2443.06
887.621	2453.3
887.801	2541.36
887.981	3278.63
888.161	3053.35
888.342	2703.15
888.522	2543.41
888.702	2998.06
888.882	3137.32
889.062	2520.88
889.242	2359.09
889.423	3270.44
889.603	2928.42
889.783	2621.23
889.963	2535.21
890.143	3075.88
890.323	3323.68
890.503	2610.99
890.683	2617.13
890.863	2875.18
891.043	2891.56
891.223	2625.33
891.403	2705.2
891.583	2785.07
891.763	2901.8
891.943	2627.37
892.122	2551.6
892.302	2895.66
892.482	2803.5
892.662	2651.95
892.842	2649.9
893.022	3043.11
893.201	2836.27
893.381	2686.76
893.561	2615.09
893.741	3116.84
893.92	3073.83
894.1	2815.79
894.28	2709.29
894.459	3088.17
894.639	3008.3
894.819	2664.24
894.998	2785.07
895.178	3053.35
895.357	3086.12
895.537	2662.19
895.716	2514.73
895.896	2928.42
896.075	3348.26
896.255	2701.1
896.434	2416.43
896.614	3125.03
896.793	3221.28
896.973	2772.78
897.152	2752.3
897.331	3022.63
897.511	3096.36
897.69	2443.06
897.87	2889.51
898.049	3165.99
898.228	3022.63
898.407	2889.51
898.587	2787.11
898.766	2733.87
898.945	3024.68
899.124	2993.96
899.304	2899.75
899.483	3045.16
899.662	3315.49
899.841	2541.36
900.02	2617.13
900.199	3342.11
900.378	2957.1
900.557	2592.56
900.737	2660.14
900.916	3092.26
901.095	3100.45
901.274	2969.38
901.453	2584.37
901.632	2838.31
901.811	2633.52
901.989	2713.39
902.168	2629.42
902.347	3059.49
902.526	2948.9
902.705	2715.44
902.884	2723.63
903.063	3233.57
903.242	3389.22
903.42	2572.08
903.599	2748.2
903.778	3057.45
903.957	3313.44
904.135	2875.18
904.314	2746.16
904.493	2983.72
904.672	3049.25
904.85	2631.47
905.029	2639.66
905.207	3039.01
905.386	3614.49
905.565	2582.32
905.743	2711.34
905.922	2920.23
906.1	3082.02
906.279	2549.55
906.457	2565.93
906.636	2821.93
906.814	2932.52
906.993	2586.41
907.171	2582.32
907.35	3084.07
907.528	3067.69
907.707	2787.11
907.885	2502.45
908.063	3245.86
908.242	2705.2
908.42	2514.73
908.598	2471.73
908.777	3075.88
908.955	2670.38
909.133	2660.14
909.311	2420.53
909.49	2836.27
909.668	2830.12
909.846	2674.48
910.024	2418.48
910.202	2801.45
910.38	3014.44
910.559	2524.97
910.737	2471.73
910.915	2975.53
911.093	2850.6
911.271	2518.83
911.449	2721.58
911.627	2948.9
911.805	3381.03
911.983	2615.09
912.161	2453.3
912.339	2787.11
912.517	3051.3
912.695	2754.35
912.872	2578.22
913.05	2654
913.228	2805.55
913.406	2567.98
913.584	2543.41
913.762	2879.27
913.939	2490.16
914.117	2445.1
914.295	2418.48
914.473	2852.65
914.65	2869.03
914.828	2451.25
915.006	2400.05
915.184	2432.82
915.361	2797.35
915.539	2582.32
915.716	2664.24
915.894	2754.35
916.072	2795.31
916.249	2645.8
916.427	2670.38
916.604	2481.97
916.782	2912.04
916.959	2334.51
917.137	2531.12
917.314	2752.3
917.492	2762.54
917.669	2488.11
917.847	2441.01
918.024	2780.97
918.201	2350.9
918.379	2502.45
918.556	2418.48
918.733	2903.85
918.911	2539.31
919.088	2574.13
919.265	2504.5
919.442	2688.81
919.62	2584.37
919.797	2297.65
919.974	2260.79
920.151	2619.18
920.328	2694.96
920.506	2393.9
920.683	2615.09
920.86	2453.3
921.037	2357.04
921.214	2445.1
921.391	2203.44
921.568	2776.87
921.745	2514.73
921.922	2271.03
922.099	2236.21
922.276	2834.22
922.453	2625.33
922.63	2258.74
922.807	2527.02
922.984	2584.37
923.161	2441.01
923.338	2342.71
923.514	2252.59
923.691	2537.26
923.868	2613.04
924.045	2271.03
924.222	2228.02
924.399	2522.93
924.575	2645.8
924.752	2252.59
924.929	2242.36
925.105	2504.5
925.282	2189.11
925.459	2217.78
925.635	2352.95
925.812	2408.24
925.989	2254.64
926.165	2297.65
926.342	2027.32
926.518	2189.11
926.695	2496.3
926.871	2246.45
927.048	2068.28
927.224	2664.24
927.401	2277.17
927.577	2273.07
927.754	1969.98
927.93	2654
928.107	2531.12
928.283	2041.65
928.459	2225.97
928.636	2457.39
928.812	2266.93
928.988	1935.16
929.165	1912.63
929.341	2230.07
929.517	2271.03
929.693	2408.24
929.87	1720.12
930.046	2477.87
930.222	2117.43
930.398	1847.1
930.574	2121.52
930.751	2350.9
930.927	2146.1
931.103	1994.55
931.279	2027.32
931.455	1963.83
931.631	2279.22
931.807	1787.71
931.983	1937.21
932.159	1787.71
932.335	2158.39
932.511	1978.17
932.687	1900.34
932.863	2416.43
933.039	2088.76
933.215	1640.25
933.391	1716.03
933.566	2004.79
933.742	2162.48
933.918	1888.06
934.094	1673.02
934.27	1947.45
934.445	2033.46
934.621	1904.44
934.797	1673.02
934.973	2246.45
935.148	2082.61
935.324	1580.86
935.5	1539.9
935.675	2125.62
935.851	1933.11
936.027	1515.33
936.202	1699.64
936.378	1883.96
936.553	1808.19
936.729	2019.13
936.904	1470.27
937.08	1472.32
937.255	1654.59
937.431	1335.1
937.606	1290.05
937.782	1474.37
937.957	1697.6
938.133	1554.24
938.308	1343.3
938.483	1515.33
938.659	1306.43
938.834	1376.06
939.009	1089.35
939.185	1496.89
939.36	1285.95
939.535	1017.67
939.71	1326.91
939.886	1664.83
940.061	1535.81
940.236	1314.63
940.411	1238.85
940.586	1486.65
940.761	1462.08
940.937	1111.88
941.112	1068.87
941.287	1376.06
941.462	1380.16
941.637	1003.33
941.812	1056.58
941.987	1441.6
942.162	1230.66
942.337	1197.89
942.512	1027.91
942.687	1478.46
942.862	1412.93
943.037	823.11
943.212	663.37
943.386	1167.17
943.561	1249.09
943.736	1238.85
943.911	1396.54
944.086	1312.58
944.26	1316.67
944.435	925.51
944.61	1134.4
944.785	1443.65
944.959	1734.46
945.134	1060.68
945.309	839.5
945.483	993.09
945.658	1627.96
945.833	733
946.007	816.97
946.182	1599.29
946.357	1070.92
946.531	941.89
946.706	892.74
946.88	874.31
947.055	1277.76
947.229	982.85
947.404	819.02
947.578	1230.66
947.752	1134.4
947.927	837.45
948.101	700.23
948.276	1148.74
948.45	1177.41
948.624	1128.26
948.799	728.91
948.973	1195.84
949.147	945.99
949.321	952.13
949.496	986.95
949.67	1380.16
949.844	1122.12
950.018	978.76
950.193	1023.81
950.367	1605.44
950.541	1156.93
950.715	1029.96
950.889	991.05
951.063	1228.61
951.237	1326.91
951.411	778.06
951.585	679.75
951.759	1259.33
951.933	1036.1
952.107	870.22
952.281	1072.96
952.455	1562.43
952.629	1423.17
952.803	935.75
952.977	911.18
953.151	1318.72
953.325	1283.91
953.499	1079.11
953.672	802.63
953.846	888.65
954.02	1083.2
954.194	829.26
954.368	778.06
954.541	1316.67
954.715	1115.97
954.889	1038.15
955.062	798.54
955.236	1206.08
955.41	1077.06
955.583	997.19
955.757	722.76
955.93	1058.63
956.104	902.98
956.278	870.22
956.451	1011.53
956.625	1294.15
956.798	1660.73
956.972	1212.23
957.145	810.82
957.319	1083.2
957.492	1179.46
957.665	1081.16
957.839	847.69
958.012	1208.13
958.185	1103.68
958.359	991.05
958.532	1075.01
958.705	1349.44
958.879	1273.67
959.052	937.8
959.225	788.3
959.398	1189.7
959.572	1355.58
959.745	929.61
959.918	921.42
960.091	1042.25
960.264	1206.08
960.438	917.32
960.611	835.4
960.784	1345.34
960.957	997.19
961.13	1242.95
961.303	784.2
961.476	1060.68
961.649	1333.06
961.822	819.02
961.995	978.76
962.168	1234.75
962.341	1175.36
962.514	905.03
962.686	808.78
962.859	1183.56
963.032	1201.99
963.205	823.11
963.378	638.8
963.551	1308.48
963.723	1187.65
963.896	995.14
964.069	964.42
964.242	1181.51
964.414	1384.26
964.587	765.77
964.76	1150.79
964.932	1236.8
965.105	1124.16
965.278	864.07
965.45	853.83
965.623	1138.5
965.795	1271.62
965.968	1040.2
966.14	880.46
966.313	1005.38
966.485	1130.31
966.658	978.76
966.83	741.19
967.003	1425.22
967.175	1261.38
967.348	888.65
967.52	810.82
967.692	1539.9
967.865	1328.96
968.037	902.98
968.209	1195.84
968.382	1015.62
968.554	1290.05
968.726	933.7
968.898	804.68
969.071	1044.29
969.243	1208.13
969.415	989
969.587	966.47
969.759	1720.12
969.932	1283.91
970.104	945.99
970.276	532.3
970.448	943.94
970.62	888.65
970.792	993.09
970.964	872.26
971.136	1617.72
971.308	1247.04
971.48	778.06
971.652	802.63
971.824	1441.6
971.996	907.08
972.168	919.37
972.339	939.85
972.511	1363.78
972.683	925.51
972.855	1113.92
973.027	896.84
973.199	966.47
973.37	1320.77
973.542	1044.29
973.714	999.24
973.886	1050.44
974.057	1314.63
974.229	771.91
974.401	806.73
974.572	778.06
974.744	646.99
974.915	724.81
975.087	788.3
975.259	1371.97
975.43	954.18
975.602	814.92
975.773	673.61
975.945	823.11
976.116	1142.6
976.288	749.39
976.459	966.47
976.63	937.8
976.802	1191.75
976.973	784.2
977.145	950.09
977.316	1541.95
977.487	1400.64
977.659	902.98
977.83	825.16
978.001	1404.74
978.172	1083.2
978.344	782.15
978.515	868.17
978.686	1005.38
978.857	1277.76
979.028	931.66
979.2	646.99
979.371	1208.13
979.542	1075.01
979.713	892.74
979.884	438.09
980.055	851.78
980.226	937.8
980.397	730.95
980.568	737.1
980.739	1171.27
980.91	986.95
981.081	941.89
981.252	683.85
981.423	1181.51
981.594	1269.57
981.765	614.22
981.936	925.51
982.106	956.23
982.277	1251.14
982.448	755.53
982.619	900.94
982.79	919.37
982.96	1288
983.131	837.45
983.302	528.21
983.472	921.42
983.643	1093.44
983.814	892.74
983.984	829.26
984.155	829.26
984.326	1177.41
984.496	794.44
984.667	708.43
984.837	773.96
985.008	1249.09
985.178	907.08
985.349	694.09
985.519	905.03
985.69	831.3
985.86	800.59
986.031	556.88
986.201	1058.63
986.371	1109.83
986.542	622.41
986.712	575.31
986.882	1029.96
987.053	984.9
987.223	634.7
987.393	1019.72
987.563	790.35
987.734	1158.98
987.904	1132.36
988.074	743.24
988.244	1017.67
988.414	862.02
988.585	675.66
988.755	812.87
988.925	925.51
989.095	1285.95
989.265	655.18
989.435	745.29
989.605	1089.35
989.775	1081.16
989.945	931.66
990.115	491.34
990.285	913.22
990.455	1029.96
990.625	735.05
990.795	515.92
990.965	1197.89
991.134	728.91
991.304	530.25
991.474	630.6
991.644	1038.15
991.814	1324.87
991.984	540.49
992.153	661.32
992.323	888.65
992.493	905.03
992.662	499.53
992.832	778.06
993.002	950.09
993.171	900.94
993.341	520.01
993.511	720.71
993.68	816.97
993.85	1003.33
994.019	540.49
994.189	458.57
994.358	945.99
994.528	696.14
994.697	286.54
994.867	560.97
995.036	1083.2
995.206	614.22
995.375	577.36
995.544	753.48
995.714	948.04
995.883	776.01
996.052	778.06
996.222	380.75
996.391	1335.1
996.56	876.36
996.73	595.79
996.899	421.71
997.068	1161.03
997.237	812.87
997.406	487.25
997.576	335.7
997.745	831.3
997.914	796.49
998.083	409.42
998.252	618.32
998.421	790.35
998.59	636.75
998.759	548.68
998.928	339.79
999.097	1154.88
999.266	839.5
999.435	671.56
999.604	415.57
999.773	1326.91
999.942	700.23
1000.111	329.55
1000.28	319.31
1000.448	427.85
1000.617	581.45
1000.786	735.05
1000.955	350.03
1001.124	870.22
1001.292	1466.17
1001.461	548.68
1001.63	352.08
1001.798	1103.68
1001.967	1130.31
1002.136	276.31
1002.304	450.38
1002.473	876.36
1002.642	831.3
1002.81	491.34
1002.979	362.32
1003.147	968.52
1003.316	1326.91
1003.484	434
1003.653	462.67
1003.821	1089.35
1003.99	792.39
1004.158	636.75
1004.327	446.29
1004.495	1013.57
1004.663	556.88
1004.832	610.12
1005	368.46
1005.168	810.82
1005.337	784.2
1005.505	286.54
1005.673	663.37
1005.842	857.93
1006.01	804.68
1006.178	259.92
1006.346	390.99
1006.514	823.11
1006.683	941.89
1006.851	356.18
1007.019	237.39
1007.187	524.11
1007.355	212.82
1007.523	237.39
1007.691	294.74
1007.859	434
1008.027	1044.29
1008.195	352.08
1008.363	214.87
1008.531	956.23
1008.699	477.01
1008.867	266.07
1009.035	302.93
1009.203	1007.43
1009.37	626.51
1009.538	309.07
1009.706	829.26
1009.874	714.57
1010.042	677.71
1010.209	309.07
1010.377	286.54
1010.545	847.69
1010.713	677.71
1010.88	311.12
1011.048	364.37
1011.216	505.68
1011.383	982.85
1011.551	335.7
1011.718	208.72
1011.886	857.93
1012.054	655.18
1012.221	331.6
1012.389	241.49
1012.556	587.6
1012.724	1077.06
1012.891	472.91
1013.058	192.34
1013.226	745.29
1013.393	872.26
1013.561	163.67
1013.728	124.76
1013.895	792.39
1014.063	769.87
1014.23	202.58
1014.397	288.59
1014.565	853.83
1014.732	591.69
1014.899	223.06
1015.066	202.58
1015.233	618.32
1015.401	812.87
1015.568	409.42
1015.735	419.66
1015.902	689.99
1016.069	712.52
1016.236	257.87
1016.403	116.56
1016.57	386.9
1016.737	737.1
1016.904	323.41
1017.071	180.05
1017.238	509.77
1017.405	784.2
1017.572	221.01
1017.739	352.08
1017.906	765.77
1018.073	751.43
1018.24	155.47
1018.407	321.36
1018.573	884.55
1018.74	632.65
1018.907	304.98
1019.074	184.15
1019.241	876.36
1019.407	610.12
1019.574	169.81
1019.741	114.52
1019.907	700.23
1020.074	724.81
1020.241	20.31
1020.407	173.91
1020.574	632.65
1020.74	673.61
1020.907	200.53
1021.073	118.61
1021.24	1050.44
1021.406	921.42
1021.573	184.15
1021.739	153.43
1021.906	798.54
1022.072	540.49
1022.239	243.54
1022.405	245.59
1022.571	560.97
1022.738	401.23
1022.904	171.86
1023.07	214.87
1023.237	495.44
1023.403	804.68
1023.569	96.08
1023.735	171.86
1023.902	511.82
1024.068	646.99
1024.234	145.24
1024.4	159.57
1024.566	655.18
1024.732	720.71
1024.898	190.29
1025.065	-61.61
1025.231	733
1025.397	403.28
1025.563	186.19
1025.729	61.27
1025.895	34.64
1026.061	386.9
1026.227	-16.55
1026.392	272.21
1026.558	761.67
1026.724	577.36
1026.89	231.25
1027.056	214.87
1027.222	589.64
1027.388	337.74
1027.553	104.28
1027.719	184.15
1027.885	876.36
1028.051	646.99
1028.216	28.5
1028.382	253.78
1028.548	704.33
1028.713	401.23
1028.879	24.4
1029.045	171.86
1029.21	823.11
1029.376	708.43
1029.541	159.57
1029.707	167.76
1029.873	683.85
1030.038	692.04
1030.204	40.79
1030.369	155.47
1030.534	720.71
1030.7	368.46
1030.865	196.43
1031.031	147.28
1031.196	583.5
1031.361	530.25
1031.527	132.95
1031.692	73.56
1031.857	108.37
1032.023	700.23
1032.188	-43.18
1032.353	173.91
1032.518	868.17
1032.684	536.4
1032.849	-39.08
1033.014	48.98
1033.179	591.69
1033.344	567.12
1033.509	223.06
1033.674	89.94
1033.839	638.8
1034.004	718.67
1034.17	61.27
1034.335	-73.9
1034.5	450.38
1034.664	304.98
1034.829	98.13
1034.994	94.04
1035.159	507.73
1035.324	503.63
1035.489	139.09
1035.654	-32.94
1035.819	741.19
1035.984	640.84
1036.148	157.52
1036.313	130.9
1036.478	739.15
1036.643	489.29
1036.807	24.4
1036.972	-12.46
1037.137	870.22
1037.301	466.77
1037.466	-90.28
1037.631	180.05
1037.795	749.39
1037.96	468.81
1038.124	239.44
1038.289	-34.99
1038.454	620.36
1038.618	522.06
1038.783	96.08
1038.947	221.01
1039.111	468.81
1039.276	364.37
1039.44	161.62
1039.605	548.68
1039.769	487.25
1039.933	393.04
1040.098	221.01
1040.262	331.6
1040.426	630.6
1040.591	597.84
1040.755	-22.7
1040.919	36.69
1041.083	593.74
1041.248	343.89
1041.412	-80.04
1041.576	20.31
1041.74	374.61
1041.904	673.61
1042.068	28.5
1042.232	143.19
1042.397	661.32
1042.561	452.43
1042.725	-118.95
1042.889	216.91
1043.053	575.31
1043.217	540.49
1043.381	106.32
1043.544	-8.36
1043.708	704.33
1043.872	147.28
1044.036	-202.92
1044.2	-8.36
1044.364	720.71
1044.528	786.25
1044.691	1503.04
1044.855	-129.19
1045.019	528.21
1045.183	651.08
1045.346	79.7
1045.51	-24.75
1045.674	526.16
1045.837	593.74
1046.001	67.41
1046.165	12.12
1046.328	931.66
1046.492	550.73
1046.655	198.48
1046.819	212.82
1046.983	366.42
1047.146	515.92
1047.31	130.9
1047.473	-131.24
1047.636	368.46
1047.8	278.35
1047.963	42.84
1048.127	-49.32
1048.29	163.67
