Data from Ink_Intensity_USB4F045381__52__00052.txt Node

Date: Mon Jul 17 10:15:09 EDT 2023
User: mmckonesweet
Spectrometer: USB4F04538
Trigger mode: 4
Integration Time (sec): 9.000000E-1
Scans to average: 1
Electric dark correction enabled: true
Nonlinearity correction enabled: false
Boxcar width: 0
XAxis mode: Wavelengths
Number of Pixels in Spectrum: 3648
>>>>>Begin Spectral Data<<<<<
345.52	-973.98
345.736	-973.98
345.952	-973.98
346.168	-1006.75
346.384	-973.98
346.6	-165.03
346.816	-304.29
347.032	-167.08
347.248	336.72
347.464	-177.32
347.68	-128.17
347.896	35.67
348.112	367.44
348.328	-83.11
348.544	-126.12
348.76	103.25
348.975	308.05
349.191	-222.38
349.407	-191.66
349.623	99.16
349.839	11.09
350.055	-160.94
350.27	78.68
350.486	129.88
350.702	279.38
350.918	185.17
351.133	-171.18
351.349	205.65
351.565	367.44
351.781	-226.47
351.996	21.33
352.212	326.48
352.428	-199.85
352.644	-197.8
352.859	-320.68
353.075	306
353.291	-38.06
353.506	-212.14
353.722	-246.95
353.938	-119.98
354.153	449.36
354.369	156.5
354.584	-193.7
354.8	246.61
355.016	-318.63
355.231	-236.71
355.447	-48.3
355.662	105.3
355.878	785.23
356.093	-332.97
356.309	-19.63
356.524	-220.33
356.74	265.04
356.955	-220.33
357.171	-11.43
357.386	164.69
357.602	-253.09
357.817	-99.5
358.033	-179.37
358.248	365.39
358.464	95.06
358.679	-152.74
358.895	-306.34
359.11	-11.43
359.325	312.14
359.541	-1.19
359.756	103.25
359.972	-310.44
360.187	103.25
360.402	-191.66
360.618	-216.23
360.833	1018.69
361.048	109.4
361.264	-191.66
361.479	13.14
361.694	-68.78
361.909	230.23
362.125	-214.18
362.34	-23.72
362.555	224.08
362.77	93.01
362.986	-304.29
363.201	-249
363.416	117.59
363.631	115.54
363.847	-162.98
364.062	-97.45
364.277	195.41
364.492	27.48
364.707	-208.04
364.922	-361.64
365.138	242.51
365.353	289.62
365.568	-205.99
365.783	-148.65
365.998	78.68
366.213	570.19
366.428	-236.71
366.643	31.57
366.858	299.86
367.073	234.32
367.288	-138.41
367.503	-279.72
367.718	133.97
367.933	332.62
368.148	-322.73
368.363	-50.35
368.578	-15.53
368.793	467.79
369.008	-126.12
369.223	-257.19
369.438	172.88
369.653	381.78
369.868	-222.38
370.083	-187.56
370.298	90.96
370.513	414.54
370.728	-15.53
370.943	-144.55
371.157	-146.6
371.372	459.6
371.587	-271.53
371.802	-226.47
372.017	119.64
372.232	340.82
372.446	-58.54
372.661	-205.99
372.876	201.55
373.091	129.88
373.306	-31.91
373.52	-205.99
373.735	-177.32
373.95	379.73
374.165	-85.16
374.379	-107.69
374.594	-162.98
374.809	111.44
375.023	78.68
375.238	-212.14
375.453	228.18
375.667	-185.51
375.882	-203.94
376.097	-214.18
376.311	-52.39
376.526	-60.59
376.741	-240.81
376.955	58.2
377.17	521.04
377.384	529.23
377.599	-109.74
377.813	-289.96
378.028	598.86
378.242	136.02
378.457	-89.26
378.672	-345.25
378.886	74.58
379.101	-36.01
379.315	-300.2
379.53	-187.56
379.744	146.26
379.958	170.83
380.173	-187.56
380.387	-167.08
380.602	136.02
380.816	-66.73
381.031	-224.42
381.245	-130.22
381.459	164.69
381.674	2546.48
381.888	-152.74
382.103	123.73
382.317	-208.04
382.531	516.94
382.746	-76.97
382.96	-173.22
383.174	-21.67
383.388	435.02
383.603	74.58
383.817	-236.71
384.031	146.26
384.246	418.64
384.46	-27.82
384.674	328.53
384.888	-46.25
385.103	66.39
385.317	-306.34
385.531	82.77
385.745	351.06
385.959	344.91
386.174	-150.7
386.388	-216.23
386.602	-17.58
386.816	-244.9
387.03	-66.73
387.244	-134.31
387.458	9.05
387.672	381.78
387.887	-273.57
388.101	-294.05
388.315	340.82
388.529	160.59
388.743	-130.22
388.957	-242.85
389.171	422.73
389.385	-158.89
389.599	-91.31
389.813	23.38
390.027	154.45
390.241	586.57
390.455	-115.88
390.669	-142.5
390.883	-87.21
391.097	402.26
391.311	-27.82
391.525	-140.46
391.738	207.7
391.952	123.73
392.166	-19.63
392.38	-185.51
392.594	287.57
392.808	297.81
393.022	-70.83
393.236	-122.02
393.449	275.28
393.663	211.79
393.877	-263.33
394.091	-150.7
394.305	-130.22
394.518	-142.5
394.732	-251.05
394.946	-97.45
395.16	418.64
395.373	103.25
395.587	-210.09
395.801	-205.99
396.015	271.19
396.228	211.79
396.442	-199.85
396.656	-304.29
396.869	291.66
397.083	410.45
397.297	-48.3
397.51	-74.92
397.724	349.01
397.938	176.98
398.151	-249
398.365	-294.05
398.578	158.55
398.792	314.19
399.005	-50.35
399.219	-60.59
399.433	58.2
399.646	234.32
399.86	-74.92
400.073	-107.69
400.287	179.03
400.5	56.15
400.714	25.43
400.927	-48.3
401.141	215.89
401.354	994.12
401.567	193.36
401.781	-244.9
401.994	308.05
402.208	529.23
402.421	-183.46
402.635	-83.11
402.848	19.29
403.061	277.33
403.275	-19.63
403.488	-242.85
403.701	478.03
403.915	318.29
404.128	-64.68
404.341	-218.28
404.555	148.31
404.768	103.25
404.981	-21.67
405.195	-242.85
405.408	541.52
405.621	281.43
405.834	54.1
406.048	-142.5
406.261	351.06
406.474	447.31
406.687	-242.85
406.9	-50.35
407.114	97.11
407.327	185.17
407.54	-259.24
407.753	-314.53
407.966	-154.79
408.179	244.56
408.392	-199.85
408.605	-349.35
408.819	99.16
409.032	142.16
409.245	-197.8
409.458	47.96
409.671	193.36
409.884	308.05
410.097	-304.29
410.31	-23.72
410.523	172.88
410.736	-29.87
410.949	-81.07
411.162	-154.79
411.375	396.11
411.588	246.61
411.801	99.16
412.014	-244.9
412.227	74.58
412.44	-3.24
412.653	-124.07
412.865	-36.01
413.078	234.32
413.291	181.07
413.504	-56.49
413.717	-187.56
413.93	285.52
414.143	-146.6
414.356	-72.87
414.568	-345.25
414.781	181.07
414.994	29.52
415.207	-89.26
415.42	-38.06
415.632	238.42
415.845	406.35
416.058	-275.62
416.271	-228.52
416.483	41.81
416.696	445.26
416.909	-167.08
417.121	-208.04
417.334	197.46
417.547	484.17
417.759	-185.51
417.972	-296.1
418.185	-85.16
418.397	222.03
418.61	-214.18
418.823	-253.09
419.035	437.07
419.248	-5.29
419.46	-103.59
419.673	-115.88
419.885	52.05
420.098	-7.34
420.311	-205.99
420.523	-320.68
420.736	232.27
420.948	25.43
421.161	-138.41
421.373	-357.54
421.586	37.72
421.798	-138.41
422.01	-359.59
422.223	-15.53
422.435	-64.68
422.648	222.03
422.86	-140.46
423.073	-169.13
423.285	295.76
423.497	-232.62
423.71	-191.66
423.922	-216.23
424.134	131.92
424.347	506.7
424.559	9.05
424.771	82.77
424.984	-27.82
425.196	164.69
425.408	-416.93
425.621	-273.57
425.833	295.76
426.045	260.95
426.257	-212.14
426.47	-216.23
426.682	174.93
426.894	217.94
427.106	-177.32
427.318	-146.6
427.531	-126.12
427.743	293.71
427.955	-179.37
428.167	105.3
428.379	260.95
428.591	29.52
428.804	-1.19
429.016	-224.42
429.228	-74.92
429.44	176.98
429.652	-17.58
429.864	-279.72
430.076	-7.34
430.288	-15.53
430.5	-191.66
430.712	-140.46
430.924	279.38
431.136	78.68
431.348	-294.05
431.56	-210.09
431.772	11.09
431.984	-38.06
432.196	-205.99
432.408	-117.93
432.62	-25.77
432.832	142.16
433.044	66.39
433.256	-64.68
433.468	228.18
433.679	-267.43
433.891	-271.53
434.103	15.19
434.315	394.06
434.527	76.63
434.739	-3.24
434.95	-195.75
435.162	322.38
435.374	-46.25
435.586	-140.46
435.798	-150.7
436.009	-242.85
436.221	-21.67
436.433	-212.14
436.645	-103.59
436.856	-113.83
437.068	262.99
437.28	-259.24
437.491	125.78
437.703	150.36
437.915	95.06
438.126	-152.74
438.338	56.15
438.55	-36.01
438.761	172.88
438.973	-124.07
439.184	-103.59
439.396	66.39
439.608	269.14
439.819	-224.42
440.031	-48.3
440.242	318.29
440.454	166.74
440.665	-169.13
440.877	-74.92
441.088	222.03
441.3	-144.55
441.511	-312.49
441.723	-261.29
441.934	121.68
442.146	-7.34
442.357	-101.55
442.569	99.16
442.78	4.95
442.991	412.5
443.203	97.11
443.414	-302.25
443.626	336.72
443.837	-27.82
444.048	-285.86
444.26	-326.82
444.471	136.02
444.682	269.14
444.894	-367.78
445.105	-292.01
445.316	283.47
445.528	80.72
445.739	-36.01
445.95	-150.7
446.161	142.16
446.373	308.05
446.584	-183.46
446.795	-216.23
447.006	166.74
447.217	381.78
447.429	-427.17
447.64	-304.29
447.851	349.01
448.062	93.01
448.273	-357.54
448.484	-230.57
448.695	172.88
448.907	95.06
449.118	-62.63
449.329	15.19
449.54	-126.12
449.751	-203.94
449.962	-169.13
450.173	-99.5
450.384	332.62
450.595	351.06
450.806	-162.98
451.017	-179.37
451.228	367.44
451.439	189.27
451.65	-185.51
451.861	-369.83
452.072	-187.56
452.283	125.78
452.494	-3.24
452.705	-216.23
452.915	449.36
453.126	129.88
453.337	-103.59
453.548	-230.57
453.759	265.04
453.97	525.13
454.181	-23.72
454.391	-175.27
454.602	72.53
454.813	47.96
455.024	-126.12
455.235	-175.27
455.445	66.39
455.656	166.74
455.867	-3.24
456.078	-203.94
456.288	-23.72
456.499	76.63
456.71	-332.97
456.921	58.2
457.131	144.21
457.342	86.87
457.553	-81.07
457.763	-167.08
457.974	187.22
458.184	115.54
458.395	-251.05
458.606	-279.72
458.816	355.15
459.027	553.8
459.237	-105.64
459.448	-384.16
459.659	334.67
459.869	553.8
460.08	-328.87
460.29	-95.4
460.501	478.03
460.711	-23.72
460.922	-355.49
461.132	-177.32
461.343	662.35
461.553	-238.76
461.764	-201.9
461.974	-195.75
462.184	240.47
462.395	82.77
462.605	-224.42
462.816	-261.29
463.026	123.73
463.236	369.49
463.447	-306.34
463.657	-150.7
463.867	185.17
464.078	-50.35
464.288	-146.6
464.498	-273.57
464.709	39.76
464.919	31.57
465.129	-140.46
465.339	-275.62
465.55	66.39
465.76	232.27
465.97	-150.7
466.18	-304.29
466.391	244.56
466.601	119.64
466.811	-171.18
467.021	-224.42
467.231	103.25
467.441	254.8
467.651	-171.18
467.862	-412.84
468.072	31.57
468.282	346.96
468.492	-191.66
468.702	-138.41
468.912	95.06
469.122	611.15
469.332	119.64
469.542	-191.66
469.752	265.04
469.962	109.4
470.172	-320.68
470.382	-208.04
470.592	215.89
470.802	365.39
471.012	-74.92
471.222	-271.53
471.432	217.94
471.642	217.94
471.852	-60.59
472.062	-273.57
472.272	-36.01
472.482	-146.6
472.691	-277.67
472.901	-294.05
473.111	127.83
473.321	533.33
473.531	-351.4
473.741	-70.83
473.95	199.51
474.16	207.7
474.37	-162.98
474.58	-314.53
474.79	478.03
474.999	215.89
475.209	-265.38
475.419	-220.33
475.628	-46.25
475.838	267.09
476.048	-122.02
476.258	-349.35
476.467	287.57
476.677	-17.58
476.886	-68.78
477.096	-187.56
477.306	-138.41
477.515	349.01
477.725	-140.46
477.935	-97.45
478.144	334.67
478.354	-113.83
478.563	-187.56
478.773	-263.33
478.982	215.89
479.192	441.17
479.401	-148.65
479.611	-404.64
479.82	-136.36
480.03	9.05
480.239	-253.09
480.449	-302.25
480.658	400.21
480.868	-212.14
481.077	-134.31
481.287	-226.47
481.496	176.98
481.705	398.16
481.915	90.96
482.124	113.49
482.333	162.64
482.543	371.54
482.752	-150.7
482.961	-177.32
483.171	189.27
483.38	66.39
483.589	-21.67
483.799	-275.62
484.008	-23.72
484.217	291.66
484.426	-160.94
484.636	-283.81
484.845	101.2
485.054	-203.94
485.263	234.32
485.472	-201.9
485.682	441.17
485.891	93.01
486.1	-355.49
486.309	-218.28
486.518	228.18
486.727	353.1
486.936	-220.33
487.146	19.29
487.355	336.72
487.564	-212.14
487.773	-228.52
487.982	-177.32
488.191	-68.78
488.4	21.33
488.609	-228.52
488.818	-195.75
489.027	580.43
489.236	500.56
489.445	-136.36
489.654	-228.52
489.863	334.67
490.072	115.54
490.281	224.08
490.49	-179.37
490.698	449.36
490.907	328.53
491.116	-183.46
491.325	-445.6
491.534	396.11
491.743	197.46
491.952	-113.83
492.16	-160.94
492.369	201.55
492.578	254.8
492.787	-132.26
492.996	-316.58
493.204	-72.87
493.413	523.09
493.622	-394.4
493.831	-298.15
494.039	422.73
494.248	-167.08
494.457	-167.08
494.665	-345.25
494.874	228.18
495.083	555.85
495.291	-169.13
495.5	-253.09
495.709	230.23
495.917	109.4
496.126	-97.45
496.335	-261.29
496.543	-15.53
496.752	144.21
496.96	15.19
497.169	-283.81
497.377	140.12
497.586	418.64
497.794	-142.5
498.003	-418.98
498.211	97.11
498.42	430.93
498.628	-56.49
498.837	-330.92
499.045	226.13
499.254	142.16
499.462	-199.85
499.671	-167.08
499.879	377.68
500.087	287.57
500.296	-265.38
500.504	-126.12
500.713	74.58
500.921	627.53
501.129	-212.14
501.338	-162.98
501.546	131.92
501.754	111.44
501.962	-212.14
502.171	-287.91
502.379	187.22
502.587	492.37
502.795	-132.26
503.004	-89.26
503.212	90.96
503.42	404.3
503.628	-199.85
503.837	-81.07
504.045	179.03
504.253	488.27
504.461	-208.04
504.669	-351.4
504.877	254.8
505.085	435.02
505.294	-359.59
505.502	-7.34
505.71	136.02
505.918	238.42
506.126	-244.9
506.334	-339.11
506.542	144.21
506.75	213.84
506.958	-31.91
507.166	-138.41
507.374	-7.34
507.582	572.24
507.79	-76.97
507.998	-273.57
508.206	238.42
508.414	166.74
508.622	-292.01
508.83	-99.5
509.037	455.5
509.245	47.96
509.453	-218.28
509.661	-261.29
509.869	236.37
510.077	13.14
510.285	41.81
510.492	-451.75
510.7	676.68
510.908	-25.77
511.116	-189.61
511.324	-232.62
511.531	-50.35
511.739	76.63
511.947	-72.87
512.155	72.53
512.362	45.91
512.57	-232.62
512.778	-183.46
512.985	-341.16
513.193	289.62
513.401	367.44
513.608	-171.18
513.816	-146.6
514.024	119.64
514.231	416.59
514.439	-216.23
514.646	-175.27
514.854	238.42
515.061	396.11
515.269	-193.7
515.477	-216.23
515.684	-52.39
515.892	328.53
516.099	-304.29
516.307	-306.34
516.514	248.66
516.722	490.32
516.929	-142.5
517.136	-228.52
517.344	463.69
517.551	228.18
517.759	-220.33
517.966	-134.31
518.173	17.24
518.381	95.06
518.588	-130.22
518.796	-257.19
519.003	226.13
519.21	113.49
519.418	-179.37
519.625	131.92
519.832	17.24
520.039	209.75
520.247	-273.57
520.454	-183.46
520.661	275.28
520.868	197.46
521.076	-195.75
521.283	-156.84
521.49	674.64
521.697	217.94
521.904	-54.44
522.112	-66.73
522.319	299.86
522.526	230.23
522.733	-167.08
522.94	-275.62
523.147	142.16
523.354	316.24
523.561	-404.64
523.768	-44.2
523.975	377.68
524.183	168.79
524.39	-117.93
524.597	-273.57
524.804	156.5
525.011	-56.49
525.218	-189.61
525.425	-160.94
525.632	428.88
525.838	-76.97
526.045	-183.46
526.252	-142.5
526.459	1168.2
526.666	1000.26
526.873	-265.38
527.08	-181.42
527.287	469.84
527.494	326.48
527.701	-267.43
527.907	-195.75
528.114	262.99
528.321	136.02
528.528	-64.68
528.735	-203.94
528.941	25.43
529.148	-36.01
529.355	-19.63
529.562	-187.56
529.768	602.96
529.975	62.29
530.182	-31.91
530.388	-187.56
530.595	389.97
530.802	-216.23
531.008	60.24
531.215	-156.84
531.422	891.72
531.628	842.57
531.835	-62.63
532.042	-74.92
532.248	4.95
532.455	144.21
532.661	-44.2
532.868	-232.62
533.074	50
533.281	359.25
533.487	-81.07
533.694	-228.52
533.9	-83.11
534.107	205.65
534.313	-216.23
534.52	-148.65
534.726	410.45
534.933	674.64
535.139	-212.14
535.345	-246.95
535.552	140.12
535.758	160.59
535.965	-60.59
536.171	-160.94
536.377	385.87
536.584	484.17
536.79	-167.08
536.996	-68.78
537.203	209.75
537.409	275.28
537.615	-60.59
537.821	54.1
538.028	303.95
538.234	349.01
538.44	-21.67
538.646	-48.3
538.853	355.15
539.059	203.6
539.265	303.95
539.471	-351.4
539.677	373.58
539.883	39.76
540.09	-181.42
540.296	219.99
540.502	179.03
540.708	0.85
540.914	78.68
541.12	-154.79
541.326	256.85
541.532	88.92
541.738	-36.01
541.944	-76.97
542.15	414.54
542.356	54.1
542.562	-171.18
542.768	-124.07
542.974	731.98
543.18	678.73
543.386	-119.98
543.592	-251.05
543.798	471.89
544.004	332.62
544.21	-81.07
544.415	-25.77
544.621	174.93
544.827	359.25
545.033	-226.47
545.239	0.85
545.445	-62.63
545.651	222.03
545.856	-83.11
546.062	-212.14
546.268	58.2
546.474	193.36
546.679	-146.6
546.885	-27.82
547.091	45.91
547.297	643.92
547.502	-62.63
547.708	-169.13
547.914	33.62
548.119	346.96
548.325	-183.46
548.531	-193.7
548.736	539.47
548.942	52.05
549.147	-95.4
549.353	60.24
549.559	463.69
549.764	349.01
549.97	-128.17
550.175	-46.25
550.381	387.92
550.586	66.39
550.792	-23.72
550.997	-117.93
551.203	324.43
551.408	381.78
551.614	-216.23
551.819	-105.64
552.025	557.9
552.23	656.2
552.435	-214.18
552.641	88.92
552.846	25.43
553.052	406.35
553.257	35.67
553.462	-87.21
553.668	-54.44
553.873	502.61
554.078	-150.7
554.283	-212.14
554.489	207.7
554.694	234.32
554.899	-240.81
555.105	50
555.31	318.29
555.515	361.3
555.72	31.57
555.925	-132.26
556.131	363.34
556.336	11.09
556.541	-56.49
556.746	-167.08
556.951	553.8
557.156	572.24
557.361	58.2
557.567	97.11
557.772	754.51
557.977	285.52
558.182	-85.16
558.387	-72.87
558.592	9.05
558.797	471.89
559.002	21.33
559.207	-1.19
559.412	248.66
559.617	631.63
559.822	-89.26
560.027	-70.83
560.232	283.47
560.437	328.53
560.642	-226.47
560.847	-173.22
561.051	326.48
561.256	377.68
561.461	-134.31
561.666	-187.56
561.871	308.05
562.076	373.58
562.281	27.48
562.485	-81.07
562.69	316.24
562.895	445.26
563.1	-89.26
563.305	-101.55
563.509	447.31
563.714	744.27
563.919	-66.73
564.123	-36.01
564.328	189.27
564.533	484.17
564.737	-21.67
564.942	-27.82
565.147	635.72
565.351	703.31
565.556	74.58
565.761	50
565.965	349.01
566.17	162.64
566.374	-38.06
566.579	-122.02
566.784	191.31
566.988	115.54
567.193	-105.64
567.397	-101.55
567.602	-89.26
567.806	154.45
568.011	31.57
568.215	52.05
568.42	115.54
568.624	240.47
568.828	-93.35
569.033	97.11
569.237	437.07
569.442	367.44
569.646	-193.7
569.85	33.62
570.055	144.21
570.259	355.15
570.463	191.31
570.668	25.43
570.872	228.18
571.076	222.03
571.281	189.27
571.485	82.77
571.689	275.28
571.893	475.98
572.098	158.55
572.302	21.33
572.506	418.64
572.71	351.06
572.914	72.53
573.119	15.19
573.323	615.24
573.527	607.05
573.731	37.72
573.935	-72.87
574.139	297.81
574.343	136.02
574.547	90.96
574.751	31.57
574.955	613.2
575.159	564.04
575.364	-13.48
575.568	-103.59
575.772	281.43
575.976	547.66
576.18	-15.53
576.383	-208.04
576.587	539.47
576.791	449.36
576.995	-216.23
577.199	-113.83
577.403	564.04
577.607	588.62
577.811	-115.88
578.015	78.68
578.219	287.57
578.422	475.98
578.626	99.16
578.83	179.03
579.034	478.03
579.238	363.34
579.442	-11.43
579.645	346.96
579.849	201.55
580.053	291.66
580.257	74.58
580.46	142.16
580.664	535.37
580.868	471.89
581.071	248.66
581.275	99.16
581.479	-33.96
581.682	412.5
581.886	11.09
582.09	215.89
582.293	445.26
582.497	506.7
582.7	226.13
582.904	-15.53
583.107	338.77
583.311	273.23
583.515	115.54
583.718	111.44
583.922	389.97
584.125	734.03
584.329	11.09
584.532	228.18
584.735	582.48
584.939	424.78
585.142	-56.49
585.346	-19.63
585.549	414.54
585.753	201.55
585.956	115.54
586.159	246.61
586.363	682.83
586.566	447.31
586.769	-33.96
586.973	23.38
587.176	418.64
587.379	562
587.582	377.68
587.786	224.08
587.989	312.14
588.192	981.83
588.395	119.64
588.599	459.6
588.802	426.83
589.005	467.79
589.208	82.77
589.411	119.64
589.615	494.41
589.818	752.46
590.021	234.32
590.224	236.37
590.427	545.61
590.63	424.78
590.833	-95.4
591.036	-42.15
591.239	283.47
591.442	242.51
591.645	301.9
591.848	25.43
592.051	404.3
592.254	525.13
592.457	201.55
592.66	82.77
592.863	312.14
593.066	412.5
593.269	136.02
593.472	185.17
593.675	222.03
593.878	500.56
594.081	211.79
594.284	72.53
594.486	512.85
594.689	334.67
594.892	168.79
595.095	78.68
595.298	484.17
595.5	289.62
595.703	209.75
595.906	215.89
596.109	766.79
596.311	611.15
596.514	-158.89
596.717	152.4
596.92	693.07
597.122	553.8
597.325	-64.68
597.528	39.76
597.73	709.45
597.933	373.58
598.136	152.4
598.338	-115.88
598.541	492.37
598.743	670.54
598.946	115.54
599.148	152.4
599.351	670.54
599.554	668.49
599.756	334.67
599.959	107.35
600.161	709.45
600.363	987.97
600.566	402.26
600.768	123.73
600.971	795.47
601.173	555.85
601.376	166.74
601.578	127.83
601.78	543.57
601.983	1028.93
602.185	129.88
602.388	471.89
602.59	516.94
602.792	277.33
602.995	404.3
603.197	86.87
603.399	650.06
603.601	504.65
603.804	238.42
604.006	19.29
604.208	383.82
604.41	50
604.613	340.82
604.815	156.5
605.017	926.54
605.219	226.13
605.421	506.7
605.623	176.98
605.826	770.89
606.028	813.9
606.23	107.35
606.432	146.26
606.634	787.27
606.836	770.89
607.038	31.57
607.24	318.29
607.442	404.3
607.644	482.13
607.846	392.02
608.048	131.92
608.25	740.17
608.452	291.66
608.654	215.89
608.856	-5.29
609.058	306
609.26	523.09
609.462	306
609.664	267.09
609.866	981.83
610.067	697.16
610.269	406.35
610.471	205.65
610.673	381.78
610.875	510.8
611.077	31.57
611.278	344.91
611.48	559.95
611.682	955.21
611.884	316.24
612.085	140.12
612.287	207.7
612.489	586.57
612.69	99.16
612.892	252.75
613.094	705.35
613.295	518.99
613.497	115.54
613.699	346.96
613.9	879.43
614.102	725.83
614.304	201.55
614.505	43.86
614.707	435.02
614.908	471.89
615.11	123.73
615.311	312.14
615.513	621.39
615.714	693.07
615.916	113.49
616.117	326.48
616.319	441.17
616.52	691.02
616.722	254.8
616.923	195.41
617.124	750.41
617.326	643.92
617.527	277.33
617.729	457.55
617.93	592.72
618.131	656.2
618.333	189.27
618.534	330.58
618.735	297.81
618.937	836.42
619.138	84.82
619.339	131.92
619.54	574.28
619.742	404.3
619.943	344.91
620.144	332.62
620.345	670.54
620.546	705.35
620.748	140.12
620.949	271.19
621.15	596.81
621.351	545.61
621.552	295.76
621.753	-7.34
621.954	213.84
622.155	955.21
622.356	287.57
622.558	404.3
622.759	410.45
622.96	973.64
623.161	258.9
623.362	279.38
623.563	486.22
623.764	564.04
623.965	269.14
624.166	508.75
624.366	488.27
624.567	619.34
624.768	-7.34
624.969	238.42
625.17	502.61
625.371	709.45
625.572	351.06
625.773	260.95
625.973	764.75
626.174	703.31
626.375	308.05
626.576	377.68
626.777	639.82
626.977	1153.86
627.178	281.43
627.379	367.44
627.58	508.75
627.78	518.99
627.981	342.86
628.182	398.16
628.382	856.9
628.583	308.05
628.784	123.73
628.984	435.02
629.185	822.09
629.386	623.44
629.586	402.26
629.787	283.47
629.987	648.01
630.188	529.23
630.388	377.68
630.589	320.34
630.79	1157.96
630.99	582.48
631.191	340.82
631.391	392.02
631.591	752.46
631.792	973.64
631.992	463.69
632.193	416.59
632.393	926.54
632.594	652.11
632.794	205.65
632.994	410.45
633.195	531.28
633.395	596.81
633.595	277.33
633.796	572.24
633.996	355.15
634.196	908.1
634.397	201.55
634.597	373.58
634.797	353.1
634.997	904.01
635.198	543.57
635.398	246.61
635.598	680.78
635.798	971.59
635.998	889.67
636.199	287.57
636.399	447.31
636.599	398.16
636.799	342.86
636.999	586.57
637.199	709.45
637.399	836.42
637.599	367.44
637.799	459.6
637.999	512.85
638.199	1006.41
638.399	240.47
638.599	303.95
638.799	795.47
638.999	1137.48
639.199	545.61
639.399	357.2
639.599	889.67
639.799	320.34
639.999	228.18
640.199	248.66
640.399	617.29
640.599	688.97
640.799	498.51
640.998	535.37
641.198	916.3
641.398	752.46
641.598	541.52
641.798	392.02
641.997	1594.17
642.197	625.48
642.397	473.93
642.597	355.15
642.796	711.5
642.996	1057.61
643.196	570.19
643.395	283.47
643.595	768.84
643.795	328.53
643.994	377.68
644.194	500.56
644.394	891.72
644.593	729.93
644.793	299.86
644.992	615.24
645.192	795.47
645.392	262.99
645.591	482.13
645.791	471.89
645.99	803.66
646.19	512.85
646.389	490.32
646.589	461.65
646.788	889.67
646.987	885.58
647.187	672.59
647.386	635.72
647.586	668.49
647.785	867.14
647.984	488.27
648.184	463.69
648.383	586.57
648.582	623.44
648.782	475.98
648.981	637.77
649.18	531.28
649.38	744.27
649.579	420.69
649.778	379.73
649.977	801.61
650.177	871.24
650.376	365.39
650.575	389.97
650.774	1096.52
650.973	607.05
651.173	297.81
651.372	609.1
651.571	709.45
651.77	897.86
651.969	447.31
652.168	539.47
652.367	512.85
652.566	672.59
652.765	342.86
652.964	744.27
653.163	1143.62
653.362	809.8
653.561	531.28
653.76	484.17
653.959	658.25
654.158	758.6
654.357	682.83
654.556	459.6
654.755	885.58
654.954	938.82
655.153	512.85
655.352	570.19
655.551	1051.46
655.749	533.33
655.948	518.99
656.147	500.56
656.346	785.23
656.545	615.24
656.743	568.14
656.942	580.43
657.141	725.83
657.34	539.47
657.538	547.66
657.737	553.8
657.936	658.25
658.135	901.96
658.333	435.02
658.532	633.68
658.731	1174.34
658.929	848.71
659.128	754.51
659.326	430.93
659.525	1133.38
659.724	774.99
659.922	410.45
660.121	402.26
660.319	875.34
660.518	531.28
660.716	351.06
660.915	430.93
661.113	1188.68
661.312	365.39
661.51	678.73
661.709	432.97
661.907	877.38
662.105	1065.8
662.304	496.46
662.502	615.24
662.701	1037.13
662.899	715.59
663.097	891.72
663.296	389.97
663.494	985.93
663.692	1071.94
663.891	467.79
664.089	449.36
664.287	811.85
664.485	1127.24
664.684	424.78
664.882	699.21
665.08	834.38
665.278	713.55
665.476	385.87
665.675	809.8
665.873	1205.06
666.071	1006.41
666.269	541.52
666.467	754.51
666.665	867.14
666.863	719.69
667.061	602.96
667.259	531.28
667.457	662.35
667.655	1010.5
667.853	385.87
668.051	746.31
668.249	666.44
668.447	1028.93
668.645	518.99
668.843	721.74
669.041	1000.26
669.239	631.63
669.437	666.44
669.635	701.26
669.833	699.21
670.031	965.45
670.229	713.55
670.426	742.22
670.624	731.98
670.822	574.28
671.02	574.28
671.218	547.66
671.415	562
671.613	828.23
671.811	785.23
672.009	498.51
672.206	955.21
672.404	838.47
672.602	809.8
672.799	627.53
672.997	846.66
673.195	1131.33
673.392	660.3
673.59	457.55
673.788	1004.36
673.985	518.99
674.183	635.72
674.38	703.31
674.578	1030.98
674.775	615.24
674.973	512.85
675.17	525.13
675.368	1160
675.565	940.87
675.763	588.62
675.96	609.1
676.158	1127.24
676.355	746.31
676.553	582.48
676.75	693.07
676.947	750.41
677.145	752.46
677.342	760.65
677.539	623.44
677.737	957.25
677.934	1379.14
678.131	795.47
678.329	594.76
678.526	1141.57
678.723	938.82
678.92	752.46
679.118	623.44
679.315	523.09
679.512	1225.54
679.709	707.4
679.906	717.64
680.104	1049.41
680.301	963.4
680.498	574.28
680.695	555.85
680.892	729.93
681.089	629.58
681.286	688.97
681.483	414.54
681.68	973.64
681.877	1057.61
682.075	629.58
682.272	883.53
682.469	938.82
682.665	793.42
682.862	541.52
683.059	342.86
683.256	979.78
683.453	863.05
683.65	774.99
683.847	652.11
684.044	830.28
684.241	566.09
684.438	797.51
684.635	549.71
684.831	1336.13
685.028	1325.89
685.225	678.73
685.422	711.5
685.619	869.19
685.815	852.81
686.012	758.6
686.209	758.6
686.405	527.18
686.602	1010.5
686.799	455.5
686.996	498.51
687.192	527.18
687.389	1317.7
687.586	658.25
687.782	684.87
687.979	1186.63
688.175	1037.13
688.372	715.59
688.568	652.11
688.765	738.12
688.962	1188.68
689.158	910.15
689.355	447.31
689.551	1055.56
689.748	686.92
689.944	668.49
690.14	500.56
690.337	955.21
690.533	691.02
690.73	914.25
690.926	723.79
691.123	1022.79
691.319	858.95
691.515	508.75
691.712	785.23
691.908	969.54
692.104	951.11
692.301	877.38
692.497	496.46
692.693	1145.67
692.889	1078.08
693.086	832.33
693.282	457.55
693.478	858.95
693.674	1211.2
693.87	697.16
694.067	504.65
694.263	936.78
694.459	777.03
694.655	850.76
694.851	676.68
695.047	1016.65
695.243	1127.24
695.439	781.13
695.635	586.57
695.831	1073.99
696.027	1137.48
696.224	713.55
696.42	1076.04
696.615	1203.01
696.811	967.49
697.007	543.57
697.203	643.92
697.399	1010.5
697.595	1235.78
697.791	668.49
697.987	781.13
698.183	592.72
698.379	840.52
698.575	768.84
698.77	738.12
698.966	975.69
699.162	1270.59
699.358	770.89
699.554	611.15
699.749	1141.57
699.945	1186.63
700.141	842.57
700.337	783.18
700.532	822.09
700.728	746.31
700.924	578.38
701.119	570.19
701.315	1051.46
701.511	918.34
701.706	762.7
701.902	545.61
702.097	836.42
702.293	1043.27
702.489	817.99
702.684	805.71
702.88	951.11
703.075	805.71
703.271	824.14
703.466	641.87
703.662	940.87
703.857	1084.23
704.053	709.45
704.248	662.35
704.443	1114.95
704.639	1100.61
704.834	787.27
705.03	703.31
705.225	1114.95
705.42	1213.25
705.616	838.47
705.811	656.2
706.006	858.95
706.202	803.66
706.397	824.14
706.592	537.42
706.787	1024.84
706.983	901.96
707.178	885.58
707.373	717.64
707.568	1123.14
707.763	1258.31
707.959	727.88
708.154	670.54
708.349	1112.9
708.544	1008.45
708.739	987.97
708.934	596.81
709.129	1114.95
709.324	1270.59
709.519	641.87
709.714	703.31
709.909	1194.82
710.104	1043.27
710.299	668.49
710.494	648.01
710.689	1098.56
710.884	979.78
711.079	760.65
711.274	1022.79
711.469	1194.82
711.664	926.54
711.859	725.83
712.054	781.13
712.249	1131.33
712.443	1160
712.638	680.78
712.833	697.16
713.028	975.69
713.223	895.82
713.417	975.69
713.612	799.56
713.807	1090.37
714.002	1567.55
714.196	922.44
714.391	699.21
714.586	1186.63
714.78	867.14
714.975	787.27
715.17	736.07
715.364	844.62
715.559	1239.87
715.754	394.06
715.948	697.16
716.143	1585.98
716.337	1057.61
716.532	1024.84
716.726	631.63
716.921	1051.46
717.115	1389.38
717.31	670.54
717.504	1264.45
717.699	932.68
717.893	1237.83
718.088	688.97
718.282	629.58
718.476	1022.79
718.671	1106.76
718.865	648.01
719.059	766.79
719.254	1041.22
719.448	1368.9
719.642	1983.29
719.837	555.85
720.031	1192.77
720.225	1356.61
720.419	861
720.614	643.92
720.808	1178.44
721.002	938.82
721.196	639.82
721.39	734.03
721.585	1338.18
721.779	1092.42
721.973	826.18
722.167	584.52
722.361	1102.66
722.555	1217.35
722.749	754.51
722.943	711.5
723.137	680.78
723.331	1110.85
723.525	752.46
723.719	826.18
723.913	1215.3
724.107	1266.5
724.301	631.63
724.495	842.57
724.689	1467.2
724.883	1309.51
725.077	650.06
725.271	777.03
725.465	1270.59
725.659	967.49
725.853	854.86
726.046	678.73
726.24	858.95
726.434	1229.63
726.628	688.97
726.822	865.1
727.015	1225.54
727.209	1358.66
727.403	721.74
727.596	553.8
727.79	1172.29
727.984	1149.76
728.177	678.73
728.371	979.78
728.565	1203.01
728.758	693.07
728.952	713.55
729.146	779.08
729.339	1225.54
729.533	990.02
729.726	797.51
729.92	676.68
730.113	1282.88
730.307	1076.04
730.5	766.79
730.694	777.03
730.887	965.45
731.081	1059.65
731.274	652.11
731.468	867.14
731.661	932.68
731.854	832.33
732.048	779.08
732.241	701.26
732.435	865.1
732.628	1078.08
732.821	779.08
733.014	772.94
733.208	789.32
733.401	1143.62
733.594	746.31
733.788	744.27
733.981	1387.33
734.174	1170.24
734.367	734.03
734.56	906.06
734.754	1211.2
734.947	901.96
735.14	697.16
735.333	772.94
735.526	1123.14
735.719	777.03
735.912	699.21
736.105	746.31
736.298	1078.08
736.491	811.85
736.684	752.46
736.877	836.42
737.07	1110.85
737.263	1303.36
737.456	815.94
737.649	754.51
737.842	959.3
738.035	953.16
738.228	951.11
738.421	924.49
738.614	1250.11
738.807	1049.41
739	686.92
739.192	693.07
739.385	1035.08
739.578	1231.68
739.771	1047.37
739.964	791.37
740.156	1067.85
740.349	1000.26
740.542	961.35
740.735	723.79
740.927	738.12
741.12	777.03
741.313	715.59
741.505	865.1
741.698	1063.75
741.891	1207.11
742.083	949.06
742.276	824.14
742.468	998.21
742.661	877.38
742.854	856.9
743.046	711.5
743.239	1397.57
743.431	936.78
743.624	897.86
743.816	605
744.009	1030.98
744.201	1180.48
744.393	1073.99
744.586	631.63
744.778	1317.7
744.971	1053.51
745.163	848.71
745.355	928.58
745.548	1014.6
745.74	949.06
745.932	920.39
746.125	877.38
746.317	1579.84
746.509	1147.72
746.702	846.66
746.894	842.57
747.086	1151.81
747.278	1364.8
747.471	936.78
747.663	944.97
747.855	1086.28
748.047	1391.42
748.239	828.23
748.431	719.69
748.623	1370.94
748.815	1389.38
749.008	824.14
749.2	725.83
749.392	1225.54
749.584	1192.77
749.776	869.19
749.968	1012.55
750.16	1409.86
750.352	893.77
750.544	832.33
750.736	772.94
750.928	1219.39
751.12	1131.33
751.311	856.9
751.503	885.58
751.695	1149.76
751.887	971.59
752.079	678.73
752.271	781.13
752.463	1858.36
752.654	1168.2
752.846	912.2
753.038	738.12
753.23	877.38
753.421	1147.72
753.613	879.43
753.805	1131.33
753.997	1203.01
754.188	1338.18
754.38	756.55
754.572	803.66
754.763	1047.37
754.955	1229.63
755.146	840.52
755.338	897.86
755.53	1141.57
755.721	981.83
755.913	594.76
756.104	795.47
756.296	953.16
756.487	1299.27
756.679	729.93
756.87	869.19
757.062	932.68
757.253	1203.01
757.445	863.05
757.636	912.2
757.827	1061.7
758.019	1708.86
758.21	740.17
758.401	861
758.593	1495.87
758.784	1332.03
758.975	650.06
759.167	764.75
759.358	1112.9
759.549	1407.81
759.74	807.75
759.932	881.48
760.123	1448.77
760.314	865.1
760.505	955.21
760.696	865.1
760.888	1522.49
761.079	918.34
761.27	783.18
761.461	633.68
761.652	1510.21
761.843	916.3
762.034	777.03
762.225	1084.23
762.416	1096.52
762.607	1067.85
762.798	793.42
762.989	779.08
763.18	1821.5
763.371	918.34
763.562	760.65
763.753	852.81
763.944	1209.15
764.135	1203.01
764.326	871.24
764.517	766.79
764.708	1102.66
764.899	1151.81
765.089	795.47
765.28	607.05
765.471	1045.32
765.662	1200.96
765.853	817.99
766.043	588.62
766.234	1207.11
766.425	1338.18
766.615	912.2
766.806	746.31
766.997	1246.02
767.187	1121.09
767.378	787.27
767.569	623.44
767.759	1209.15
767.95	1104.71
768.141	1002.31
768.331	809.8
768.522	893.77
768.712	1229.63
768.903	709.45
769.093	693.07
769.284	1489.73
769.474	1123.14
769.665	590.67
769.855	602.96
770.046	1137.48
770.236	973.64
770.426	949.06
770.617	764.75
770.807	1153.86
770.998	987.97
771.188	1008.45
771.378	635.72
771.569	1266.5
771.759	1155.91
771.949	645.96
772.139	701.26
772.33	1080.13
772.52	1299.27
772.71	797.51
772.9	746.31
773.09	1358.66
773.281	1184.58
773.471	811.85
773.661	861
773.851	1362.75
774.041	973.64
774.231	811.85
774.421	975.69
774.611	1461.06
774.802	1078.08
774.992	877.38
775.182	697.16
775.372	1037.13
775.562	1254.21
775.752	840.52
775.942	713.55
776.131	1340.22
776.321	1237.83
776.511	781.13
776.701	662.35
776.891	1186.63
777.081	824.14
777.271	922.44
777.461	631.63
777.651	1162.05
777.84	1332.03
778.03	844.62
778.22	756.55
778.41	1434.43
778.599	846.66
778.789	906.06
778.979	711.5
779.169	1037.13
779.358	971.59
779.548	1049.41
779.738	645.96
779.927	1137.48
780.117	770.89
780.307	824.14
780.496	652.11
780.686	1198.92
780.875	1463.1
781.065	711.5
781.254	799.56
781.444	1063.75
781.633	969.54
781.823	738.12
782.012	799.56
782.202	893.77
782.391	963.4
782.581	742.22
782.77	906.06
782.96	1164.1
783.149	1041.22
783.338	742.22
783.528	455.5
783.717	1209.15
783.906	1276.74
784.096	881.48
784.285	592.72
784.474	932.68
784.663	729.93
784.853	746.31
785.042	918.34
785.231	938.82
785.42	1211.2
785.61	916.3
785.799	662.35
785.988	873.29
786.177	957.25
786.366	783.18
786.555	922.44
786.744	1276.74
786.933	953.16
787.122	643.92
787.312	686.92
787.501	865.1
787.69	1160
787.879	838.47
788.068	682.83
788.257	779.08
788.445	836.42
788.634	719.69
788.823	676.68
789.012	1596.22
789.201	1356.61
789.39	836.42
789.579	746.31
789.768	1049.41
789.957	1112.9
790.145	762.7
790.334	504.65
790.523	1028.93
790.712	906.06
790.9	858.95
791.089	537.42
791.278	1227.59
791.467	1069.89
791.655	1006.41
791.844	1221.44
792.033	848.71
792.221	932.68
792.41	774.99
792.599	475.98
792.787	1241.92
792.976	1225.54
793.164	621.39
793.353	789.32
793.541	1225.54
793.73	1057.61
793.918	889.67
794.107	729.93
794.295	994.12
794.484	1071.94
794.672	770.89
794.861	799.56
795.049	1186.63
795.238	1479.49
795.426	736.07
795.614	740.17
795.803	1053.51
795.991	1307.46
796.179	828.23
796.368	725.83
796.556	1340.22
796.744	774.99
796.932	799.56
797.121	650.06
797.309	889.67
797.497	1151.81
797.685	723.79
797.874	736.07
798.062	985.93
798.25	1340.22
798.438	750.41
798.626	736.07
798.814	1065.8
799.002	1504.06
799.19	926.54
799.378	809.8
799.566	1260.35
799.755	1338.18
799.943	969.54
800.131	705.35
800.318	1065.8
800.506	1073.99
800.694	643.92
800.882	947.01
801.07	1211.2
801.258	928.58
801.446	762.7
801.634	729.93
801.822	961.35
802.01	981.83
802.197	721.74
802.385	949.06
802.573	940.87
802.761	787.27
802.949	793.42
803.136	602.96
803.324	1274.69
803.512	1094.47
803.699	863.05
803.887	580.43
804.075	1352.51
804.262	901.96
804.45	602.96
804.638	889.67
804.825	742.22
805.013	908.1
805.201	811.85
805.388	678.73
805.576	998.21
805.763	1479.49
805.951	756.55
806.138	910.15
806.326	1545.02
806.513	1237.83
806.701	803.66
806.888	791.37
807.075	1086.28
807.263	1352.51
807.45	615.24
807.638	832.33
807.825	1467.2
808.012	1325.89
808.2	863.05
808.387	1004.36
808.574	1069.89
808.761	1432.38
808.949	715.59
809.136	901.96
809.323	877.38
809.51	1030.98
809.698	1188.68
809.885	1045.32
810.072	1059.65
810.259	1319.75
810.446	910.15
810.633	713.55
810.82	1440.58
811.008	1487.68
811.195	983.88
811.382	881.48
811.569	1053.51
811.756	815.94
811.943	920.39
812.13	822.09
812.317	916.3
812.504	926.54
812.691	873.29
812.878	871.24
813.064	1536.83
813.251	1082.18
813.438	772.94
813.625	1020.74
813.812	1090.37
813.999	1086.28
814.186	834.38
814.372	940.87
814.559	1069.89
814.746	1479.49
814.933	928.58
815.12	971.59
815.306	965.45
815.493	936.78
815.68	865.1
815.866	830.28
816.053	1332.03
816.24	1692.48
816.426	983.88
816.613	713.55
816.799	1196.87
816.986	1252.16
817.173	824.14
817.359	711.5
817.546	1153.86
817.732	869.19
817.919	498.51
818.105	957.25
818.292	1063.75
818.478	1133.38
818.665	1049.41
818.851	684.87
819.037	1493.82
819.224	1127.24
819.41	760.65
819.597	774.99
819.783	1473.34
819.969	1194.82
820.156	944.97
820.342	858.95
820.528	1825.59
820.714	1061.7
820.901	1061.7
821.087	811.85
821.273	1438.53
821.459	1024.84
821.646	754.51
821.832	742.22
822.018	1119.04
822.204	1135.43
822.39	1014.6
822.576	863.05
822.762	1184.58
822.948	1182.53
823.134	996.17
823.32	797.51
823.507	729.93
823.693	1127.24
823.879	1182.53
824.065	873.29
824.25	1164.1
824.436	742.22
824.622	817.99
824.808	701.26
824.994	897.86
825.18	785.23
825.366	697.16
825.552	793.42
825.738	1061.7
825.923	1362.75
826.109	1047.37
826.295	752.46
826.481	1000.26
826.667	1033.03
826.852	951.11
827.038	650.06
827.224	1344.32
827.409	1504.06
827.595	592.72
827.781	996.17
827.966	1334.08
828.152	1336.13
828.338	787.27
828.523	758.6
828.709	893.77
828.894	1338.18
829.08	951.11
829.266	791.37
829.451	865.1
829.637	1225.54
829.822	965.45
830.008	793.42
830.193	1235.78
830.378	1461.06
830.564	826.18
830.749	766.79
830.935	1135.43
831.12	1289.03
831.305	725.83
831.491	961.35
831.676	768.84
831.861	1188.68
832.047	914.25
832.232	734.03
832.417	1194.82
832.602	1073.99
832.788	858.95
832.973	762.7
833.158	1020.74
833.343	1053.51
833.528	1024.84
833.714	940.87
833.899	1166.15
834.084	1504.06
834.269	1016.65
834.454	760.65
834.639	1338.18
834.824	1045.32
835.009	949.06
835.194	1033.03
835.379	1297.22
835.564	1530.69
835.749	1012.55
835.934	723.79
836.119	1162.05
836.304	953.16
836.489	822.09
836.674	990.02
836.859	865.1
837.044	1321.79
837.228	869.19
837.413	717.64
837.598	1180.48
837.783	1327.94
837.968	756.55
838.152	627.53
838.337	754.51
838.522	1356.61
838.707	1211.2
838.891	1065.8
839.076	1209.15
839.261	1301.31
839.445	729.93
839.63	922.44
839.815	1506.11
839.999	947.01
840.184	850.76
840.368	777.03
840.553	1211.2
840.737	1295.17
840.922	731.98
841.106	777.03
841.291	840.52
841.475	1112.9
841.66	793.42
841.844	840.52
842.029	1733.43
842.213	756.55
842.397	848.71
842.582	648.01
842.766	1385.28
842.951	1270.59
843.135	713.55
843.319	785.23
843.504	1127.24
843.688	1307.46
843.872	650.06
844.056	709.45
844.241	1147.72
844.425	1108.8
844.609	992.07
844.793	539.47
844.977	1332.03
845.161	1139.52
845.346	568.14
845.53	772.94
845.714	899.91
845.898	1456.96
846.082	580.43
846.266	766.79
846.45	975.69
846.634	1137.48
846.818	725.83
847.002	899.91
847.186	1246.02
847.37	854.86
847.554	676.68
847.738	928.58
847.922	1160
848.106	1112.9
848.29	635.72
848.473	817.99
848.657	1166.15
848.841	912.2
849.025	867.14
849.209	654.16
849.392	1119.04
849.576	918.34
849.76	568.14
849.944	914.25
850.127	1381.18
850.311	688.97
850.495	682.83
850.678	742.22
850.862	1319.75
851.046	1432.38
851.229	1008.45
851.413	619.34
851.596	992.07
851.78	1061.7
851.964	990.02
852.147	801.61
852.331	1846.07
852.514	1315.65
852.698	858.95
852.881	570.19
853.065	1241.92
853.248	1002.31
853.431	893.77
853.615	865.1
853.798	1504.06
853.982	1149.76
854.165	926.54
854.348	762.7
854.532	813.9
854.715	918.34
854.898	789.32
855.081	768.84
855.265	1172.29
855.448	1364.8
855.631	785.23
855.814	707.4
855.997	1248.07
856.181	1002.31
856.364	854.86
856.547	633.68
856.73	1045.32
856.913	1123.14
857.096	588.62
857.279	846.66
857.462	895.82
857.645	1184.58
857.828	951.11
858.011	832.33
858.194	879.43
858.377	1233.73
858.56	693.07
858.743	772.94
858.926	824.14
859.109	1088.32
859.292	734.03
859.475	693.07
859.658	1303.36
859.841	1135.43
860.023	654.16
860.206	697.16
860.389	1090.37
860.572	1344.32
860.755	828.23
860.937	797.51
861.12	969.54
861.303	1012.55
861.486	734.03
861.668	828.23
861.851	1184.58
862.034	1033.03
862.216	861
862.399	598.86
862.581	1073.99
862.764	1319.75
862.947	826.18
863.129	658.25
863.312	768.84
863.494	1332.03
863.677	1069.89
863.859	504.65
864.042	1123.14
864.224	1336.13
864.406	801.61
864.589	592.72
864.771	1073.99
864.954	715.59
865.136	738.12
865.318	607.05
865.501	1096.52
865.683	650.06
865.865	705.35
866.048	711.5
866.23	1069.89
866.412	901.96
866.594	572.24
866.777	777.03
866.959	1166.15
867.141	774.99
867.323	963.4
867.505	879.43
867.687	998.21
867.869	996.17
868.052	795.47
868.234	719.69
868.416	990.02
868.598	1157.96
868.78	697.16
868.962	590.67
869.144	1172.29
869.326	1168.2
869.508	799.56
869.69	621.39
869.872	897.86
870.054	1221.44
870.236	545.61
870.417	637.77
870.599	1000.26
870.781	1346.37
870.963	881.48
871.145	582.48
871.327	744.27
871.508	1217.35
871.69	779.08
871.872	768.84
872.054	969.54
872.235	1084.23
872.417	750.41
872.599	693.07
872.78	1266.5
872.962	1067.85
873.144	586.57
873.325	738.12
873.507	1317.7
873.689	1020.74
873.87	562
874.052	893.77
874.233	881.48
874.415	1198.92
874.596	830.28
874.778	570.19
874.959	1051.46
875.141	1299.27
875.322	826.18
875.503	719.69
875.685	1112.9
875.866	545.61
876.048	693.07
876.229	650.06
876.41	891.72
876.592	1047.37
876.773	744.27
876.954	633.68
877.136	1368.9
877.317	889.67
877.498	455.5
877.679	791.37
877.86	1006.41
878.042	971.59
878.223	668.49
878.404	1002.31
878.585	1151.81
878.766	1516.35
878.947	957.25
879.128	877.38
879.309	1016.65
879.49	1213.25
879.672	871.24
879.853	734.03
880.034	807.75
880.215	947.01
880.396	787.27
880.576	682.83
880.757	686.92
880.938	1143.62
881.119	643.92
881.3	705.35
881.481	809.8
881.662	1743.67
881.843	600.91
882.023	541.52
882.204	967.49
882.385	979.78
882.566	670.54
882.747	619.34
882.927	861
883.108	1045.32
883.289	641.87
883.469	904.01
883.65	951.11
883.831	1030.98
884.011	951.11
884.192	760.65
884.373	1147.72
884.553	1172.29
884.734	885.58
884.914	1051.46
885.095	1577.79
885.275	1332.03
885.456	1014.6
885.636	699.21
885.817	1057.61
885.997	1002.31
886.178	729.93
886.358	809.8
886.538	1071.94
886.719	1938.23
886.899	844.62
887.08	783.18
887.26	1342.27
887.44	762.7
887.621	701.26
887.801	815.94
887.981	1508.16
888.161	1235.78
888.342	797.51
888.522	770.89
888.702	1303.36
888.882	1334.08
889.062	811.85
889.242	611.15
889.423	1516.35
889.603	1176.39
889.783	951.11
889.963	766.79
890.143	1258.31
890.323	1338.18
890.503	850.76
890.683	926.54
890.863	1051.46
891.043	1100.61
891.223	865.1
891.403	1063.75
891.583	1073.99
891.763	1059.65
891.943	932.68
892.122	781.13
892.302	1033.03
892.482	963.4
892.662	1004.36
892.842	901.96
893.022	1268.55
893.201	822.09
893.381	914.25
893.561	863.05
893.741	1237.83
893.92	1305.41
894.1	947.01
894.28	840.52
894.459	1178.44
894.639	1086.28
894.819	867.14
894.998	967.49
895.178	1106.76
895.357	1205.06
895.537	861
895.716	711.5
895.896	994.12
896.075	1393.47
896.255	781.13
896.434	637.77
896.614	1178.44
896.793	1340.22
896.973	961.35
897.152	979.78
897.331	1205.06
897.511	1235.78
897.69	736.07
897.87	920.39
898.049	1207.11
898.228	1180.48
898.407	1088.32
898.587	881.48
898.766	949.06
898.945	1299.27
899.124	1016.65
899.304	957.25
899.483	1243.97
899.662	1489.73
899.841	734.03
900.02	768.84
900.199	1340.22
900.378	1088.32
900.557	881.48
900.737	740.17
900.916	1188.68
901.095	1274.69
901.274	1110.85
901.453	754.51
901.632	805.71
901.811	846.66
901.989	805.71
902.168	736.07
902.347	1264.45
902.526	906.06
902.705	834.38
902.884	883.53
903.063	1463.1
903.242	1418.05
903.42	750.41
903.599	906.06
903.778	1368.9
903.957	1403.71
904.135	918.34
904.314	848.71
904.493	1213.25
904.672	1221.44
904.85	877.38
905.029	709.45
905.207	1192.77
905.386	1749.82
905.565	670.54
905.743	840.52
905.922	1008.45
906.1	1293.12
906.279	748.36
906.457	803.66
906.636	1028.93
906.814	1076.04
906.993	736.07
907.171	803.66
907.35	1188.68
907.528	1196.87
907.707	1082.18
907.885	738.12
908.063	1504.06
908.242	936.78
908.42	801.61
908.598	652.11
908.777	1327.94
908.955	932.68
909.133	949.06
909.311	756.55
909.49	963.4
909.668	930.63
909.846	891.72
910.024	594.76
910.202	1047.37
910.38	1119.04
910.559	596.81
910.737	703.31
910.915	1145.67
911.093	1102.66
911.271	883.53
911.449	1022.79
911.627	1119.04
911.805	1585.98
911.983	822.09
912.161	658.25
912.339	1133.38
912.517	1375.04
912.695	897.86
912.872	873.29
913.05	752.46
913.228	1086.28
913.406	805.71
913.584	756.55
913.762	1217.35
913.939	809.8
914.117	748.36
914.295	721.74
914.473	1162.05
914.65	1028.93
914.828	707.4
915.006	719.69
915.184	764.75
915.361	1117
915.539	934.73
915.716	987.97
915.894	1112.9
916.072	1180.48
916.249	889.67
916.427	867.14
916.604	799.56
916.782	1172.29
916.959	654.16
917.137	709.45
917.314	1117
917.492	1086.28
917.669	922.44
917.847	713.55
918.024	1092.42
918.201	865.1
918.379	764.75
918.556	842.57
918.733	1178.44
918.911	887.62
919.088	1018.69
919.265	637.77
919.442	1065.8
919.62	1010.5
919.797	764.75
919.974	539.47
920.151	992.07
920.328	830.28
920.506	654.16
920.683	897.86
920.86	715.59
921.037	809.8
921.214	777.03
921.391	770.89
921.568	1145.67
921.745	736.07
921.922	869.19
922.099	703.31
922.276	1153.86
922.453	1045.32
922.63	662.35
922.807	1102.66
922.984	1047.37
923.161	844.62
923.338	774.99
923.514	645.96
923.691	873.29
923.868	996.17
924.045	734.03
924.222	555.85
924.399	883.53
924.575	1213.25
924.752	795.47
924.929	805.71
925.105	1026.89
925.282	674.64
925.459	691.02
925.635	668.49
925.812	815.94
925.989	762.7
926.165	789.32
926.342	551.76
926.518	645.96
926.695	977.73
926.871	639.82
927.048	557.9
927.224	1059.65
927.401	758.6
927.577	666.44
927.754	496.46
927.93	1151.81
928.107	1092.42
928.283	643.92
928.459	746.31
928.636	957.25
928.812	807.75
928.988	693.07
929.165	498.51
929.341	854.86
929.517	967.49
929.693	863.05
929.87	394.06
930.046	932.68
930.222	699.21
930.398	508.75
930.574	645.96
930.751	828.23
930.927	723.79
931.103	656.2
931.279	686.92
931.455	695.11
931.631	781.13
931.807	529.23
931.983	553.8
932.159	441.17
932.335	842.57
932.511	568.14
932.687	545.61
932.863	889.67
933.039	789.32
933.215	377.68
933.391	482.13
933.566	656.2
933.742	764.75
933.918	588.62
934.094	426.83
934.27	869.19
934.445	715.59
934.621	643.92
934.797	484.17
934.973	1006.41
935.148	824.14
935.324	422.73
935.5	365.39
935.675	871.24
935.851	881.48
936.027	471.89
936.202	430.93
936.378	777.03
936.553	621.39
936.729	836.42
936.904	383.82
937.08	406.35
937.255	484.17
937.431	392.02
937.606	242.51
937.782	535.37
937.957	699.21
938.133	412.5
938.308	334.67
938.483	635.72
938.659	367.44
938.834	422.73
939.009	222.03
939.185	523.09
939.36	389.97
939.535	99.16
939.71	496.46
939.886	815.94
940.061	627.53
940.236	570.19
940.411	318.29
940.586	711.5
940.761	729.93
940.937	416.59
941.112	258.9
941.287	498.51
941.462	564.04
941.637	136.02
941.812	308.05
941.987	627.53
942.162	514.89
942.337	412.5
942.512	269.14
942.687	645.96
942.862	545.61
943.037	211.79
943.212	-46.25
943.386	422.73
943.561	535.37
943.736	418.64
943.911	537.42
944.086	549.71
944.26	607.05
944.435	326.48
944.61	371.54
944.785	861
944.959	813.9
945.134	342.86
945.309	176.98
945.483	359.25
945.658	652.11
945.833	-85.16
946.007	158.55
946.182	924.49
946.357	217.94
946.531	105.3
946.706	193.36
946.88	97.11
947.055	578.38
947.229	187.22
947.404	72.53
947.578	639.82
947.752	414.54
947.927	37.72
948.101	9.05
948.276	465.74
948.45	535.37
948.624	318.29
948.799	117.59
948.973	467.79
949.147	195.41
949.321	250.71
949.496	203.6
949.67	684.87
949.844	332.62
950.018	189.27
950.193	119.64
950.367	910.15
950.541	361.3
950.715	369.49
950.889	389.97
951.063	326.48
951.237	580.43
951.411	-44.2
951.585	9.05
951.759	451.41
951.933	381.78
952.107	187.22
952.281	387.92
952.455	795.47
952.629	584.52
952.803	160.59
952.977	111.44
953.151	619.34
953.325	498.51
953.499	402.26
953.672	41.81
953.846	168.79
954.02	320.34
954.194	78.68
954.368	154.45
954.541	631.63
954.715	254.8
954.889	330.58
955.062	230.23
955.236	392.02
955.41	316.24
955.583	260.95
955.757	50
955.93	338.77
956.104	197.46
956.278	234.32
956.451	189.27
956.625	586.57
956.798	848.71
956.972	385.87
957.145	70.48
957.319	496.46
957.492	389.97
957.665	367.44
957.839	70.48
958.012	525.13
958.185	316.24
958.359	250.71
958.532	430.93
958.705	537.42
958.879	621.39
959.052	267.09
959.225	9.05
959.398	303.95
959.572	504.65
959.745	195.41
959.918	240.47
960.091	287.57
960.264	508.75
960.438	29.52
960.611	152.4
960.784	557.9
960.957	316.24
961.13	617.29
961.303	50
961.476	441.17
961.649	590.67
961.822	72.53
961.995	207.7
962.168	578.38
962.341	418.64
962.514	197.46
962.686	146.26
962.859	441.17
963.032	512.85
963.205	187.22
963.378	4.95
963.551	457.55
963.723	381.78
963.896	265.04
964.069	248.66
964.242	342.86
964.414	600.91
964.587	254.8
964.76	234.32
964.932	566.09
965.105	314.19
965.278	144.21
965.45	156.5
965.623	451.41
965.795	529.23
965.968	197.46
966.14	166.74
966.313	316.24
966.485	351.06
966.658	136.02
966.83	187.22
967.003	654.16
967.175	623.44
967.348	181.07
967.52	226.13
967.692	742.22
967.865	529.23
968.037	166.74
968.209	418.64
968.382	254.8
968.554	568.14
968.726	291.66
968.898	115.54
969.071	457.55
969.243	580.43
969.415	189.27
969.587	250.71
969.759	869.19
969.932	547.66
970.104	252.75
970.276	-119.98
970.448	330.58
970.62	293.71
970.792	363.34
970.964	179.03
971.136	947.01
971.308	496.46
971.48	121.68
971.652	105.3
971.824	772.94
971.996	287.57
972.168	217.94
972.339	207.7
972.511	611.15
972.683	293.71
972.855	465.74
973.027	176.98
973.199	349.01
973.37	480.08
973.542	310.1
973.714	338.77
973.886	398.16
974.057	643.92
974.229	84.82
974.401	97.11
974.572	140.12
974.744	-9.39
974.915	43.86
975.087	74.58
975.259	713.55
975.43	246.61
975.602	99.16
975.773	140.12
975.945	189.27
976.116	545.61
976.288	50
976.459	396.11
976.63	375.63
976.802	590.67
976.973	99.16
977.145	299.86
977.316	916.3
977.487	793.42
977.659	320.34
977.83	189.27
978.001	840.52
978.172	512.85
978.344	37.72
978.515	252.75
978.686	289.62
978.857	746.31
979.028	162.64
979.2	111.44
979.371	570.19
979.542	367.44
979.713	324.43
979.884	-208.04
980.055	78.68
980.226	297.81
980.397	127.83
980.568	60.24
980.739	570.19
980.91	301.9
981.081	269.14
981.252	56.15
981.423	557.9
981.594	643.92
981.765	31.57
981.936	269.14
982.106	418.64
982.277	525.13
982.448	27.48
982.619	271.19
982.79	273.23
982.96	582.48
983.131	164.69
983.302	-74.92
983.472	295.76
983.643	488.27
983.814	285.52
983.984	111.44
984.155	383.82
984.326	615.24
984.496	256.85
984.667	97.11
984.837	297.81
985.008	555.85
985.178	320.34
985.349	275.28
985.519	340.82
985.69	199.51
985.86	185.17
986.031	76.63
986.201	453.45
986.371	484.17
986.542	68.44
986.712	-46.25
986.882	496.46
987.053	504.65
987.223	4.95
987.393	279.38
987.563	275.28
987.734	439.12
987.904	482.13
988.074	70.48
988.244	400.21
988.414	273.23
988.585	119.64
988.755	260.95
988.925	324.43
989.095	744.27
989.265	15.19
989.435	201.55
989.605	508.75
989.775	324.43
989.945	336.72
990.115	4.95
990.285	377.68
990.455	428.88
990.625	187.22
990.795	99.16
990.965	586.57
991.134	191.31
991.304	4.95
991.474	82.77
991.644	355.15
991.814	713.55
991.984	-9.39
992.153	121.68
992.323	308.05
992.493	318.29
992.662	-91.31
992.832	197.46
993.002	408.4
993.171	406.35
993.341	-95.4
993.511	166.74
993.68	183.12
993.85	457.55
994.019	-36.01
994.189	-15.53
994.358	402.26
994.528	164.69
994.697	-189.61
994.867	-36.01
995.036	496.46
995.206	277.33
995.375	74.58
995.544	252.75
995.714	471.89
995.883	228.18
996.052	164.69
996.222	-126.12
996.391	820.04
996.56	351.06
996.73	-31.91
996.899	-64.68
997.068	617.29
997.237	289.62
997.406	-48.3
997.576	-148.65
997.745	381.78
997.914	344.91
998.083	-203.94
998.252	62.29
998.421	355.15
998.59	103.25
998.759	-23.72
998.928	-119.98
999.097	473.93
999.266	422.73
999.435	162.64
999.604	-140.46
999.773	801.61
999.942	293.71
1000.111	-203.94
1000.28	-208.04
1000.448	121.68
1000.617	54.1
1000.786	183.12
1000.955	-208.04
1001.124	355.15
1001.292	834.38
1001.461	-3.24
1001.63	-70.83
1001.798	656.2
1001.967	617.29
1002.136	-99.5
1002.304	-105.64
1002.473	336.72
1002.642	385.87
1002.81	-3.24
1002.979	2.9
1003.147	418.64
1003.316	791.37
1003.484	-3.24
1003.653	-107.69
1003.821	600.91
1003.99	209.75
1004.158	172.88
1004.327	105.3
1004.495	416.59
1004.663	144.21
1004.832	35.67
1005	-199.85
1005.168	418.64
1005.337	443.21
1005.505	-126.12
1005.673	168.79
1005.842	418.64
1006.01	398.16
1006.178	-165.03
1006.346	-70.83
1006.514	385.87
1006.683	488.27
1006.851	-54.44
1007.019	-234.66
1007.187	-21.67
1007.355	-144.55
1007.523	-212.14
1007.691	-160.94
1007.859	-40.11
1008.027	596.81
1008.195	-33.96
1008.363	-175.27
1008.531	463.69
1008.699	99.16
1008.867	-189.61
1009.035	-40.11
1009.203	625.48
1009.37	162.64
1009.538	-109.74
1009.706	308.05
1009.874	283.47
1010.042	146.26
1010.209	-175.27
1010.377	-201.9
1010.545	455.5
1010.713	228.18
1010.88	-224.42
1011.048	-93.35
1011.216	109.4
1011.383	539.47
1011.551	-167.08
1011.718	-187.56
1011.886	459.6
1012.054	129.88
1012.221	-183.46
1012.389	-126.12
1012.556	185.17
1012.724	617.29
1012.891	9.05
1013.058	-214.18
1013.226	367.44
1013.393	389.97
1013.561	-263.33
1013.728	-263.33
1013.895	469.84
1014.063	402.26
1014.23	-154.79
1014.397	-146.6
1014.565	398.16
1014.732	105.3
1014.899	-177.32
1015.066	-150.7
1015.233	234.32
1015.401	445.26
1015.568	-3.24
1015.735	-9.39
1015.902	291.66
1016.069	338.77
1016.236	-142.5
1016.403	-210.09
1016.57	-52.39
1016.737	400.21
1016.904	-76.97
1017.071	-144.55
1017.238	35.67
1017.405	428.88
1017.572	-31.91
1017.739	62.29
1017.906	275.28
1018.073	473.93
1018.24	-97.45
1018.407	-48.3
1018.573	402.26
1018.74	271.19
1018.907	-93.35
1019.074	-224.42
1019.241	492.37
1019.407	316.24
1019.574	-150.7
1019.741	-177.32
1019.907	297.81
1020.074	402.26
1020.241	-306.34
1020.407	-181.42
1020.574	326.48
1020.74	408.4
1020.907	-40.11
1021.073	-195.75
1021.24	750.41
1021.406	510.8
1021.573	-167.08
1021.739	-269.48
1021.906	420.69
1022.072	117.59
1022.239	-199.85
1022.405	-79.02
1022.571	211.79
1022.738	58.2
1022.904	-142.5
1023.07	21.33
1023.237	328.53
1023.403	459.6
1023.569	-105.64
1023.735	-101.55
1023.902	303.95
1024.068	275.28
1024.234	-201.9
1024.4	-171.18
1024.566	273.23
1024.732	430.93
1024.898	-160.94
1025.065	-236.71
1025.231	295.76
1025.397	105.3
1025.563	-89.26
1025.729	-232.62
1025.895	-148.65
1026.061	-3.24
1026.227	-373.92
1026.392	-162.98
1026.558	455.5
1026.724	228.18
1026.89	-150.7
1027.056	-68.78
1027.222	387.92
1027.388	154.45
1027.553	-93.35
1027.719	-142.5
1027.885	594.76
1028.051	353.1
1028.216	-326.82
1028.382	-134.31
1028.548	340.82
1028.713	7
1028.879	-169.13
1029.045	17.24
1029.21	555.85
1029.376	375.63
1029.541	-148.65
1029.707	-132.26
1029.873	404.3
1030.038	336.72
1030.204	-97.45
1030.369	-93.35
1030.534	424.78
1030.7	119.64
1030.865	-29.87
1031.031	-132.26
1031.196	283.47
1031.361	238.42
1031.527	-236.71
1031.692	-173.22
1031.857	-216.23
1032.023	283.47
1032.188	-171.18
1032.353	-109.74
1032.518	547.66
1032.684	256.85
1032.849	-269.48
1033.014	-19.63
1033.179	383.82
1033.344	344.91
1033.509	-11.43
1033.674	-160.94
1033.839	389.97
1034.004	367.44
1034.17	-181.42
1034.335	-238.76
1034.5	140.12
1034.664	23.38
1034.829	-154.79
1034.994	-95.4
1035.159	340.82
1035.324	318.29
1035.489	-124.07
1035.654	-220.33
1035.819	553.8
1035.984	226.13
1036.148	-85.16
1036.313	-162.98
1036.478	506.7
1036.643	217.94
1036.807	-205.99
1036.972	-234.66
1037.137	547.66
1037.301	164.69
1037.466	-253.09
1037.631	13.14
1037.795	525.13
1037.96	228.18
1038.124	-17.58
1038.289	-296.1
1038.454	371.54
1038.618	250.71
1038.783	-119.98
1038.947	-113.83
1039.111	340.82
1039.276	176.98
1039.44	-218.28
1039.605	293.71
1039.769	119.64
1039.933	217.94
1040.098	-105.64
1040.262	105.3
1040.426	439.12
1040.591	371.54
1040.755	-220.33
1040.919	-126.12
1041.083	314.19
1041.248	215.89
1041.412	-285.86
1041.576	-160.94
1041.74	107.35
1041.904	416.59
1042.068	-183.46
1042.232	-162.98
1042.397	418.64
1042.561	254.8
1042.725	-314.53
1042.889	45.91
1043.053	369.49
1043.217	324.43
1043.381	78.68
1043.544	-259.24
1043.708	430.93
1043.872	11.09
1044.036	-330.92
1044.2	-294.05
1044.364	422.73
1044.528	562
1044.691	3042.09
1044.855	-308.39
1045.019	451.41
1045.183	377.68
1045.346	-109.74
1045.51	-195.75
1045.674	373.58
1045.837	381.78
1046.001	-50.35
1046.165	-175.27
1046.328	789.32
1046.492	375.63
1046.655	45.91
1046.819	-19.63
1046.983	78.68
1047.146	338.77
1047.31	-42.15
1047.473	-273.57
1047.636	291.66
1047.8	119.64
1047.963	-97.45
1048.127	-158.89
1048.29	56.15
