Data from Ink_Intensity_USB4F045381__151__00151.txt Node

Date: Mon Jul 17 11:28:49 EDT 2023
User: mmckonesweet
Spectrometer: USB4F04538
Trigger mode: 4
Integration Time (sec): 9.000000E-1
Scans to average: 1
Electric dark correction enabled: true
Nonlinearity correction enabled: false
Boxcar width: 0
XAxis mode: Wavelengths
Number of Pixels in Spectrum: 3648
>>>>>Begin Spectral Data<<<<<
345.52	-1082.35
345.736	-1082.35
345.952	-1082.35
346.168	-1137.65
346.384	-957.43
346.6	-121.85
346.816	-140.29
347.032	-168.96
347.248	175.1
347.464	-267.26
347.68	-152.57
347.896	111.61
348.112	437.24
348.328	-31.74
348.544	-103.42
348.76	70.65
348.975	191.49
349.191	-271.36
349.407	-248.83
349.623	-39.94
349.839	-70.65
350.055	-189.44
350.27	11.26
350.486	72.7
350.702	316.41
350.918	224.25
351.133	-271.36
351.349	80.89
351.565	379.9
351.781	-162.81
351.996	-41.98
352.212	265.21
352.428	-130.05
352.644	-175.1
352.859	-308.22
353.075	363.51
353.291	115.71
353.506	-207.87
353.722	-263.16
353.938	-123.9
354.153	367.61
354.369	54.27
354.584	-209.92
354.8	220.16
355.016	-336.89
355.231	-367.61
355.447	-25.6
355.662	101.37
355.878	844.79
356.093	-498.68
356.309	-109.57
356.524	-275.45
356.74	214.01
356.955	-257.02
357.171	15.36
357.386	107.52
357.602	-252.92
357.817	-99.33
358.033	-267.26
358.248	347.13
358.464	109.57
358.679	-263.16
358.895	-326.65
359.11	-64.51
359.325	257.02
359.541	52.22
359.756	-19.46
359.972	-355.32
360.187	207.87
360.402	-220.16
360.618	-185.34
360.833	963.57
361.048	68.61
361.264	-123.9
361.479	-107.52
361.694	-70.65
361.909	171.01
362.125	-230.4
362.34	-216.06
362.555	175.1
362.77	58.37
362.986	-343.03
363.201	-271.36
363.416	125.95
363.631	3.07
363.847	-238.59
364.062	-205.82
364.277	50.18
364.492	21.5
364.707	-193.53
364.922	-459.77
365.138	228.35
365.353	277.5
365.568	-267.26
365.783	-140.29
365.998	15.36
366.213	578.55
366.428	-332.79
366.643	-82.94
366.858	304.12
367.073	146.43
367.288	-82.94
367.503	-308.22
367.718	50.18
367.933	277.5
368.148	-369.66
368.363	-140.29
368.578	-52.22
368.793	314.36
369.008	-222.2
369.223	-236.54
369.438	193.53
369.653	320.51
369.868	-355.32
370.083	-164.86
370.298	9.22
370.513	314.36
370.728	3.07
370.943	-279.55
371.157	-140.29
371.372	498.68
371.587	-254.97
371.802	-304.12
372.017	99.33
372.232	353.27
372.446	-76.8
372.661	-310.27
372.876	160.77
373.091	123.9
373.306	-132.09
373.52	-242.68
373.735	-211.96
373.95	353.27
374.165	-164.86
374.379	-191.49
374.594	-238.59
374.809	15.36
375.023	-21.5
375.238	-302.08
375.453	113.66
375.667	-254.97
375.882	-205.82
376.097	-164.86
376.311	9.22
376.526	15.36
376.741	-320.51
376.955	35.84
377.17	613.37
377.384	549.88
377.599	-117.76
377.813	-324.6
378.028	576.5
378.242	175.1
378.457	-177.15
378.672	-365.56
378.886	82.94
379.101	-82.94
379.315	-365.56
379.53	-154.62
379.744	121.85
379.958	226.3
380.173	-148.48
380.387	-257.02
380.602	125.95
380.816	-156.67
381.031	-173.05
381.245	-205.82
381.459	117.76
381.674	834.55
381.888	-226.3
382.103	39.94
382.317	-197.63
382.531	439.29
382.746	-201.72
382.96	-179.2
383.174	-152.57
383.388	390.14
383.603	52.22
383.817	-277.5
384.031	80.89
384.246	351.23
384.46	-68.61
384.674	271.36
384.888	3.07
385.103	13.31
385.317	-373.75
385.531	-115.71
385.745	343.03
385.959	300.03
386.174	-265.21
386.388	-285.69
386.602	-103.42
386.816	-179.2
387.03	-97.28
387.244	-222.2
387.458	-7.17
387.672	324.6
387.887	-338.94
388.101	-283.64
388.315	359.42
388.529	44.03
388.743	-158.72
388.957	-220.16
389.171	371.71
389.385	-160.77
389.599	-173.05
389.813	-9.22
390.027	230.4
390.241	592.89
390.455	-140.29
390.669	-164.86
390.883	-107.52
391.097	267.26
391.311	-29.7
391.525	-261.12
391.738	179.2
391.952	220.16
392.166	-21.5
392.38	-349.18
392.594	250.88
392.808	259.07
393.022	-72.7
393.236	-177.15
393.449	175.1
393.663	82.94
393.877	-304.12
394.091	-144.38
394.305	-70.65
394.518	-82.94
394.732	-365.56
394.946	-181.25
395.16	418.81
395.373	68.61
395.587	-193.53
395.801	-265.21
396.015	324.6
396.228	199.68
396.442	-271.36
396.656	-353.27
396.869	302.08
397.083	429.05
397.297	-91.13
397.51	-193.53
397.724	273.4
397.938	89.09
398.151	-287.74
398.365	-291.84
398.578	136.19
398.792	408.57
399.005	-99.33
399.219	-203.77
399.433	150.53
399.646	160.77
399.86	-64.51
400.073	-74.75
400.287	175.1
400.5	-91.13
400.714	-107.52
400.927	-115.71
401.141	236.54
401.354	1084.4
401.567	183.29
401.781	-386.04
401.994	197.63
402.208	683
402.421	-203.77
402.635	-115.71
402.848	-35.84
403.061	263.16
403.275	-136.19
403.488	-156.67
403.701	406.52
403.915	183.29
404.128	-56.32
404.341	-203.77
404.555	125.95
404.768	25.6
404.981	-60.42
405.195	-279.55
405.408	500.73
405.621	207.87
405.834	-19.46
406.048	-281.6
406.261	353.27
406.474	381.95
406.687	-193.53
406.9	-33.79
407.114	-62.46
407.327	166.91
407.54	-302.08
407.753	-349.18
407.966	-148.48
408.179	175.1
408.392	-254.97
408.605	-381.95
408.819	205.82
409.032	148.48
409.245	-306.17
409.458	-60.42
409.671	142.33
409.884	220.16
410.097	-300.03
410.31	-15.36
410.523	97.28
410.736	-76.8
410.949	-132.09
411.162	-121.85
411.375	340.99
411.588	230.4
411.801	-56.32
412.014	-347.13
412.227	56.32
412.44	-64.51
412.653	-199.68
412.865	7.17
413.078	277.5
413.291	132.09
413.504	-82.94
413.717	-271.36
413.93	179.2
414.143	-177.15
414.356	-177.15
414.568	-324.6
414.781	160.77
414.994	70.65
415.207	-56.32
415.42	-154.62
415.632	207.87
415.845	547.83
416.058	-351.23
416.271	-265.21
416.483	-39.94
416.696	359.42
416.909	-293.88
417.121	-250.88
417.334	87.04
417.547	416.76
417.759	-281.6
417.972	-304.12
418.185	-158.72
418.397	189.44
418.61	-230.4
418.823	-193.53
419.035	453.63
419.248	-23.55
419.46	-156.67
419.673	-183.29
419.885	154.62
420.098	-25.6
420.311	-177.15
420.523	-437.24
420.736	185.34
420.948	23.55
421.161	-216.06
421.373	-343.03
421.586	58.37
421.798	-197.63
422.01	-287.74
422.223	-140.29
422.435	-148.48
422.648	119.81
422.86	-226.3
423.073	-191.49
423.285	234.49
423.497	-273.4
423.71	-283.64
423.922	-154.62
424.134	72.7
424.347	326.65
424.559	-37.89
424.771	101.37
424.984	17.41
425.196	105.47
425.408	-375.8
425.621	-340.99
425.833	293.88
426.045	404.47
426.257	-343.03
426.47	-189.44
426.682	136.19
426.894	156.67
427.106	-250.88
427.318	-140.29
427.531	-64.51
427.743	214.01
427.955	-218.11
428.167	252.92
428.379	175.1
428.591	-54.27
428.804	-119.81
429.016	-353.27
429.228	-130.05
429.44	154.62
429.652	-11.26
429.864	-439.29
430.076	-25.6
430.288	-87.04
430.5	-109.57
430.712	-66.56
430.924	248.83
431.136	48.13
431.348	-367.61
431.56	-275.45
431.772	19.46
431.984	-66.56
432.196	-336.89
432.408	-201.72
432.62	-91.13
432.832	166.91
433.044	-15.36
433.256	-177.15
433.468	162.81
433.679	-295.93
433.891	-269.31
434.103	-35.84
434.315	302.08
434.527	125.95
434.739	-132.09
434.95	-226.3
435.162	250.88
435.374	-115.71
435.586	-222.2
435.798	-238.59
436.009	-252.92
436.221	3.07
436.433	-211.96
436.645	-132.09
436.856	-119.81
437.068	252.92
437.28	-293.88
437.491	72.7
437.703	72.7
437.915	91.13
438.126	-207.87
438.338	46.08
438.55	31.74
438.761	218.11
438.973	-173.05
439.184	-173.05
439.396	11.26
439.608	134.14
439.819	-279.55
440.031	-130.05
440.242	179.2
440.454	164.86
440.665	-173.05
440.877	-148.48
441.088	117.76
441.3	31.74
441.511	-418.81
441.723	-265.21
441.934	123.9
442.146	9.22
442.357	-62.46
442.569	35.84
442.78	31.74
442.991	484.34
443.203	64.51
443.414	-246.78
443.626	365.56
443.837	-132.09
444.048	-332.79
444.26	-402.43
444.471	-58.37
444.682	252.92
444.894	-451.58
445.105	-328.7
445.316	156.67
445.528	179.2
445.739	-115.71
445.95	-183.29
446.161	39.94
446.373	173.05
446.584	-312.32
446.795	-205.82
447.006	218.11
447.217	455.67
447.429	-383.99
447.64	-353.27
447.851	402.43
448.062	154.62
448.273	-365.56
448.484	-322.56
448.695	111.61
448.907	-33.79
449.118	-74.75
449.329	3.07
449.54	-72.7
449.751	-248.83
449.962	-246.78
450.173	-244.73
450.384	230.4
450.595	316.41
450.806	-244.73
451.017	-140.29
451.228	304.12
451.439	195.58
451.65	-216.06
451.861	-433.15
452.072	-230.4
452.283	23.55
452.494	-164.86
452.705	-261.12
452.915	427
453.126	134.14
453.337	-189.44
453.548	-353.27
453.759	338.94
453.97	572.41
454.181	23.55
454.391	-189.44
454.602	13.31
454.813	93.18
455.024	-173.05
455.235	-218.11
455.445	48.13
455.656	37.89
455.867	-21.5
456.078	-250.88
456.288	-46.08
456.499	113.66
456.71	-340.99
456.921	-48.13
457.131	89.09
457.342	93.18
457.553	-193.53
457.763	-205.82
457.974	68.61
458.184	191.49
458.395	-332.79
458.606	-418.81
458.816	246.78
459.027	437.24
459.237	-82.94
459.448	-420.86
459.659	252.92
459.869	486.39
460.08	-447.48
460.29	-183.29
460.501	498.68
460.711	-132.09
460.922	-418.81
461.132	-310.27
461.343	736.24
461.553	-308.22
461.764	-314.36
461.974	-257.02
462.184	164.86
462.395	78.85
462.605	-162.81
462.816	-353.27
463.026	48.13
463.236	302.08
463.447	-314.36
463.657	-232.44
463.867	218.11
464.078	-50.18
464.288	-250.88
464.498	-287.74
464.709	-87.04
464.919	-48.13
465.129	-185.34
465.339	-345.08
465.55	179.2
465.76	218.11
465.97	-248.83
466.18	-328.7
466.391	103.42
466.601	76.8
466.811	-119.81
467.021	-375.8
467.231	166.91
467.441	269.31
467.651	-220.16
467.862	-506.87
468.072	-25.6
468.282	388.09
468.492	-246.78
468.702	-224.25
468.912	-58.37
469.122	470.01
469.332	33.79
469.542	-285.69
469.752	179.2
469.962	-25.6
470.172	-347.13
470.382	-277.5
470.592	123.9
470.802	304.12
471.012	-101.37
471.222	-283.64
471.432	261.12
471.642	177.15
471.852	-162.81
472.062	-293.88
472.272	-82.94
472.482	-365.56
472.691	-375.8
472.901	-320.51
473.111	68.61
473.321	547.83
473.531	-340.99
473.741	-209.92
473.95	168.96
474.16	166.91
474.37	-148.48
474.58	-381.95
474.79	519.16
474.999	205.82
475.209	-277.5
475.419	-230.4
475.628	-140.29
475.838	293.88
476.048	-164.86
476.258	-408.57
476.467	220.16
476.677	-107.52
476.886	-62.46
477.096	-197.63
477.306	-171.01
477.515	314.36
477.725	-224.25
477.935	-197.63
478.144	445.43
478.354	-119.81
478.563	-355.32
478.773	-332.79
478.982	236.54
479.192	259.07
479.401	-136.19
479.611	-353.27
479.82	-234.49
480.03	50.18
480.239	-345.08
480.449	-402.43
480.658	334.84
480.868	-179.2
481.077	-144.38
481.287	-205.82
481.496	82.94
481.705	414.71
481.915	-54.27
482.124	-31.74
482.333	97.28
482.543	324.6
482.752	-128
482.961	-300.03
483.171	158.72
483.38	-54.27
483.589	-252.92
483.799	-279.55
484.008	-64.51
484.217	211.96
484.426	-166.91
484.636	-340.99
484.845	68.61
485.054	-328.7
485.263	-27.65
485.472	-164.86
485.682	392.19
485.891	-11.26
486.1	-365.56
486.309	-246.78
486.518	138.24
486.727	447.48
486.936	-287.74
487.146	-115.71
487.355	400.38
487.564	-209.92
487.773	-162.81
487.982	-259.07
488.191	-56.32
488.4	44.03
488.609	-195.58
488.818	-265.21
489.027	541.69
489.236	252.92
489.445	-271.36
489.654	-373.75
489.863	269.31
490.072	89.09
490.281	142.33
490.49	-230.4
490.698	371.71
490.907	355.32
491.116	-207.87
491.325	-400.38
491.534	316.41
491.743	56.32
491.952	-123.9
492.16	-150.53
492.369	123.9
492.578	320.51
492.787	-195.58
492.996	-386.04
493.204	-164.86
493.413	451.58
493.622	-377.85
493.831	-420.86
494.039	371.71
494.248	-181.25
494.457	-324.6
494.665	-443.39
494.874	179.2
495.083	492.54
495.291	-267.26
495.5	-392.19
495.709	156.67
495.917	52.22
496.126	-87.04
496.335	-349.18
496.543	-123.9
496.752	80.89
496.96	107.52
497.169	-416.76
497.377	41.98
497.586	240.64
497.794	-105.47
498.003	-488.44
498.211	-23.55
498.42	392.19
498.628	-183.29
498.837	-314.36
499.045	138.24
499.254	19.46
499.462	-273.4
499.671	-310.27
499.879	340.99
500.087	203.77
500.296	-246.78
500.504	-187.39
500.713	138.24
500.921	488.44
501.129	-269.31
501.338	-279.55
501.546	150.53
501.754	-7.17
501.962	-287.74
502.171	-351.23
502.379	68.61
502.587	445.43
502.795	-185.34
503.004	-220.16
503.212	119.81
503.42	246.78
503.628	-328.7
503.837	-146.43
504.045	183.29
504.253	396.28
504.461	-324.6
504.669	-484.34
504.877	228.35
505.085	414.71
505.294	-412.67
505.502	-95.23
505.71	195.58
505.918	254.97
506.126	-383.99
506.334	-250.88
506.542	-3.07
506.75	138.24
506.958	-134.14
507.166	-191.49
507.374	-82.94
507.582	429.05
507.79	-142.33
507.998	-300.03
508.206	130.05
508.414	162.81
508.622	-343.03
508.83	-234.49
509.037	400.38
509.245	-80.89
509.453	-373.75
509.661	-287.74
509.869	121.85
510.077	-23.55
510.285	-15.36
510.492	-590.84
510.7	599.03
510.908	-132.09
511.116	-236.54
511.324	-312.32
511.531	-132.09
511.739	72.7
511.947	-195.58
512.155	27.65
512.362	142.33
512.57	-181.25
512.778	-359.42
512.985	-414.71
513.193	347.13
513.401	320.51
513.608	-144.38
513.816	-271.36
514.024	128
514.231	318.46
514.439	-297.98
514.646	-220.16
514.854	216.06
515.061	304.12
515.269	-261.12
515.477	-195.58
515.684	-162.81
515.892	271.36
516.099	-414.71
516.307	-394.23
516.514	271.36
516.722	400.38
516.929	-338.94
517.136	-304.12
517.344	388.09
517.551	173.05
517.759	-230.4
517.966	-234.49
518.173	-9.22
518.381	91.13
518.588	-181.25
518.796	-312.32
519.003	218.11
519.21	64.51
519.418	-330.75
519.625	23.55
519.832	-33.79
520.039	181.25
520.247	-390.14
520.454	-252.92
520.661	383.99
520.868	154.62
521.076	-234.49
521.283	-252.92
521.49	639.99
521.697	150.53
521.904	-289.79
522.112	-209.92
522.319	232.44
522.526	171.01
522.733	-379.9
522.94	-377.85
523.147	-3.07
523.354	195.58
523.561	-410.62
523.768	-130.05
523.975	318.46
524.183	48.13
524.39	-199.68
524.597	-322.56
524.804	48.13
525.011	-117.76
525.218	-287.74
525.425	-250.88
525.632	355.32
525.838	-117.76
526.045	-302.08
526.252	-386.04
526.459	1041.39
526.666	887.79
526.873	-347.13
527.08	-324.6
527.287	390.14
527.494	80.89
527.701	-394.23
527.907	-291.84
528.114	209.92
528.321	23.55
528.528	-226.3
528.735	-248.83
528.941	33.79
529.148	-84.99
529.355	-226.3
529.562	-259.07
529.768	484.34
529.975	-37.89
530.182	-230.4
530.388	-295.93
530.595	297.98
530.802	-236.54
531.008	-128
531.215	-263.16
531.422	572.41
531.628	687.09
531.835	-158.72
532.042	-181.25
532.248	-115.71
532.455	109.57
532.661	-205.82
532.868	-312.32
533.074	78.85
533.281	359.42
533.487	-193.53
533.694	-340.99
533.9	-152.57
534.107	238.59
534.313	-359.42
534.52	-394.23
534.726	287.74
534.933	500.73
535.139	-343.03
535.345	-347.13
535.552	103.42
535.758	-5.12
535.965	-152.57
536.171	-211.96
536.377	316.41
536.584	334.84
536.79	-300.03
536.996	-109.57
537.203	136.19
537.409	203.77
537.615	-252.92
537.821	-48.13
538.028	259.07
538.234	171.01
538.44	-209.92
538.646	-84.99
538.853	220.16
539.059	-21.5
539.265	195.58
539.471	-488.44
539.677	246.78
539.883	-62.46
540.09	-259.07
540.296	156.67
540.502	117.76
540.708	-189.44
540.914	-50.18
541.12	-254.97
541.326	164.86
541.532	58.37
541.738	-134.14
541.944	-148.48
542.15	306.17
542.356	7.17
542.562	-293.88
542.768	-201.72
542.974	674.81
543.18	584.7
543.386	-230.4
543.592	-386.04
543.798	404.47
544.004	334.84
544.21	-291.84
544.415	-197.63
544.621	121.85
544.827	209.92
545.033	-326.65
545.239	-50.18
545.445	-254.97
545.651	21.5
545.856	-242.68
546.062	-332.79
546.268	-146.43
546.474	58.37
546.679	-148.48
546.885	-76.8
547.091	-89.09
547.297	525.3
547.502	-136.19
547.708	-353.27
547.914	-148.48
548.119	166.91
548.325	-306.17
548.531	-285.69
548.736	343.03
548.942	-101.37
549.147	-357.37
549.353	68.61
549.559	367.61
549.764	181.25
549.97	-205.82
550.175	-205.82
550.381	216.06
550.586	-82.94
550.792	-189.44
550.997	-156.67
551.203	216.06
551.408	228.35
551.614	-310.27
551.819	-234.49
552.025	519.16
552.23	603.13
552.435	-338.94
552.641	-80.89
552.846	-39.94
553.052	322.56
553.257	-13.31
553.462	-222.2
553.668	-115.71
553.873	312.32
554.078	-308.22
554.283	-302.08
554.489	115.71
554.694	128
554.899	-214.01
555.105	-109.57
555.31	205.82
555.515	300.03
555.72	-136.19
555.925	-254.97
556.131	302.08
556.336	-1.02
556.541	-205.82
556.746	-320.51
556.951	379.9
557.156	457.72
557.361	-62.46
557.567	-91.13
557.772	617.46
557.977	318.46
558.182	-244.73
558.387	-218.11
558.592	-103.42
558.797	441.34
559.002	-138.24
559.207	-72.7
559.412	154.62
559.617	508.92
559.822	-160.77
560.027	-261.12
560.232	134.14
560.437	293.88
560.642	-422.91
560.847	-226.3
561.051	158.72
561.256	187.39
561.461	-158.72
561.666	-310.27
561.871	160.77
562.076	214.01
562.281	-97.28
562.485	-248.83
562.69	314.36
562.895	248.83
563.1	-64.51
563.305	-257.02
563.509	422.91
563.714	666.61
563.919	-211.96
564.123	-189.44
564.328	189.44
564.533	375.8
564.737	-93.18
564.942	-101.37
565.147	510.97
565.351	635.89
565.556	-48.13
565.761	-39.94
565.965	209.92
566.17	-23.55
566.374	-74.75
566.579	-283.64
566.784	211.96
566.988	68.61
567.193	-359.42
567.397	-248.83
567.602	-187.39
567.806	72.7
568.011	-136.19
568.215	-144.38
568.42	158.72
568.624	97.28
568.828	-187.39
569.033	72.7
569.237	363.51
569.442	338.94
569.646	-291.84
569.85	-70.65
570.055	39.94
570.259	173.05
570.463	76.8
570.668	-66.56
570.872	121.85
571.076	156.67
571.281	27.65
571.485	-7.17
571.689	148.48
571.893	297.98
572.098	-33.79
572.302	-224.25
572.506	263.16
572.71	130.05
572.914	-156.67
573.119	-211.96
573.323	529.4
573.527	510.97
573.731	-132.09
573.935	-222.2
574.139	205.82
574.343	-78.85
574.547	-134.14
574.751	-136.19
574.955	447.48
575.159	449.53
575.364	-136.19
575.568	-265.21
575.772	130.05
575.976	486.39
576.18	-177.15
576.383	-334.84
576.587	369.66
576.791	252.92
576.995	-267.26
577.199	-269.31
577.403	326.65
577.607	388.09
577.811	-234.49
578.015	-60.42
578.219	179.2
578.422	336.89
578.626	-87.04
578.83	68.61
579.034	412.67
579.238	181.25
579.442	-160.77
579.645	211.96
579.849	113.66
580.053	228.35
580.257	-119.81
580.46	-54.27
580.664	441.34
580.868	289.79
581.071	148.48
581.275	50.18
581.479	-130.05
581.682	359.42
581.886	-117.76
582.09	-13.31
582.293	383.99
582.497	400.38
582.7	236.54
582.904	-128
583.107	314.36
583.311	89.09
583.515	-25.6
583.718	-54.27
583.922	326.65
584.125	642.04
584.329	-140.29
584.532	80.89
584.735	375.8
584.939	340.99
585.142	-228.35
585.346	-80.89
585.549	302.08
585.753	150.53
585.956	15.36
586.159	66.56
586.363	642.04
586.566	330.75
586.769	-183.29
586.973	-189.44
587.176	345.08
587.379	447.48
587.582	254.97
587.786	146.43
587.989	293.88
588.192	873.46
588.395	-7.17
588.599	207.87
588.802	326.65
589.005	375.8
589.208	-3.07
589.411	-37.89
589.615	459.77
589.818	607.22
590.021	142.33
590.224	66.56
590.427	392.19
590.63	457.72
590.833	-197.63
591.036	-84.99
591.239	181.25
591.442	76.8
591.645	207.87
591.848	-74.75
592.051	259.07
592.254	463.86
592.457	25.6
592.66	99.33
592.863	224.25
593.066	334.84
593.269	-39.94
593.472	17.41
593.675	48.13
593.878	437.24
594.081	113.66
594.284	-46.08
594.486	404.47
594.689	291.84
594.892	91.13
595.095	5.12
595.298	412.67
595.5	187.39
595.703	80.89
595.906	115.71
596.109	572.41
596.311	474.1
596.514	-209.92
596.717	39.94
596.92	562.17
597.122	410.62
597.325	-277.5
597.528	-121.85
597.73	574.46
597.933	330.75
598.136	-48.13
598.338	-277.5
598.541	402.43
598.743	566.26
598.946	-13.31
599.148	15.36
599.351	541.69
599.554	498.68
599.756	168.96
599.959	97.28
600.161	504.82
600.363	904.18
600.566	328.7
600.768	-23.55
600.971	744.44
601.173	506.87
601.376	31.74
601.578	130.05
601.78	453.63
601.983	838.64
602.185	-27.65
602.388	271.36
602.59	347.13
602.792	201.72
602.995	316.41
603.197	60.42
603.399	523.26
603.601	486.39
603.804	39.94
604.006	7.17
604.208	263.16
604.41	-74.75
604.613	377.85
604.815	-17.41
605.017	898.03
605.219	226.3
605.421	388.09
605.623	21.5
605.826	637.94
606.028	740.34
606.23	72.7
606.432	125.95
606.634	797.68
606.836	685.05
607.038	-82.94
607.24	187.39
607.442	447.48
607.644	451.58
607.846	224.25
608.048	39.94
608.25	678.9
608.452	281.6
608.654	107.52
608.856	-103.42
609.058	232.44
609.26	572.41
609.462	222.2
609.664	228.35
609.866	936.95
610.067	566.26
610.269	218.11
610.471	158.72
610.673	232.44
610.875	556.02
611.077	-9.22
611.278	205.82
611.48	443.39
611.682	820.21
611.884	300.03
612.085	181.25
612.287	228.35
612.489	584.7
612.69	9.22
612.892	216.06
613.094	748.53
613.295	490.49
613.497	60.42
613.699	144.38
613.9	773.11
614.102	588.79
614.304	160.77
614.505	-21.5
614.707	394.23
614.908	345.08
615.11	-23.55
615.311	271.36
615.513	654.33
615.714	611.32
615.916	80.89
616.117	189.44
616.319	414.71
616.52	666.61
616.722	130.05
616.923	130.05
617.124	648.18
617.326	547.83
617.527	291.84
617.729	451.58
617.93	523.26
618.131	613.37
618.333	119.81
618.534	236.54
618.735	250.88
618.937	797.68
619.138	29.7
619.339	56.32
619.54	601.08
619.742	410.62
619.943	400.38
620.144	203.77
620.345	771.06
620.546	736.24
620.748	91.13
620.949	232.44
621.15	437.24
621.351	670.71
621.552	230.4
621.753	44.03
621.954	148.48
622.155	969.71
622.356	158.72
622.558	297.98
622.759	513.02
622.96	951.28
623.161	187.39
623.362	136.19
623.563	453.63
623.764	570.36
623.965	224.25
624.166	396.28
624.366	515.06
624.567	531.45
624.768	-64.51
624.969	267.26
625.17	416.76
625.371	547.83
625.572	254.97
625.773	166.91
625.973	734.2
626.174	680.95
626.375	285.69
626.576	377.85
626.777	719.86
626.977	1096.69
627.178	173.05
627.379	371.71
627.58	437.24
627.78	572.41
627.981	261.12
628.182	435.19
628.382	781.3
628.583	144.38
628.784	203.77
628.984	379.9
629.185	672.76
629.386	754.68
629.586	326.65
629.787	197.63
629.987	734.2
630.188	523.26
630.388	332.79
630.589	420.86
630.79	1158.13
630.99	642.04
631.191	375.8
631.391	420.86
631.591	717.81
631.792	867.31
631.992	537.59
632.193	375.8
632.393	988.14
632.594	619.51
632.794	369.66
632.994	400.38
633.195	621.56
633.395	662.52
633.595	236.54
633.796	564.22
633.996	461.82
634.196	883.7
634.397	203.77
634.597	420.86
634.797	424.95
634.997	928.75
635.198	488.44
635.398	164.86
635.598	553.98
635.798	895.99
635.998	730.1
636.199	222.2
636.399	484.34
636.599	334.84
636.799	316.41
636.999	562.17
637.199	807.92
637.399	814.07
637.599	396.28
637.799	443.39
637.999	472.06
638.199	949.23
638.399	349.18
638.599	273.4
638.799	740.34
638.999	1096.69
639.199	531.45
639.399	375.8
639.599	1051.63
639.799	345.08
639.999	269.31
640.199	263.16
640.399	658.42
640.599	717.81
640.799	476.15
640.998	596.98
641.198	879.6
641.398	781.3
641.598	521.21
641.798	427
641.997	1698.79
642.197	642.04
642.397	488.44
642.597	392.19
642.796	826.36
642.996	945.14
643.196	427
643.395	306.17
643.595	795.64
643.795	361.47
643.994	418.81
644.194	457.72
644.394	904.18
644.593	799.73
644.793	285.69
644.992	596.98
645.192	793.59
645.392	246.78
645.591	564.22
645.791	400.38
645.99	820.21
646.19	646.13
646.389	551.93
646.589	490.49
646.788	891.89
646.987	791.54
647.187	697.33
647.386	656.37
647.586	713.72
647.785	830.45
647.984	396.28
648.184	570.36
648.383	539.64
648.582	564.22
648.782	531.45
648.981	615.41
649.18	504.82
649.38	728.05
649.579	480.25
649.778	402.43
649.977	936.95
650.177	887.79
650.376	445.43
650.575	478.2
650.774	1111.02
650.973	760.82
651.173	383.99
651.372	594.93
651.571	781.3
651.77	920.56
651.969	533.5
652.168	730.1
652.367	533.5
652.566	957.43
652.765	547.83
652.964	818.16
653.163	1342.44
653.362	711.67
653.561	488.44
653.76	625.65
653.959	754.68
654.158	861.17
654.357	822.26
654.556	562.17
654.755	998.38
654.954	1035.25
655.153	560.12
655.352	646.13
655.551	1151.98
655.749	556.02
655.948	666.61
656.147	658.42
656.346	957.43
656.545	775.16
656.743	668.66
656.942	656.37
657.141	803.83
657.34	701.43
657.538	633.85
657.737	523.26
657.936	666.61
658.135	969.71
658.333	553.98
658.532	707.57
658.731	1264.62
658.929	1127.41
659.128	988.14
659.326	566.26
659.525	1242.09
659.724	842.74
659.922	408.57
660.121	549.88
660.319	924.66
660.518	687.09
660.716	592.89
660.915	654.33
661.113	1192.94
661.312	594.93
661.51	701.43
661.709	508.92
661.907	1088.5
662.105	1313.77
662.304	676.85
662.502	658.42
662.701	1141.74
662.899	789.49
663.097	1055.73
663.296	322.56
663.494	1145.84
663.692	1264.62
663.891	691.19
664.089	652.28
664.287	920.56
664.485	1156.08
664.684	615.41
664.882	844.79
665.08	875.51
665.278	961.52
665.476	596.98
665.675	1041.39
665.873	1338.35
666.071	1129.45
666.269	721.91
666.467	965.62
666.665	1057.78
666.863	971.76
667.061	918.51
667.259	629.75
667.457	900.08
667.655	1113.07
667.853	599.03
668.051	836.6
668.249	781.3
668.447	1219.57
668.645	779.25
668.843	885.75
669.041	1018.86
669.239	969.71
669.437	924.66
669.635	852.98
669.833	771.06
670.031	1149.93
670.229	924.66
670.426	809.97
670.624	922.61
670.822	744.44
671.02	785.4
671.218	777.2
671.415	695.29
671.613	996.34
671.811	838.64
672.009	834.55
672.206	1211.37
672.404	967.67
672.602	1031.15
672.799	920.56
672.997	1022.96
673.195	1311.72
673.392	871.41
673.59	719.86
673.788	1227.76
673.985	539.64
674.183	889.84
674.38	760.82
674.578	1313.77
674.775	783.35
674.973	609.27
675.17	697.33
675.368	1459.18
675.565	1119.21
675.763	732.15
675.96	719.86
676.158	1293.29
676.355	961.52
676.553	748.53
676.75	805.88
676.947	1100.78
677.145	1035.25
677.342	951.28
677.539	988.14
677.737	1174.51
677.934	1522.66
678.131	1063.92
678.329	805.88
678.526	1434.6
678.723	1223.66
678.92	967.67
679.118	893.94
679.315	785.4
679.512	1391.59
679.709	982
679.906	943.09
680.104	1387.5
680.301	1219.57
680.498	756.72
680.695	740.34
680.892	865.27
681.089	965.62
681.286	998.38
681.483	771.06
681.68	1192.94
681.877	1387.5
682.075	910.32
682.272	1068.02
682.469	1164.27
682.665	998.38
682.862	826.36
683.059	674.81
683.256	1246.19
683.453	1156.08
683.65	1074.16
683.847	951.28
684.044	1258.48
684.241	922.61
684.438	1043.44
684.635	769.01
684.831	1508.33
685.028	1663.97
685.225	852.98
685.422	1080.3
685.619	1082.35
685.815	1117.17
686.012	1029.1
686.209	943.09
686.405	850.93
686.602	1299.44
686.799	840.69
686.996	719.86
687.192	969.71
687.389	1633.26
687.586	926.71
687.782	957.43
687.979	1590.25
688.175	1473.51
688.372	965.62
688.568	1006.58
688.765	1131.5
688.962	1502.19
689.158	1131.5
689.355	834.55
689.551	1354.73
689.748	977.91
689.944	1002.48
690.14	699.38
690.337	1450.99
690.533	1076.21
690.73	1012.72
690.926	1031.15
691.123	1297.39
691.319	1186.8
691.515	867.31
691.712	1115.12
691.908	1379.31
692.104	1403.88
692.301	1098.74
692.497	857.07
692.693	1383.4
692.889	1465.32
693.086	1145.84
693.282	832.5
693.478	1238
693.674	1670.12
693.87	1080.3
694.067	834.55
694.263	1305.58
694.459	1106.93
694.655	1090.54
694.851	1113.07
695.047	1307.63
695.243	1391.59
695.439	1235.95
695.635	1006.58
695.831	1281
696.027	1387.5
696.224	1000.43
696.42	1307.63
696.615	1639.4
696.811	1393.64
697.007	836.6
697.203	1106.93
697.399	1440.75
697.595	1571.82
697.791	1000.43
697.987	1131.5
698.183	949.23
698.379	1031.15
698.575	1115.12
698.77	1170.41
698.966	1465.32
699.162	1584.1
699.358	1123.31
699.554	1106.93
699.749	1496.04
699.945	1473.51
700.141	1172.46
700.337	1188.85
700.532	1315.82
700.728	1170.41
700.924	1012.72
701.119	975.86
701.315	1518.57
701.511	1213.42
701.706	1082.35
701.902	994.29
702.097	1336.3
702.293	1569.77
702.489	1115.12
702.684	1031.15
702.88	1334.25
703.075	1285.1
703.271	1072.11
703.466	1059.82
703.662	1260.52
703.857	1463.27
704.053	1080.3
704.248	1156.08
704.443	1473.51
704.639	1461.23
704.834	1092.59
705.03	1041.39
705.225	1514.47
705.42	1592.3
705.616	1227.76
705.811	977.91
706.006	1182.7
706.202	1248.24
706.397	1238
706.592	1068.02
706.787	1420.27
706.983	1399.79
707.178	1463.27
707.373	1180.65
707.568	1620.97
707.763	1686.5
707.959	1168.37
708.154	1106.93
708.349	1526.76
708.544	1526.76
708.739	1336.3
708.934	1162.22
709.129	1625.06
709.324	1676.26
709.519	1108.98
709.714	1092.59
709.909	1475.56
710.104	1588.2
710.299	1180.65
710.494	1227.76
710.689	1637.35
710.884	1309.68
711.079	1305.58
711.274	1354.73
711.469	1512.42
711.664	1524.71
711.859	1246.19
712.054	1385.45
712.249	1526.76
712.443	1778.66
712.638	1080.3
712.833	1117.17
713.028	1364.97
713.223	1315.82
713.417	1432.55
713.612	1194.99
713.807	1573.86
714.002	2055.14
714.196	1348.59
714.391	1139.69
714.586	1647.59
714.78	1383.4
714.975	1147.89
715.17	1301.48
715.364	1416.17
715.559	1776.61
715.754	951.28
715.948	1180.65
716.143	2067.42
716.337	1465.32
716.532	1500.14
716.726	1207.28
716.921	1606.63
717.115	1874.92
717.31	1151.98
717.504	1801.19
717.699	1412.07
717.893	1788.9
718.088	1174.51
718.282	1113.07
718.476	1502.19
718.671	1541.1
718.865	1229.81
719.059	1293.29
719.254	1444.84
719.448	1786.85
719.642	1496.04
719.837	992.24
720.031	1745.89
720.225	1743.85
720.419	1403.88
720.614	1278.96
720.808	1715.17
721.002	1393.64
721.196	1244.14
721.39	1293.29
721.585	1903.59
721.779	1629.16
721.973	1403.88
722.167	1194.99
722.361	1569.77
722.555	1776.61
722.749	1260.52
722.943	1303.53
723.137	1311.72
723.331	1612.78
723.525	1367.02
723.719	1317.87
723.913	1584.1
724.107	1917.92
724.301	1287.15
724.495	1219.57
724.689	1981.41
724.883	1854.44
725.077	1211.37
725.271	1321.96
725.465	1838.05
725.659	1629.16
725.853	1440.75
726.046	1113.07
726.24	1498.09
726.434	1786.85
726.628	1326.06
726.822	1391.59
727.015	1731.56
727.209	1903.59
727.403	1389.55
727.596	1260.52
727.79	1694.69
727.984	1793
728.177	1440.75
728.371	1420.27
728.565	1827.81
728.758	1393.64
728.952	1199.09
729.146	1465.32
729.339	1840.1
729.533	1604.58
729.726	1371.12
729.92	1293.29
730.113	1924.07
730.307	1696.74
730.5	1377.26
730.694	1260.52
730.887	1444.84
731.081	1752.04
731.274	1391.59
731.468	1418.22
731.661	1606.63
731.854	1580.01
732.048	1297.39
732.241	1407.98
732.435	1520.62
732.628	1616.87
732.821	1567.72
733.014	1305.58
733.208	1330.16
733.401	1817.57
733.594	1399.79
733.788	1262.57
733.981	1969.12
734.174	1672.17
734.367	1342.44
734.56	1641.45
734.754	1768.42
734.947	1860.58
735.14	1358.83
735.333	1530.86
735.526	1866.72
735.719	1455.08
735.912	1448.94
736.105	1348.59
736.298	1797.09
736.491	1702.89
736.684	1508.33
736.877	1330.16
737.07	1825.76
737.263	2040.8
737.456	1430.51
737.649	1330.16
737.842	1602.54
738.035	1700.84
738.228	1412.07
738.421	1717.22
738.614	1975.27
738.807	1883.11
739	1285.1
739.192	1399.79
739.385	1813.48
739.578	1829.86
739.771	1727.46
739.964	1440.75
740.156	1731.56
740.349	1709.03
740.542	1676.26
740.735	1459.18
740.927	1373.16
741.12	1496.04
741.313	1420.27
741.505	1612.78
741.698	1819.62
741.891	1745.89
742.083	1713.13
742.276	1426.41
742.468	1715.17
742.661	1749.99
742.854	1555.43
743.046	1534.95
743.239	2163.68
743.431	1809.38
743.624	1537
743.816	1358.83
744.009	1555.43
744.201	1899.49
744.393	1715.17
744.586	1489.9
744.778	2022.37
744.971	1854.44
745.163	1616.87
745.355	1637.35
745.548	1711.08
745.74	1790.95
745.932	1659.88
746.125	1502.19
746.317	2391
746.509	1850.34
746.702	1629.16
746.894	1713.13
747.086	1856.48
747.278	2141.15
747.471	1571.82
747.663	1717.22
747.855	1819.62
748.047	2165.73
748.239	1590.25
748.431	1657.83
748.623	2094.05
748.815	2108.38
749.008	1403.88
749.2	1547.24
749.392	1915.87
749.584	1936.35
749.776	1668.07
749.968	1762.28
750.16	2372.57
750.352	1752.04
750.544	1571.82
750.736	1614.82
750.928	1948.64
751.12	1879.01
751.311	1618.92
751.503	1635.3
751.695	1817.57
751.887	1768.42
752.079	1352.68
752.271	1598.44
752.463	2608.09
752.654	1989.6
752.846	1641.45
753.038	1559.53
753.23	1627.11
753.421	1940.45
753.613	1580.01
753.805	1788.9
753.997	2001.89
754.188	2057.18
754.38	1440.75
754.572	1663.97
754.763	1735.65
754.955	2098.14
755.146	1608.68
755.338	1592.3
755.53	1917.92
755.721	1754.09
755.913	1514.47
756.104	1448.94
756.296	1813.48
756.487	1991.65
756.679	1508.33
756.87	1532.9
757.062	1858.53
757.253	2067.42
757.445	1655.78
757.636	1739.75
757.827	1926.11
758.019	2483.16
758.21	1510.38
758.401	1756.13
758.593	2280.41
758.784	2145.25
758.975	1563.62
759.167	1551.34
759.358	1917.92
759.549	2075.62
759.74	1557.48
759.932	1629.16
760.123	2110.43
760.314	1838.05
760.505	1694.69
760.696	1524.71
760.888	2294.75
761.079	1919.97
761.27	1588.2
761.461	1528.81
761.652	2214.88
761.843	1862.63
762.034	1670.12
762.225	1919.97
762.416	1973.22
762.607	1817.57
762.798	1629.16
762.989	1645.54
763.18	2685.91
763.371	1809.38
763.562	1582.06
763.753	1711.08
763.944	2092
764.135	2288.61
764.326	1840.1
764.517	1649.64
764.708	2032.61
764.899	2038.75
765.089	1690.6
765.28	1565.67
765.471	1999.84
765.662	2030.56
765.853	1754.09
766.043	1545.19
766.234	2227.17
766.425	2188.25
766.615	1688.55
766.806	1481.71
766.997	2132.96
767.187	2001.89
767.378	1655.78
767.569	1424.36
767.759	2055.14
767.95	1948.64
768.141	1858.53
768.331	1637.35
768.522	2014.18
768.712	2063.33
768.903	1512.42
769.093	1580.01
769.284	2356.19
769.474	1987.55
769.665	1461.23
769.855	1450.99
770.046	2042.85
770.236	1911.78
770.426	1793
770.617	1573.86
770.807	2141.15
770.998	1639.4
771.188	1788.9
771.378	1514.47
771.569	2157.54
771.759	2128.86
771.949	1604.58
772.139	1469.42
772.33	1995.75
772.52	2401.24
772.71	1723.37
772.9	1588.2
773.09	2292.7
773.281	2272.22
773.471	1688.55
773.661	1719.27
773.851	2165.73
774.041	1913.83
774.231	1561.58
774.421	1762.28
774.611	2366.43
774.802	1942.5
774.992	1754.09
775.182	1594.34
775.372	2071.52
775.562	2163.68
775.752	1627.11
775.942	1659.88
776.131	2274.27
776.321	2132.96
776.511	1700.84
776.701	1741.8
776.891	2354.14
777.081	1614.82
777.271	1690.6
777.461	1639.4
777.651	2104.29
777.84	2251.74
778.03	1704.93
778.22	1637.35
778.41	2325.47
778.599	1709.03
778.789	1842.15
778.979	1633.26
779.169	2089.95
779.358	2001.89
779.548	1946.59
779.738	1608.68
779.927	2005.99
780.117	1817.57
780.307	1678.31
780.496	1424.36
780.686	1948.64
780.875	2323.42
781.065	1666.02
781.254	1661.93
781.444	1965.03
781.633	1989.6
781.823	1614.82
782.012	1649.64
782.202	1885.16
782.391	2112.48
782.581	1512.42
782.77	1967.07
782.96	2114.53
783.149	1934.31
783.338	1649.64
783.528	1555.43
783.717	2235.36
783.906	2329.56
784.096	1907.68
784.285	1612.78
784.474	1870.82
784.663	1922.02
784.853	1594.34
785.042	1831.91
785.231	1833.96
785.42	2251.74
785.61	1809.38
785.799	1575.91
785.988	1911.78
786.177	1905.63
786.366	1686.5
786.555	1899.49
786.744	2173.92
786.933	2051.04
787.122	1549.29
787.312	1629.16
787.501	1610.73
787.69	2085.86
787.879	1620.97
788.068	1670.12
788.257	1737.7
788.445	1891.3
788.634	1817.57
788.823	1655.78
789.012	2550.75
789.201	2253.79
789.39	1803.24
789.579	1629.16
789.768	1924.07
789.957	2005.99
790.145	1776.61
790.334	1387.5
790.523	1799.14
790.712	1895.4
790.9	1788.9
791.089	1618.92
791.278	2358.24
791.467	2092
791.655	1913.83
791.844	2261.98
792.033	1809.38
792.221	1977.31
792.41	1686.5
792.599	1588.2
792.787	2098.14
792.976	2092
793.164	1661.93
793.353	1745.89
793.541	2186.21
793.73	2096.1
793.918	1838.05
794.107	1704.93
794.295	2069.47
794.484	1895.4
794.672	1752.04
794.861	1780.71
795.049	2145.25
795.238	2440.15
795.426	1618.92
795.614	1745.89
795.803	2137.06
795.991	2339.8
796.179	1657.83
796.368	1786.85
796.556	2282.46
796.744	1706.98
796.932	1715.17
797.121	1584.1
797.309	1919.97
797.497	2167.77
797.685	1903.59
797.874	1711.08
798.062	1922.02
798.25	2188.25
798.438	1645.54
798.626	1793
798.814	2175.97
799.002	2532.31
799.19	1870.82
799.378	1737.7
799.566	2325.47
799.755	2409.44
799.943	1952.74
800.131	1711.08
800.318	2032.61
800.506	2100.19
800.694	1715.17
800.882	1883.11
801.07	2415.58
801.258	1991.65
801.446	1852.39
801.634	1825.76
801.822	1932.26
802.01	1987.55
802.197	1719.27
802.385	1942.5
802.573	2173.92
802.761	1768.42
802.949	1879.01
803.136	1631.21
803.324	2288.61
803.512	2100.19
803.699	1866.72
803.887	1637.35
804.075	2499.55
804.262	2057.18
804.45	1713.13
804.638	1926.11
804.825	1950.69
805.013	1885.16
805.201	1919.97
805.388	1641.45
805.576	2046.94
805.763	2479.07
805.951	1797.09
806.138	2048.99
806.326	2573.27
806.513	2255.84
806.701	1885.16
806.888	1862.63
807.075	2259.93
807.263	2423.77
807.45	1793
807.638	2048.99
807.825	2724.82
808.012	2491.35
808.2	2001.89
808.387	2083.81
808.574	2325.47
808.761	2651.1
808.949	1856.48
809.136	1993.7
809.323	2227.17
809.51	2153.44
809.698	2296.8
809.885	2075.62
810.072	2251.74
810.259	2395.1
810.446	2030.56
810.633	1891.3
810.82	2505.69
811.008	2640.86
811.195	2163.68
811.382	2104.29
811.569	2212.83
811.756	1901.54
811.943	1960.93
812.13	2051.04
812.317	2161.63
812.504	2118.62
812.691	2186.21
812.878	2155.49
813.064	2612.18
813.251	2421.72
813.438	1911.78
813.625	2264.03
813.812	2348
813.999	2333.66
814.186	2178.01
814.372	2075.62
814.559	2298.84
814.746	2669.53
814.933	2083.81
815.12	2171.87
815.306	2190.3
815.493	2135.01
815.68	1993.7
815.866	2096.1
816.053	2616.28
816.24	2821.08
816.426	2128.86
816.613	1858.53
816.799	2622.42
816.986	2632.66
817.173	2067.42
817.359	1913.83
817.546	2425.82
817.732	2053.09
817.919	1854.44
818.105	2225.12
818.292	2288.61
818.478	2345.95
818.665	2233.31
818.851	2034.66
819.037	2802.65
819.224	2378.72
819.41	2046.94
819.597	2067.42
819.783	2833.36
819.969	2491.35
820.156	2110.43
820.342	1911.78
820.528	3054.55
820.714	2397.15
820.901	2294.75
821.087	2128.86
821.273	2694.1
821.459	2290.65
821.646	2030.56
821.832	2077.66
822.018	2325.47
822.204	2378.72
822.39	1977.31
822.576	1917.92
822.762	2427.87
822.948	2372.57
823.134	2292.7
823.32	2069.47
823.507	1985.51
823.693	2386.91
823.879	2391
824.065	1993.7
824.25	2436.06
824.436	2083.81
824.622	2096.1
824.808	2067.42
824.994	2196.45
825.18	2188.25
825.366	2014.18
825.552	2026.47
825.738	2243.55
825.923	2722.77
826.109	2323.42
826.295	2077.66
826.481	2096.1
826.667	2235.36
826.852	2266.08
827.038	1989.6
827.224	2726.87
827.409	2868.18
827.595	2040.8
827.781	2282.46
827.966	2579.42
828.152	2554.84
828.338	2110.43
828.523	2044.9
828.709	2223.07
828.894	2558.94
829.08	2118.62
829.266	1999.84
829.451	2202.59
829.637	2530.27
829.822	2300.89
830.008	2051.04
830.193	2534.36
830.378	2761.69
830.564	2186.21
830.749	1868.77
830.935	2522.07
831.12	2526.17
831.305	2128.86
831.491	2096.1
831.676	2124.77
831.861	2788.31
832.047	2026.47
832.232	2022.37
832.417	2681.82
832.602	2337.76
832.788	2089.95
832.973	2005.99
833.158	2364.38
833.343	2315.23
833.528	2186.21
833.714	2122.72
833.899	2538.46
834.084	2681.82
834.269	2173.92
834.454	2106.34
834.639	2481.11
834.824	2311.13
835.009	2171.87
835.194	2276.32
835.379	2606.04
835.564	2741.21
835.749	2372.57
835.934	2092
836.119	2632.66
836.304	2397.15
836.489	2018.27
836.674	2339.8
836.859	2173.92
837.044	2769.88
837.228	2112.48
837.413	1942.5
837.598	2348
837.783	2571.22
837.968	2147.3
838.152	1983.46
838.337	1971.17
838.522	2638.81
838.707	2667.48
838.891	2266.08
839.076	2343.9
839.261	2644.95
839.445	2155.49
839.63	2147.3
839.815	2722.77
839.999	2200.54
840.184	2034.66
840.368	1967.07
840.553	2391
840.737	2558.94
840.922	1946.59
841.106	1954.79
841.291	2149.34
841.475	2399.2
841.66	2018.27
841.844	2030.56
842.029	3101.65
842.213	2067.42
842.397	2255.84
842.582	1977.31
842.766	2563.03
842.951	2614.23
843.135	2180.06
843.319	2053.09
843.504	2247.65
843.688	2548.7
843.872	1825.76
844.056	1985.51
844.241	2382.81
844.425	2378.72
844.609	2429.91
844.793	1793
844.977	2601.94
845.161	2352.09
845.346	1956.83
845.53	2026.47
845.714	2315.23
845.898	2763.73
846.082	1993.7
846.266	2139.1
846.45	2296.8
846.634	2442.2
846.818	2026.47
847.002	2223.07
847.186	2575.32
847.37	2196.45
847.554	1969.12
847.738	2083.81
847.922	2528.22
848.106	2466.78
848.29	1960.93
848.473	2104.29
848.657	2493.4
848.841	2382.81
849.025	1936.35
849.209	2034.66
849.392	2517.98
849.576	2358.24
849.76	1817.57
849.944	2100.19
850.127	2702.29
850.311	2044.9
850.495	1936.35
850.678	1885.16
850.862	2595.8
851.046	2673.62
851.229	2343.9
851.413	1868.77
851.596	2391
851.78	2358.24
851.964	2178.01
852.147	2206.69
852.331	2984.91
852.514	2630.62
852.698	2120.67
852.881	1870.82
853.065	2495.45
853.248	2272.22
853.431	2249.69
853.615	2216.93
853.798	2853.84
853.982	2407.39
854.165	2298.84
854.348	1919.97
854.532	2124.77
854.715	2245.6
854.898	2149.34
855.081	1942.5
855.265	2733.01
855.448	2737.11
855.631	1907.68
855.814	2030.56
855.997	2493.4
856.181	2370.52
856.364	2102.24
856.547	1901.54
856.73	2472.92
856.913	2477.02
857.096	1926.11
857.279	2059.23
857.462	2126.82
857.645	2509.79
857.828	2237.41
858.011	2147.3
858.194	2173.92
858.377	2642.9
858.56	1885.16
858.743	2079.71
858.926	2104.29
859.109	2431.96
859.292	2081.76
859.475	1965.03
859.658	2546.65
859.841	2530.27
860.023	1838.05
860.206	1801.19
860.389	2360.28
860.572	2677.72
860.755	2014.18
860.937	2014.18
861.12	2307.04
861.303	2286.56
861.486	2116.58
861.668	1915.87
861.851	2479.07
862.034	2438.11
862.216	2108.38
862.399	1698.79
862.581	2384.86
862.764	2653.14
862.947	2116.58
863.129	2003.94
863.312	1907.68
863.494	2601.94
863.677	2524.12
863.859	1885.16
864.042	2454.49
864.224	2614.23
864.406	2139.1
864.589	1852.39
864.771	2454.49
864.954	2092
865.136	1950.69
865.318	1889.25
865.501	2472.92
865.683	1985.51
865.865	1958.88
866.048	2057.18
866.23	2204.64
866.412	2112.48
866.594	1885.16
866.777	2067.42
866.959	2472.92
867.141	2110.43
867.323	2186.21
867.505	2106.34
867.687	2278.37
867.869	2384.86
868.052	1975.27
868.234	1893.35
868.416	2225.12
868.598	2481.11
868.78	1997.79
868.962	1950.69
869.144	2501.59
869.326	2436.06
869.508	1844.2
869.69	1889.25
869.872	2145.25
870.054	2618.33
870.236	1879.01
870.417	1907.68
870.599	2290.65
870.781	2595.8
870.963	2040.8
871.145	1907.68
871.327	1999.84
871.508	2495.45
871.69	2141.15
871.872	2034.66
872.054	2266.08
872.235	2391
872.417	2094.05
872.599	1928.16
872.78	2657.24
872.962	2354.14
873.144	1862.63
873.325	2063.33
873.507	2767.83
873.689	2315.23
873.87	1919.97
874.052	2096.1
874.233	2161.63
874.415	2659.29
874.596	2098.14
874.778	1782.76
874.959	2378.72
875.141	2507.74
875.322	2124.77
875.503	2008.03
875.685	2470.87
875.866	1879.01
876.048	1919.97
876.229	1934.31
876.41	2202.59
876.592	2405.34
876.773	2061.28
876.954	1891.3
877.136	2591.7
877.317	2235.36
877.498	1907.68
877.679	2178.01
877.86	2343.9
878.042	2259.93
878.223	2085.86
878.404	2241.5
878.585	2603.99
878.766	2728.92
878.947	2468.83
879.128	2391
879.309	2462.68
879.49	2548.7
879.672	2223.07
879.853	2030.56
880.034	2221.02
880.215	2276.32
880.396	2098.14
880.576	2182.11
880.757	2296.8
880.938	2718.68
881.119	1942.5
881.3	2036.7
881.481	2333.66
881.662	3275.73
881.843	1979.36
882.023	2106.34
882.204	2440.15
882.385	2526.17
882.566	2108.38
882.747	2057.18
882.927	2278.37
883.108	2397.15
883.289	2225.12
883.469	2298.84
883.65	2321.37
883.831	2374.62
884.011	2354.14
884.192	2079.71
884.373	2714.58
884.553	2669.53
884.734	2245.6
884.914	2583.51
885.095	3240.91
885.275	2739.16
885.456	2411.48
885.636	2200.54
885.817	2350.04
885.997	2464.73
886.178	2196.45
886.358	2264.03
886.538	2515.93
886.719	3515.34
886.899	2178.01
887.08	2309.08
887.26	2792.41
887.44	2356.19
887.621	2204.64
887.801	2450.39
887.981	3130.32
888.161	2681.82
888.342	2358.24
888.522	2415.58
888.702	2841.56
888.882	2872.28
889.062	2493.4
889.242	2198.49
889.423	2976.72
889.603	2704.34
889.783	2528.22
889.963	2190.3
890.143	2749.4
890.323	2909.14
890.503	2288.61
890.683	2368.48
890.863	2700.25
891.043	2608.09
891.223	2526.17
891.403	2464.73
891.583	2634.71
891.763	2743.25
891.943	2423.77
892.122	2331.61
892.302	2708.44
892.482	2556.89
892.662	2571.22
892.842	2399.2
893.022	2837.46
893.201	2550.75
893.381	2755.54
893.561	2397.15
893.741	2962.39
893.92	2868.18
894.1	2563.03
894.28	2485.21
894.459	2841.56
894.639	2788.31
894.819	2395.1
894.998	2577.37
895.178	2755.54
895.357	2939.86
895.537	2368.48
895.716	2239.45
895.896	2677.72
896.075	3001.3
896.255	2368.48
896.434	2247.65
896.614	2919.38
896.793	3054.55
896.973	2681.82
897.152	2644.95
897.331	2841.56
897.511	2925.52
897.69	2126.82
897.87	2556.89
898.049	2900.95
898.228	2657.24
898.407	2606.04
898.587	2552.79
898.766	2515.93
898.945	2907.09
899.124	2794.45
899.304	2726.87
899.483	2882.52
899.662	3118.03
899.841	2444.25
900.02	2520.03
900.199	3126.22
900.378	2991.06
900.557	2458.59
900.737	2372.57
900.916	2753.49
901.095	2841.56
901.274	2872.28
901.453	2298.84
901.632	2548.7
901.811	2530.27
901.989	2464.73
902.168	2329.56
902.347	3025.87
902.526	2636.76
902.705	2485.21
902.884	2595.8
903.063	3136.46
903.242	2954.19
903.42	2317.28
903.599	2571.22
903.778	3034.07
903.957	3136.46
904.135	2567.13
904.314	2460.63
904.493	2790.36
904.672	2792.41
904.85	2487.26
905.029	2427.87
905.207	2796.5
905.386	3447.76
905.565	2270.17
905.743	2511.83
905.922	2587.61
906.1	2909.14
906.279	2354.14
906.457	2298.84
906.636	2544.6
906.814	2595.8
906.993	2268.13
907.171	2382.81
907.35	2962.39
907.528	2923.48
907.707	2696.15
907.885	2368.48
908.063	3128.27
908.242	2431.96
908.42	2370.52
908.598	2210.78
908.777	2808.79
908.955	2544.6
909.133	2481.11
909.311	2272.22
909.49	2499.55
909.668	2612.18
909.846	2440.15
910.024	2216.93
910.202	2540.51
910.38	2763.73
910.559	2165.73
910.737	2223.07
910.915	2649.05
911.093	2587.61
911.271	2356.19
911.449	2505.69
911.627	2620.38
911.805	3099.6
911.983	2350.04
912.161	2440.15
912.339	2681.82
912.517	2784.21
912.695	2454.49
912.872	2364.38
913.05	2370.52
913.228	2649.05
913.406	2360.28
913.584	2218.97
913.762	2755.54
913.939	2419.68
914.117	2257.89
914.295	2245.6
914.473	2657.24
914.65	2792.41
914.828	2300.89
915.006	2151.39
915.184	2331.61
915.361	2595.8
915.539	2460.63
915.716	2464.73
915.894	2571.22
916.072	2816.98
916.249	2352.09
916.427	2466.78
916.604	2300.89
916.782	2552.79
916.959	2061.28
917.137	2145.25
917.314	2536.41
917.492	2579.42
917.669	2360.28
917.847	2350.04
918.024	2620.38
918.201	2329.56
918.379	2382.81
918.556	2331.61
918.733	2647
918.911	2364.38
919.088	2403.29
919.265	2169.82
919.442	2569.18
919.62	2317.28
919.797	2272.22
919.974	1981.41
920.151	2622.42
920.328	2388.96
920.506	2235.36
920.683	2474.97
920.86	2218.97
921.037	2229.21
921.214	2178.01
921.391	2128.86
921.568	2739.16
921.745	2280.41
921.922	2108.38
922.099	2069.47
922.276	2610.14
922.453	2489.31
922.63	2075.62
922.807	2450.39
922.984	2462.68
923.161	2208.73
923.338	2169.82
923.514	2034.66
923.691	2358.24
923.868	2472.92
924.045	2141.15
924.222	2165.73
924.399	2462.68
924.575	2603.99
924.752	2128.86
924.929	2071.52
925.105	2350.04
925.282	2036.7
925.459	2016.23
925.635	2092
925.812	2194.4
925.989	2292.7
926.165	2110.43
926.342	1758.18
926.518	1936.35
926.695	2216.93
926.871	2001.89
927.048	1866.72
927.224	2434.01
927.401	2126.82
927.577	1983.46
927.754	1993.7
927.93	2323.42
928.107	2425.82
928.283	1749.99
928.459	2059.23
928.636	2288.61
928.812	2057.18
928.988	1842.15
929.165	1815.52
929.341	2053.09
929.517	2245.6
929.693	2270.17
929.87	1635.3
930.046	2278.37
930.222	2122.72
930.398	1780.71
930.574	1913.83
930.751	2184.16
930.927	1903.59
931.103	1907.68
931.279	1891.3
931.455	1870.82
931.631	2069.47
931.807	1608.68
931.983	1577.96
932.159	1666.02
932.335	2165.73
932.511	1811.43
932.687	1780.71
932.863	2155.49
933.039	1965.03
933.215	1637.35
933.391	1539.05
933.566	1895.4
933.742	1827.81
933.918	1645.54
934.094	1358.83
934.27	1817.57
934.445	1895.4
934.621	1653.73
934.797	1428.46
934.973	2126.82
935.148	1926.11
935.324	1407.98
935.5	1326.06
935.675	2061.28
935.851	1897.44
936.027	1407.98
936.202	1498.09
936.378	1747.94
936.553	1690.6
936.729	1887.2
936.904	1397.74
937.08	1233.9
937.255	1367.02
937.431	1295.34
937.606	1180.65
937.782	1369.07
937.957	1520.62
938.133	1344.49
938.308	1151.98
938.483	1410.03
938.659	1178.61
938.834	1223.66
939.009	1084.4
939.185	1250.28
939.36	1197.04
939.535	795.64
939.71	1231.85
939.886	1528.81
940.061	1436.65
940.236	1221.61
940.411	1094.64
940.586	1352.68
940.761	1455.08
940.937	990.19
941.112	893.94
941.287	1289.2
941.462	1209.33
941.637	760.82
941.812	1072.11
941.987	1211.37
942.162	1229.81
942.337	1086.45
942.512	973.81
942.687	1403.88
942.862	1348.59
943.037	691.19
943.212	674.81
943.386	1035.25
943.561	1205.23
943.736	1041.39
943.911	1207.28
944.086	1219.57
944.26	1211.37
944.435	855.03
944.61	971.76
944.785	1453.03
944.959	1555.43
945.134	924.66
945.309	826.36
945.483	996.34
945.658	1293.29
945.833	572.41
946.007	652.28
946.182	1485.8
946.357	916.47
946.531	840.69
946.706	832.5
946.88	779.25
947.055	1072.11
947.229	814.07
947.404	726
947.578	1319.92
947.752	1031.15
947.927	711.67
948.101	560.12
948.276	1070.06
948.45	1147.89
948.624	988.14
948.799	760.82
948.973	1154.03
949.147	756.72
949.321	879.6
949.496	887.79
949.67	1262.57
949.844	969.71
950.018	799.73
950.193	906.23
950.367	1573.86
950.541	994.29
950.715	979.95
950.889	1010.67
951.063	920.56
951.237	1207.28
951.411	668.66
951.585	654.33
951.759	1250.28
951.933	1051.63
952.107	785.4
952.281	977.91
952.455	1393.64
952.629	1311.72
952.803	787.44
952.977	744.44
953.151	1227.76
953.325	1131.5
953.499	973.81
953.672	728.05
953.846	850.93
954.02	1055.73
954.194	726
954.368	771.06
954.541	1184.75
954.715	1031.15
954.889	963.57
955.062	756.72
955.236	1088.5
955.41	1108.98
955.583	1065.97
955.757	728.05
955.93	1002.48
956.104	842.74
956.278	807.92
956.451	867.31
956.625	1154.03
956.798	1543.14
956.972	1031.15
957.145	838.64
957.319	1197.04
957.492	1068.02
957.665	932.85
957.839	809.97
958.012	1147.89
958.185	938.99
958.359	893.94
958.532	1055.73
958.705	1211.37
958.879	1008.62
959.052	961.52
959.225	629.75
959.398	990.19
959.572	1111.02
959.745	769.01
959.918	812.02
960.091	984.05
960.264	1139.69
960.438	687.09
960.611	773.11
960.784	1192.94
960.957	875.51
961.13	1180.65
961.303	664.57
961.476	1082.35
961.649	1342.44
961.822	701.43
961.995	844.79
962.168	1170.41
962.341	1061.87
962.514	855.03
962.686	707.57
962.859	1076.21
963.032	1170.41
963.205	695.29
963.378	601.08
963.551	1139.69
963.723	977.91
963.896	889.84
964.069	965.62
964.242	1016.82
964.414	1289.2
964.587	809.97
964.76	891.89
964.932	1086.45
965.105	936.95
965.278	785.4
965.45	760.82
965.623	1061.87
965.795	1213.42
965.968	775.16
966.14	760.82
966.313	1002.48
966.485	1010.67
966.658	789.49
966.83	756.72
967.003	1350.64
967.175	1309.68
967.348	793.59
967.52	867.31
967.692	1328.11
967.865	1121.26
968.037	863.22
968.209	1012.72
968.382	912.37
968.554	1242.09
968.726	793.59
968.898	683
969.071	1147.89
969.243	1188.85
969.415	842.74
969.587	863.22
969.759	1387.5
969.932	1174.51
970.104	920.56
970.276	523.26
970.448	904.18
970.62	986.1
970.792	883.7
970.964	850.93
971.136	1506.28
971.308	1115.12
971.48	713.72
971.652	795.64
971.824	1354.73
971.996	898.03
972.168	818.16
972.339	865.27
972.511	1145.84
972.683	973.81
972.855	990.19
973.027	805.88
973.199	1133.55
973.37	1244.14
973.542	867.31
973.714	953.33
973.886	1037.3
974.057	1082.35
974.229	676.85
974.401	793.59
974.572	908.27
974.744	650.23
974.915	658.42
975.087	689.14
975.259	1371.12
975.43	848.88
975.602	848.88
975.773	607.22
975.945	803.83
976.116	1080.3
976.288	596.98
976.459	857.07
976.63	986.1
976.802	1065.97
976.973	695.29
977.145	895.99
977.316	1448.94
977.487	1295.34
977.659	904.18
977.83	777.2
978.001	1317.87
978.172	943.09
978.344	736.24
978.515	662.52
978.686	846.84
978.857	1285.1
979.028	721.91
979.2	687.09
979.371	1170.41
979.542	961.52
979.713	934.9
979.884	211.96
980.055	830.45
980.226	738.29
980.397	633.85
980.568	574.46
980.739	1170.41
980.91	867.31
981.081	863.22
981.252	633.85
981.423	1094.64
981.594	1080.3
981.765	592.89
981.936	781.3
982.106	979.95
982.277	1205.23
982.448	668.66
982.619	844.79
982.79	764.92
982.96	1129.45
983.131	756.72
983.302	392.19
983.472	867.31
983.643	1008.62
983.814	850.93
983.984	607.22
984.155	895.99
984.326	1108.98
984.496	758.77
984.667	580.6
984.837	689.14
985.008	1293.29
985.178	807.92
985.349	717.81
985.519	930.8
985.69	777.2
985.86	642.04
986.031	549.88
986.201	930.8
986.371	941.04
986.542	498.68
986.712	386.04
986.882	1008.62
987.053	1014.77
987.223	539.64
987.393	777.2
987.563	744.44
987.734	1092.59
987.904	941.04
988.074	586.74
988.244	867.31
988.414	834.55
988.585	609.27
988.755	662.52
988.925	832.5
989.095	1246.19
989.265	582.65
989.435	662.52
989.605	1061.87
989.775	1027.06
989.945	875.51
990.115	596.98
990.285	908.27
990.455	906.23
990.625	750.58
990.795	564.22
990.965	1242.09
991.134	680.95
991.304	609.27
991.474	490.49
991.644	988.14
991.814	1305.58
991.984	508.92
992.153	556.02
992.323	803.83
992.493	828.4
992.662	310.27
992.832	764.92
993.002	871.41
993.171	938.99
993.341	379.9
993.511	648.18
993.68	703.48
993.85	979.95
994.019	351.23
994.189	453.63
994.358	949.23
994.528	728.05
994.697	302.08
994.867	490.49
995.036	996.34
995.206	719.86
995.375	416.76
995.544	683
995.714	916.47
995.883	662.52
996.052	723.96
996.222	279.55
996.391	1246.19
996.56	791.54
996.73	488.44
996.899	285.69
997.068	1080.3
997.237	764.92
997.406	439.29
997.576	322.56
997.745	859.12
997.914	844.79
998.083	283.64
998.252	429.05
998.421	807.92
998.59	556.02
998.759	287.74
998.928	265.21
999.097	990.19
999.266	861.17
999.435	605.17
999.604	302.08
999.773	1246.19
999.942	617.46
1000.111	232.44
1000.28	197.63
1000.448	453.63
1000.617	371.71
1000.786	605.17
1000.955	273.4
1001.124	760.82
1001.292	1387.5
1001.461	383.99
1001.63	291.84
1001.798	1088.5
1001.967	1121.26
1002.136	293.88
1002.304	330.75
1002.473	754.68
1002.642	773.11
1002.81	441.34
1002.979	334.84
1003.147	883.7
1003.316	1305.58
1003.484	386.04
1003.653	269.31
1003.821	965.62
1003.99	689.14
1004.158	564.22
1004.327	455.67
1004.495	771.06
1004.663	457.72
1004.832	521.21
1005	197.63
1005.168	709.62
1005.337	719.86
1005.505	248.83
1005.673	506.87
1005.842	738.29
1006.01	785.4
1006.178	201.72
1006.346	363.51
1006.514	834.55
1006.683	932.85
1006.851	369.66
1007.019	236.54
1007.187	484.34
1007.355	224.25
1007.523	232.44
1007.691	195.58
1007.859	295.93
1008.027	850.93
1008.195	273.4
1008.363	207.87
1008.531	822.26
1008.699	476.15
1008.867	144.38
1009.035	306.17
1009.203	889.84
1009.37	584.7
1009.538	302.08
1009.706	734.2
1009.874	631.8
1010.042	558.07
1010.209	121.85
1010.377	310.27
1010.545	826.36
1010.713	617.46
1010.88	230.4
1011.048	289.79
1011.216	472.06
1011.383	943.09
1011.551	228.35
1011.718	80.89
1011.886	891.89
1012.054	596.98
1012.221	244.73
1012.389	166.91
1012.556	576.5
1012.724	1043.44
1012.891	338.94
1013.058	107.52
1013.226	732.15
1013.393	779.25
1013.561	103.42
1013.728	134.14
1013.895	852.98
1014.063	687.09
1014.23	101.37
1014.397	205.82
1014.565	861.17
1014.732	488.44
1014.899	195.58
1015.066	107.52
1015.233	558.07
1015.401	779.25
1015.568	281.6
1015.735	287.74
1015.902	584.7
1016.069	590.84
1016.236	89.09
1016.403	132.09
1016.57	420.86
1016.737	793.59
1016.904	222.2
1017.071	166.91
1017.238	379.9
1017.405	742.39
1017.572	222.2
1017.739	371.71
1017.906	764.92
1018.073	844.79
1018.24	44.03
1018.407	297.98
1018.573	769.01
1018.74	490.49
1018.907	302.08
1019.074	56.32
1019.241	846.84
1019.407	556.02
1019.574	130.05
1019.741	84.99
1019.907	629.75
1020.074	642.04
1020.241	-93.18
1020.407	58.37
1020.574	662.52
1020.74	695.29
1020.907	242.68
1021.073	54.27
1021.24	1123.31
1021.406	916.47
1021.573	1.02
1021.739	162.81
1021.906	709.62
1022.072	486.39
1022.239	-1.02
1022.405	113.66
1022.571	465.91
1022.738	281.6
1022.904	33.79
1023.07	295.93
1023.237	506.87
1023.403	683
1023.569	171.01
1023.735	97.28
1023.902	461.82
1024.068	607.22
1024.234	13.31
1024.4	121.85
1024.566	541.69
1024.732	572.41
1024.898	132.09
1025.065	-21.5
1025.231	699.38
1025.397	357.37
1025.563	175.1
1025.729	-17.41
1025.895	87.04
1026.061	293.88
1026.227	-84.99
1026.392	132.09
1026.558	683
1026.724	625.65
1026.89	35.84
1027.056	203.77
1027.222	582.65
1027.388	406.52
1027.553	144.38
1027.719	-29.7
1027.885	902.13
1028.051	549.88
1028.216	-158.72
1028.382	91.13
1028.548	633.85
1028.713	424.95
1028.879	31.74
1029.045	183.29
1029.21	791.54
1029.376	730.1
1029.541	121.85
1029.707	56.32
1029.873	625.65
1030.038	531.45
1030.204	72.7
1030.369	74.75
1030.534	732.15
1030.7	302.08
1030.865	39.94
1031.031	-44.03
1031.196	611.32
1031.361	414.71
1031.527	-29.7
1031.692	58.37
1031.857	25.6
1032.023	582.65
1032.188	-56.32
1032.353	44.03
1032.518	801.78
1032.684	449.53
1032.849	-162.81
1033.014	123.9
1033.179	572.41
1033.344	586.74
1033.509	162.81
1033.674	-5.12
1033.839	646.13
1034.004	580.6
1034.17	56.32
1034.335	-39.94
1034.5	418.81
1034.664	295.93
1034.829	101.37
1034.994	-41.98
1035.159	527.35
1035.324	457.72
1035.489	115.71
1035.654	-13.31
1035.819	707.57
1035.984	412.67
1036.148	48.13
1036.313	-15.36
1036.478	629.75
1036.643	437.24
1036.807	66.56
1036.972	-70.65
1037.137	666.61
1037.301	453.63
1037.466	-144.38
1037.631	89.09
1037.795	672.76
1037.96	394.23
1038.124	187.39
1038.289	-29.7
1038.454	533.5
1038.618	490.49
1038.783	44.03
1038.947	84.99
1039.111	447.48
1039.276	338.94
1039.44	-21.5
1039.605	449.53
1039.769	316.41
1039.933	379.9
1040.098	123.9
1040.262	185.34
1040.426	596.98
1040.591	478.2
1040.755	-93.18
1040.919	17.41
1041.083	492.54
1041.248	338.94
1041.412	-171.01
1041.576	-33.79
1041.74	420.86
1041.904	523.26
1042.068	-87.04
1042.232	78.85
1042.397	629.75
1042.561	535.54
1042.725	-244.73
1042.889	181.25
1043.053	492.54
1043.217	465.91
1043.381	89.09
1043.544	-95.23
1043.708	631.8
1043.872	216.06
1044.036	-166.91
1044.2	-99.33
1044.364	650.23
1044.528	713.72
1044.691	1444.84
1044.855	-128
1045.019	523.26
1045.183	474.1
1045.346	82.94
1045.51	-58.37
1045.674	527.35
1045.837	482.3
1046.001	17.41
1046.165	-93.18
1046.328	842.74
1046.492	490.49
1046.655	91.13
1046.819	41.98
1046.983	308.22
1047.146	494.58
1047.31	44.03
1047.473	-148.48
1047.636	293.88
1047.8	109.57
1047.963	-121.85
1048.127	-11.26
1048.29	224.25
