Data from Ink_Intensity_USB4F045381__2__00002.txt Node

Date: Mon Jul 17 09:21:10 EDT 2023
User: mmckonesweet
Spectrometer: USB4F04538
Trigger mode: 4
Integration Time (sec): 9.000000E-1
Scans to average: 1
Electric dark correction enabled: true
Nonlinearity correction enabled: false
Boxcar width: 0
XAxis mode: Wavelengths
Number of Pixels in Spectrum: 3648
>>>>>Begin Spectral Data<<<<<
345.52	-887.11
345.736	-887.11
345.952	-887.11
346.168	-813.38
346.384	-844.1
346.6	-72.02
346.816	-223.57
347.032	-88.4
347.248	200.36
347.464	-178.51
347.68	-65.88
347.896	114.34
348.112	333.48
348.328	-76.12
348.544	-82.26
348.76	-131.41
348.975	269.99
349.191	-188.75
349.407	-29.01
349.623	48.81
349.839	-59.73
350.055	89.77
350.27	202.41
350.486	169.64
350.702	489.12
350.918	282.28
351.133	-6.49
351.349	224.94
351.565	399.01
351.781	-55.64
351.996	149.16
352.212	474.79
352.428	-45.4
352.644	5.8
352.859	-100.69
353.075	349.86
353.291	36.52
353.506	87.72
353.722	-41.3
353.938	28.33
354.153	417.44
354.369	204.46
354.584	-29.01
354.8	370.34
355.016	-229.71
355.231	-51.54
355.447	59.05
355.662	190.12
355.878	1013.4
356.093	-160.08
356.309	114.34
356.524	-158.03
356.74	257.7
356.955	-24.92
357.171	138.92
357.386	278.18
357.602	-96.6
357.817	7.85
358.033	-35.16
358.248	462.5
358.464	159.4
358.679	59.05
358.895	-188.75
359.11	5.8
359.325	456.36
359.541	351.91
359.756	114.34
359.972	-149.84
360.187	147.11
360.402	-4.44
360.618	-35.16
360.833	843.42
361.048	249.51
361.264	-0.34
361.479	81.58
361.694	48.81
361.909	294.57
362.125	-63.83
362.34	112.3
362.555	212.65
362.77	124.58
362.986	-0.34
363.201	13.99
363.416	276.13
363.631	50.86
363.847	65.19
364.062	13.99
364.277	341.67
364.492	241.32
364.707	42.67
364.922	-192.85
365.138	401.06
365.353	409.25
365.568	32.43
365.783	69.29
365.998	102.06
366.213	720.54
366.428	-10.58
366.643	269.99
366.858	372.39
367.073	292.52
367.288	50.86
367.503	38.57
367.718	175.78
367.933	435.88
368.148	-119.12
368.363	155.3
368.578	38.57
368.793	499.36
369.008	69.29
369.223	-24.92
369.438	261.8
369.653	556.71
369.868	-49.49
370.083	59.05
370.298	204.46
370.513	495.27
370.728	253.61
370.943	48.81
371.157	71.34
371.372	575.14
371.587	-67.92
371.802	11.95
372.017	198.31
372.232	542.37
372.446	132.78
372.661	-16.73
372.876	382.63
373.091	374.44
373.306	233.13
373.52	114.34
373.735	-4.44
373.95	425.64
374.165	237.22
374.379	136.87
374.594	34.47
374.809	212.65
375.023	321.19
375.238	18.09
375.453	349.86
375.667	-18.77
375.882	161.45
376.097	161.45
376.311	235.18
376.526	91.82
376.741	-14.68
376.955	347.81
377.17	761.5
377.384	704.16
377.599	208.55
377.813	67.24
378.028	751.26
378.242	396.96
378.457	169.64
378.672	-84.31
378.886	304.81
379.101	97.96
379.315	-55.64
379.53	110.25
379.744	265.89
379.958	360.1
380.173	104.11
380.387	198.31
380.602	364.2
380.816	138.92
381.031	128.68
381.245	153.26
381.459	380.58
381.674	2330.25
381.888	112.3
382.103	317.09
382.317	85.67
382.531	759.46
382.746	212.65
382.96	186.02
383.174	130.73
383.388	609.95
383.603	448.16
383.817	36.52
384.031	425.64
384.246	673.44
384.46	327.33
384.674	523.94
384.888	296.61
385.103	345.77
385.317	138.92
385.531	294.57
385.745	499.36
385.959	564.9
386.174	173.74
386.388	200.36
386.602	298.66
386.816	171.69
387.03	319.14
387.244	317.09
387.458	343.72
387.672	568.99
387.887	239.27
388.101	102.06
388.315	642.72
388.529	325.29
388.743	319.14
388.957	198.31
389.171	519.84
389.385	204.46
389.599	276.13
389.813	489.12
390.027	450.21
390.241	933.53
390.455	388.77
390.669	327.33
390.883	343.72
391.097	720.54
391.311	433.83
391.525	292.52
391.738	558.75
391.952	528.03
392.166	417.44
392.38	239.27
392.594	568.99
392.808	638.62
393.022	390.82
393.236	489.12
393.449	609.95
393.663	546.47
393.877	218.79
394.091	487.08
394.305	212.65
394.518	269.99
394.732	267.94
394.946	310.95
395.16	835.23
395.373	503.46
395.587	304.81
395.801	310.95
396.015	667.3
396.228	599.71
396.442	353.96
396.656	235.18
396.869	814.75
397.083	749.22
397.297	499.36
397.51	382.63
397.724	810.65
397.938	579.23
398.151	251.56
398.365	433.83
398.578	644.77
398.792	878.24
399.005	571.04
399.219	470.69
399.433	669.34
399.646	685.73
399.86	538.27
400.073	609.95
400.287	720.54
400.5	515.75
400.714	603.81
400.927	548.51
401.141	749.22
401.354	1423
401.567	775.84
401.781	439.97
401.994	814.75
402.208	1138.33
402.421	556.71
402.635	661.15
402.848	681.63
403.061	839.33
403.275	646.82
403.488	450.21
403.701	1130.14
403.915	714.4
404.128	667.3
404.341	593.57
404.555	730.78
404.768	636.58
404.981	679.58
405.195	523.94
405.408	1134.23
405.621	861.85
405.834	730.78
406.048	575.14
406.261	1054.36
406.474	1044.12
406.687	599.71
406.9	843.42
407.114	695.97
407.327	751.26
407.54	472.74
407.753	591.52
407.966	499.36
408.179	1025.69
408.392	767.65
408.605	554.66
408.819	896.67
409.032	902.81
409.245	669.34
409.458	915.1
409.671	966.3
409.884	1021.6
410.097	603.81
410.31	896.67
410.523	908.96
410.736	751.26
410.949	802.46
411.162	708.26
411.375	1302.17
411.588	1066.65
411.801	900.76
412.014	669.34
412.227	890.53
412.44	769.69
412.653	702.11
412.865	1005.21
413.078	1169.05
413.291	1013.4
413.504	833.18
413.717	810.65
413.93	1048.22
414.143	837.28
414.356	810.65
414.568	708.26
414.781	1207.96
414.994	999.07
415.207	847.52
415.42	886.43
415.632	1117.85
415.845	1334.93
416.058	859.81
416.271	814.75
416.483	1003.16
416.696	1384.09
416.909	945.82
417.121	911
417.334	1179.29
417.547	1519.25
417.759	1007.26
417.972	970.4
418.185	937.63
418.397	1326.74
418.61	894.62
418.823	925.34
419.035	1490.58
419.248	1076.89
419.46	1148.57
419.673	1154.71
419.885	1459.86
420.098	1054.36
420.311	1140.38
420.523	908.96
420.736	1287.83
420.948	1177.24
421.161	1001.12
421.373	978.59
421.586	1220.25
421.798	1070.75
422.01	935.58
422.223	1226.39
422.435	1078.94
422.648	1339.03
422.86	1162.9
423.073	1050.27
423.285	1486.48
423.497	1048.22
423.71	1287.83
423.922	1072.79
424.134	1396.37
424.347	1605.27
424.559	1343.13
424.771	1394.33
424.984	1238.68
425.196	1343.13
425.408	1003.16
425.621	1130.14
425.833	1656.47
426.045	1613.46
426.257	1177.24
426.47	1169.05
426.682	1488.53
426.894	1533.59
427.106	1302.17
427.318	1314.45
427.531	1228.44
427.743	1760.91
427.955	1300.12
428.167	1654.42
428.379	1635.99
428.591	1441.43
428.804	1599.12
429.016	1390.23
429.228	1390.23
429.44	1676.95
429.652	1621.65
429.864	1179.29
430.076	1525.4
430.288	1525.4
430.5	1515.16
430.712	1445.52
430.924	1947.28
431.136	1570.45
431.348	1322.65
431.56	1466
431.772	1547.92
431.984	1568.4
432.196	1484.44
432.408	1646.23
432.62	1603.22
432.832	1873.55
433.044	1857.17
433.256	1779.34
433.468	1844.88
433.679	1480.34
433.891	1556.11
434.103	1926.8
434.315	2057.87
434.527	1916.56
434.739	1818.25
434.95	1853.07
435.162	2102.92
435.374	1816.21
435.586	1744.53
435.798	1701.52
436.009	1703.57
436.221	1834.64
436.433	1851.02
436.645	1871.5
436.856	1873.55
437.068	2231.94
437.28	1863.31
437.491	2215.56
437.703	2111.11
437.915	2014.86
438.126	1996.43
438.338	2117.26
438.55	1881.74
438.761	2133.64
438.973	2115.21
439.184	2018.96
439.396	2117.26
439.608	2387.59
439.819	1769.1
440.031	2160.27
440.242	2217.61
440.454	2403.97
440.665	2133.64
440.877	2197.13
441.088	2307.72
441.3	2166.41
441.511	2064.01
441.723	1969.8
441.934	2305.67
442.146	2252.42
442.357	2367.11
442.569	2414.21
442.78	2268.81
442.991	2578.05
443.203	2471.56
443.414	2104.97
443.626	2653.83
443.837	2168.46
444.048	2211.46
444.26	2100.87
444.471	2307.72
444.682	2723.46
444.894	2096.78
445.105	2160.27
445.316	2670.21
445.528	2533
445.739	2449.03
445.95	2446.98
446.161	2481.8
446.373	2799.23
446.584	2457.22
446.795	2457.22
447.006	2619.01
447.217	2899.58
447.429	2350.73
447.64	2373.25
447.851	2600.58
448.062	2604.67
448.273	2356.87
448.484	2487.94
448.695	2780.8
448.907	2559.62
449.118	2502.28
449.329	2604.67
449.54	2600.58
449.751	2322.06
449.962	2483.84
450.173	2627.2
450.384	2967.17
450.595	3116.67
450.806	2629.25
451.017	2737.79
451.228	3030.65
451.439	2952.83
451.65	2604.67
451.861	2487.94
452.072	2733.7
452.283	2907.77
452.494	3018.36
452.705	2625.15
452.915	3178.11
453.126	3042.94
453.337	2737.79
453.548	2782.85
453.759	3165.82
453.97	3505.78
454.181	3063.42
454.391	3006.08
454.602	3227.26
454.813	3323.51
455.024	3178.11
455.235	3098.24
455.445	3231.35
455.656	3323.51
455.867	3169.91
456.078	3038.84
456.288	3063.42
456.499	3190.39
456.71	3200.63
456.921	3333.75
457.131	3468.92
457.342	3262.07
457.553	3378.81
457.763	3147.39
457.974	3745.39
458.184	3534.45
458.395	3309.18
458.606	3333.75
458.816	3774.07
459.027	4091.5
459.237	3655.28
459.448	3249.79
459.659	3845.74
459.869	4169.32
460.08	3462.77
460.29	3767.92
460.501	4320.87
460.711	3726.96
460.922	3501.69
461.132	3782.26
461.343	4423.27
461.553	3710.58
461.764	3802.74
461.974	3804.78
462.184	4120.17
462.395	4255.34
462.605	4079.21
462.816	3782.26
463.026	4150.89
463.236	4550.25
463.447	4011.63
463.657	4167.28
463.867	4587.11
464.078	4300.39
464.288	4210.28
464.498	4386.41
464.709	4531.81
464.919	4615.78
465.129	4380.26
465.339	4421.22
465.55	4638.31
465.76	4712.03
465.97	4443.75
466.18	4499.05
466.391	5025.37
466.601	4916.83
466.811	4791.91
467.021	4718.18
467.231	4959.84
467.441	5131.87
467.651	5011.04
467.862	4767.33
468.072	5191.26
468.282	5574.23
468.492	5045.85
468.702	5230.17
468.912	5412.44
469.122	6080.08
469.332	5709.4
469.542	5281.37
469.752	5607
469.962	5529.17
470.172	5590.61
470.382	5598.81
470.592	6002.26
470.802	6209.1
471.012	6016.59
471.222	5871.19
471.432	6157.9
471.642	6305.35
471.852	6094.41
472.062	5881.42
472.272	6180.43
472.482	6221.39
472.691	6243.92
472.901	6207.05
473.111	6676.04
473.321	7110.21
473.531	6450.76
473.741	6583.88
473.95	7003.71
474.16	6972.99
474.37	7038.53
474.58	6829.63
474.79	7413.31
474.999	7347.77
475.209	6958.66
475.419	7136.83
475.628	7212.6
475.838	7714.36
476.048	7446.07
476.258	7198.27
476.467	7986.74
476.677	7880.24
476.886	7827
477.096	8058.42
477.306	7876.15
477.515	8427.05
477.725	8068.66
477.935	8134.19
478.144	8414.76
478.354	8334.89
478.563	8556.07
478.773	8425
478.982	8834.6
479.192	9078.3
479.401	8840.74
479.611	8674.85
479.82	8775.2
480.03	8986.15
480.239	9227.81
480.449	9055.78
480.658	9807.38
480.868	9360.92
481.077	9590.3
481.287	9494.04
481.496	9567.77
481.705	10012.18
481.915	10026.51
482.124	9868.82
482.333	10026.51
482.543	10022.42
482.752	9928.21
482.961	10003.99
483.171	10389
483.38	10493.45
483.589	10487.31
483.799	10188.3
484.008	10573.32
484.217	11052.55
484.426	10612.23
484.636	10700.3
484.845	11017.73
485.054	10833.41
485.263	11021.83
485.472	11066.88
485.682	11546.11
485.891	11394.56
486.1	11054.59
486.309	11585.02
486.518	11679.22
486.727	11974.13
486.936	11476.48
487.146	11611.64
487.355	12082.67
487.564	11705.85
487.773	12013.04
487.982	12023.28
488.191	11972.08
488.4	12170.74
488.609	12223.98
488.818	12252.66
489.027	13110.75
489.236	13065.7
489.445	12496.36
489.654	12635.63
489.863	13084.13
490.072	12795.37
490.281	13137.38
490.49	12967.4
490.698	13424.09
490.907	13374.94
491.116	13143.52
491.325	13303.26
491.534	13768.15
491.743	13501.92
491.952	13741.53
492.16	13612.51
492.369	13741.53
492.578	14245.33
492.787	13778.39
492.996	13692.38
493.204	14169.55
493.413	14624.2
493.622	13895.13
493.831	13729.24
494.039	14673.35
494.248	13983.19
494.457	14357.97
494.665	14345.68
494.874	14669.26
495.083	15146.44
495.291	14587.34
495.5	14779.85
495.709	14976.45
495.917	15187.39
496.126	14962.12
496.335	14759.37
496.543	15181.25
496.752	15136.2
496.96	15123.91
497.169	15179.2
497.377	15277.51
497.586	15631.8
497.794	15607.23
498.003	15277.51
498.211	16078.26
498.42	15971.77
498.628	15885.75
498.837	15746.49
499.045	16135.6
499.254	16246.19
499.462	16031.16
499.671	15900.09
499.879	16686.51
500.087	16784.81
500.296	16178.61
500.504	16401.84
500.713	16739.76
500.921	17137.06
501.129	16416.18
501.338	16336.31
501.546	16631.21
501.754	16762.28
501.962	16774.57
502.171	16739.76
502.379	17257.89
502.587	17241.51
502.795	16995.75
503.004	16592.3
503.212	17094.05
503.42	17427.87
503.628	17229.22
503.837	17237.41
504.045	17927.58
504.253	17776.03
504.461	17558.94
504.669	17341.86
504.877	17616.29
505.085	17907.1
505.294	17313.19
505.502	17806.75
505.71	17800.6
505.918	18218.39
506.126	17808.79
506.334	17714.59
506.542	18089.37
506.75	18222.48
506.958	17991.06
507.166	18275.73
507.374	18263.44
507.582	18421.14
507.79	18210.2
507.998	18412.95
508.206	18290.07
508.414	18691.47
508.622	18529.68
508.83	18503.06
509.037	19168.65
509.245	18400.66
509.453	18449.81
509.661	18849.16
509.869	19166.6
510.077	18810.25
510.285	19209.61
510.492	18810.25
510.7	19928.44
510.908	19013
511.116	18904.46
511.324	19195.27
511.531	19479.94
511.739	19346.82
511.947	19373.44
512.155	19533.18
512.362	19393.92
512.57	19021.19
512.778	19316.1
512.985	19375.49
513.193	19809.66
513.401	19910.01
513.608	19703.17
513.816	19754.37
514.024	19846.52
514.231	20145.53
514.439	19688.83
514.646	19813.76
514.854	20399.48
515.061	19942.78
515.269	19744.13
515.477	19981.69
515.684	19973.5
515.892	20413.81
516.099	19885.44
516.307	19977.59
516.514	20602.22
516.722	20696.43
516.929	20424.05
517.136	20751.73
517.344	20700.53
517.551	20972.91
517.759	20671.86
517.966	20721.01
518.173	20682.1
518.381	21075.31
518.588	20831.6
518.796	20589.94
519.003	21523.81
519.21	21101.93
519.418	21083.5
519.625	21132.65
519.832	20845.93
520.039	21331.3
520.247	21101.93
520.454	21661.02
520.661	21820.77
520.868	21456.23
521.076	21802.33
521.283	21587.3
521.49	21972.32
521.697	21706.08
521.904	21507.43
522.112	21599.59
522.319	22502.74
522.526	22191.45
522.733	21937.5
522.94	21833.05
523.147	21927.26
523.354	22375.77
523.561	21945.69
523.768	22111.58
523.975	22560.08
524.183	22377.81
524.39	22349.14
524.597	22156.63
524.804	22664.53
525.011	22357.33
525.218	22564.18
525.425	22652.24
525.632	22990.16
525.838	22463.83
526.045	22811.98
526.252	22642
526.459	23582.02
526.666	23436.61
526.873	23123.27
527.08	22668.62
527.287	23280.97
527.494	22941
527.701	23014.73
527.907	23346.5
528.114	23504.2
528.321	23500.1
528.528	23342.41
528.735	23498.05
528.941	23665.99
529.148	23178.57
529.355	23659.84
529.562	22828.37
529.768	24042.81
529.975	23344.45
530.182	23760.19
530.388	23616.83
530.595	24245.56
530.802	23629.12
531.008	24034.62
531.215	24175.93
531.422	24937.77
531.628	24796.46
531.835	24184.12
532.042	24405.3
532.248	24927.53
532.455	24870.19
532.661	24126.78
532.868	24737.07
533.074	24671.54
533.281	24737.07
533.487	24433.97
533.694	24624.43
533.9	24835.38
534.107	24945.97
534.313	24524.08
534.52	24796.46
534.726	25185.58
534.933	25505.06
535.139	25152.81
535.345	24743.22
535.552	25670.95
535.758	25517.35
535.965	25324.84
536.171	24986.93
536.377	25793.83
536.584	26035.49
536.79	25589.03
536.996	25652.52
537.203	25945.37
537.409	25924.9
537.615	25873.7
537.821	26070.3
538.028	26393.88
538.234	26193.18
538.44	25898.27
538.646	25720.1
538.853	26250.52
539.059	26252.57
539.265	26735.89
539.471	26543.38
539.677	26615.06
539.883	26641.68
540.09	26610.96
540.296	26844.43
540.502	27077.9
540.708	26424.6
540.914	26504.47
541.12	26715.41
541.326	27178.25
541.532	27327.75
541.738	27428.1
541.944	26879.25
542.15	27507.97
542.356	27381
542.562	26989.84
542.768	27479.3
542.974	27872.51
543.18	28257.53
543.386	27170.06
543.592	27520.26
543.798	27878.66
544.004	27985.15
544.21	27835.65
544.415	27878.66
544.621	27972.86
544.827	27729.16
545.033	27536.65
545.239	28017.92
545.445	27899.14
545.651	27931.9
545.856	28060.93
546.062	28052.73
546.268	28214.52
546.474	27907.33
546.679	27849.99
546.885	27899.14
547.091	28114.17
547.297	28433.66
547.502	28265.72
547.708	27886.85
547.914	28196.09
548.119	28491
548.325	27952.38
548.531	27780.35
548.736	28687.6
548.942	28581.11
549.147	27993.34
549.353	28820.72
549.559	29142.25
549.764	28988.66
549.97	28646.65
550.175	28976.37
550.381	29189.36
550.586	28716.28
550.792	28796.15
550.997	29009.14
551.203	29252.84
551.408	29295.85
551.614	29041.9
551.819	29306.09
552.025	30004.45
552.23	30237.92
552.435	29703.4
552.641	30311.64
552.846	29644.01
553.052	30065.89
553.257	29664.49
553.462	29996.26
553.668	29502.7
553.873	30184.67
554.078	29562.09
554.283	30059.74
554.489	30733.53
554.694	30655.7
554.899	30221.53
555.105	30383.32
555.31	30715.09
555.515	30573.78
555.72	30637.27
555.925	30223.58
556.131	30735.57
556.336	30444.76
556.541	30811.35
556.746	30596.31
556.951	30553.3
557.156	30819.54
557.361	30856.4
557.567	30794.96
557.772	30856.4
557.977	30897.36
558.182	30696.66
558.387	31261.9
558.592	30926.03
558.797	31091.92
559.002	31302.86
559.207	30966.99
559.412	30987.47
559.617	31294.67
559.822	31689.93
560.027	31014.1
560.232	31409.36
560.437	31825.09
560.642	31411.4
560.847	31063.25
561.051	31513.8
561.256	31241.42
561.461	31626.44
561.666	31362.25
561.871	31786.18
562.076	31534.28
562.281	31421.64
562.485	31081.68
562.69	31700.17
562.895	31526.09
563.1	31546.57
563.305	31616.2
563.509	31939.78
563.714	32367.8
563.919	31724.74
564.123	31608.01
564.328	31909.06
564.533	32097.47
564.737	31671.5
564.942	31900.87
565.147	32591.03
565.351	32607.42
565.556	32269.5
565.761	32093.38
565.965	32214.21
566.17	32126.14
566.374	32146.62
566.579	32216.26
566.784	32066.75
566.988	32554.17
567.193	32099.52
567.397	31999.17
567.602	32421.05
567.806	32062.66
568.011	32457.92
568.215	32969.91
568.42	32615.61
568.624	32855.22
568.828	32296.13
569.033	32414.91
569.237	32918.71
569.442	32976.05
569.646	32468.16
569.85	32869.56
570.055	33240.24
570.259	33287.34
570.463	33432.75
570.668	33213.62
570.872	32969.91
571.076	33361.07
571.281	32928.95
571.485	33246.38
571.689	33469.61
571.893	33438.89
572.098	33488.04
572.302	33631.4
572.506	33805.48
572.71	33348.78
572.914	33674.41
573.119	33844.39
573.323	34233.5
573.527	34116.77
573.731	33682.6
573.935	33852.58
574.139	33952.93
574.343	33666.22
574.547	33330.35
574.751	34069.67
574.955	34540.7
575.159	34145.44
575.364	33580.2
575.568	33612.97
575.772	34006.18
575.976	34514.08
576.18	33873.06
576.383	34333.85
576.587	34301.09
576.791	34618.52
576.995	34323.61
577.199	34112.67
577.403	34548.89
577.607	35005.59
577.811	34843.8
578.015	34720.92
578.219	35052.69
578.422	34815.13
578.626	34690.2
578.83	34655.39
579.034	35069.08
579.238	34997.4
579.442	34872.47
579.645	35103.89
579.849	34874.52
580.053	35517.58
580.257	34778.26
580.46	35363.98
580.664	35423.37
580.868	35452.05
581.071	35427.47
581.275	35048.6
581.479	34960.53
581.682	35142.8
581.886	34872.47
582.09	35267.73
582.293	35662.99
582.497	35654.79
582.7	35550.35
582.904	35544.2
583.107	35568.78
583.311	35576.97
583.515	35605.64
583.718	35439.76
583.922	35884.17
584.125	36224.13
584.329	35460.24
584.532	35972.23
584.735	36127.88
584.939	36238.47
585.142	35482.77
585.346	35327.12
585.549	36353.15
585.753	35982.47
585.956	36201.6
586.159	36195.46
586.363	36914.3
586.566	36500.61
586.769	36191.36
586.973	35861.64
587.176	36127.88
587.379	36437.12
587.582	36750.46
587.786	36183.17
587.989	36701.31
588.192	36926.58
588.395	36357.25
588.599	36621.44
588.802	36881.53
589.005	37026.93
589.208	36869.24
589.411	37004.41
589.615	36957.3
589.818	37905.51
590.021	37244.02
590.224	37201.01
590.427	37600.36
590.63	37454.96
590.833	37112.95
591.036	37350.51
591.239	37715.05
591.442	37414
591.645	37545.07
591.848	37504.11
592.051	38030.44
592.254	37405.81
592.457	37770.35
592.66	38110.31
592.863	37966.95
593.066	38220.9
593.269	38075.49
593.472	38147.17
593.675	38532.19
593.878	38012.01
594.081	38102.12
594.284	37997.67
594.486	38204.52
594.689	38587.49
594.892	37991.53
595.095	38243.43
595.298	38175.84
595.5	38315.11
595.703	38487.14
595.906	38446.18
596.109	38507.62
596.311	39048.28
596.514	37882.98
596.717	38790.23
596.92	39076.95
597.122	39306.32
597.325	38016.1
597.528	38521.95
597.73	39142.49
597.933	38788.19
598.136	38720.6
598.338	38644.83
598.541	38995.03
598.743	39302.23
598.946	38784.09
599.148	39177.3
599.351	39441.49
599.554	39789.64
599.756	39048.28
599.959	39470.16
600.161	39509.07
600.363	40301.64
600.566	39162.97
600.768	39545.94
600.971	39773.26
601.173	39717.96
601.376	39461.97
601.578	39353.43
601.78	39734.35
601.983	40270.92
602.185	39228.5
602.388	39576.65
602.59	40154.18
602.792	39683.15
602.995	39957.58
603.197	39373.91
603.399	40021.06
603.601	40123.46
603.804	39634
604.006	39838.79
604.208	39634
604.41	39634
604.613	39867.47
604.815	39623.76
605.017	40168.52
605.219	39625.81
605.421	39744.59
605.623	39889.99
605.826	40760.38
606.028	40256.58
606.23	40098.89
606.432	40283.2
606.634	41165.88
606.836	40348.74
607.038	39906.38
607.24	40258.63
607.442	39642.19
607.644	40602.69
607.846	39865.42
608.048	40444.99
608.25	40401.99
608.452	39810.12
608.654	40162.37
608.856	40004.68
609.058	40928.31
609.26	40657.98
609.462	40488
609.664	40551.49
609.866	40465.47
610.067	40662.08
610.269	40754.24
610.471	40522.82
610.673	40651.84
610.875	40834.11
611.077	40354.88
611.278	40469.57
611.48	40440.9
611.682	41153.59
611.884	41030.71
612.085	40365.12
612.287	40813.63
612.489	40678.46
612.69	40657.98
612.892	40903.74
613.094	41497.65
613.295	40873.02
613.497	40533.06
613.699	40485.95
613.9	41729.07
614.102	41219.13
614.304	41190.45
614.505	40465.47
614.707	40715.33
614.908	41108.54
615.11	40770.62
615.311	41419.83
615.513	40987.71
615.714	41432.11
615.916	40870.97
616.117	41124.92
616.319	40793.15
616.52	41231.41
616.722	40811.58
616.923	41098.3
617.124	41354.29
617.326	40670.27
617.527	40627.26
617.729	41032.76
617.93	41139.25
618.131	41294.9
618.333	40559.68
618.534	40893.5
618.735	41233.46
618.937	41532.46
619.138	41083.96
619.339	40846.4
619.54	41602.1
619.742	41366.58
619.943	41342
620.144	41198.65
620.345	41704.49
620.546	41389.11
620.748	40975.42
620.949	40999.99
621.15	41708.59
621.351	41401.39
621.552	41098.3
621.753	40770.62
621.954	41098.3
622.155	41385.01
622.356	40608.83
622.558	41088.06
622.759	41557.04
622.96	41458.74
623.161	41294.9
623.362	40592.45
623.563	41182.26
623.764	41382.96
623.965	41212.98
624.166	41706.54
624.366	40852.54
624.567	41124.92
624.768	41380.92
624.969	41583.66
625.17	41477.17
625.371	41870.38
625.572	41212.98
625.773	41258.04
625.973	41686.06
626.174	41870.38
626.375	41759.79
626.576	41651.25
626.777	41315.38
626.977	41810.99
627.178	41258.04
627.379	41536.56
627.58	41315.38
627.78	42112.04
627.981	41702.45
628.182	42093.61
628.382	41886.76
628.583	41471.03
628.784	41522.23
628.984	41387.06
629.185	42083.37
629.386	41874.48
629.586	41708.59
629.787	41602.1
629.987	42099.75
630.188	42083.37
630.388	42083.37
630.589	41743.41
630.79	42187.81
630.99	41810.99
631.191	42419.24
631.391	41915.44
631.591	41933.87
631.792	42083.37
631.992	42140.71
632.193	42071.08
632.393	42208.29
632.594	41929.77
632.794	42247.21
632.994	42363.94
633.195	42519.59
633.395	42105.9
633.595	41987.11
633.796	42583.07
633.996	42122.28
634.196	42583.07
634.397	42480.67
634.597	42380.32
634.797	42452
634.997	42746.91
635.198	42478.63
635.398	41841.71
635.598	42658.85
635.798	42185.77
635.998	42322.98
636.199	42376.23
636.399	42130.47
636.599	42165.29
636.799	42269.73
636.999	42095.66
637.199	42773.53
637.399	42824.73
637.599	42501.15
637.799	42474.53
637.999	42834.97
638.199	43097.11
638.399	42198.05
638.599	42179.62
638.799	42257.45
638.999	42998.81
639.199	42697.76
639.399	42755.1
639.599	42951.71
639.799	42173.48
639.999	42839.07
640.199	42441.76
640.399	42990.62
640.599	41880.62
640.799	43215.9
640.998	43314.2
641.198	43183.13
641.398	43189.27
641.598	43013.15
641.798	43344.92
641.997	43787.28
642.197	43037.72
642.397	42970.14
642.597	43033.63
642.796	42804.25
642.996	43246.61
643.196	42714.14
643.395	42828.83
643.595	43181.08
643.795	42646.56
643.994	42646.56
644.194	43164.7
644.394	43746.32
644.593	43459.6
644.793	43082.78
644.992	43002.91
645.192	44073.99
645.392	43435.03
645.591	43578.39
645.791	43445.27
645.99	43420.69
646.19	43291.67
646.389	43787.28
646.589	43191.32
646.788	43566.1
646.987	43662.35
647.187	43764.75
647.386	43541.52
647.586	44102.67
647.785	44016.65
647.984	43576.34
648.184	44033.03
648.383	43643.92
648.582	44164.1
648.782	44203.02
648.981	43914.25
649.18	43287.57
649.38	44106.76
649.579	43365.4
649.778	43303.96
649.977	43895.82
650.177	43783.18
650.376	43738.13
650.575	43246.61
650.774	44123.15
650.973	43410.45
651.173	43340.82
651.372	43594.77
651.571	43828.24
651.77	43832.33
651.969	43686.93
652.168	43414.55
652.367	43340.82
652.566	43879.44
652.765	43607.06
652.964	44286.98
653.163	43811.85
653.362	44532.74
653.561	43514.9
653.76	43682.83
653.959	43252.76
654.158	44594.18
654.357	43865.1
654.556	43144.22
654.755	43873.29
654.954	44160.01
655.153	43682.83
655.352	44141.58
655.551	44766.21
655.749	43967.5
655.948	44565.51
656.147	43697.17
656.346	43840.53
656.545	43795.47
656.743	43418.64
656.942	44037.13
657.141	44231.69
657.34	44063.75
657.538	44098.57
657.737	43889.68
657.936	44276.74
658.135	44383.24
658.333	44211.21
658.532	44231.69
658.731	44368.9
658.929	44758.02
659.128	43756.56
659.326	43803.66
659.525	44344.33
659.724	44213.26
659.922	43791.37
660.121	43963.4
660.319	44112.91
660.518	43975.69
660.716	44145.67
660.915	44743.68
661.113	44866.56
661.312	44258.31
661.51	44248.07
661.709	44436.48
661.907	44160.01
662.105	44995.58
662.304	44418.05
662.502	44680.19
662.701	45683.7
662.899	44542.98
663.097	44848.13
663.296	44450.82
663.494	44971
663.692	44520.45
663.891	44420.1
664.089	43910.16
664.287	44368.9
664.485	44565.51
664.684	44463.11
664.882	44172.3
665.08	44030.99
665.278	44762.11
665.476	43779.09
665.675	44291.08
665.873	44557.31
666.071	44254.22
666.269	44057.61
666.467	44045.32
666.665	44459.01
666.863	44043.27
667.061	44719.1
667.259	44719.1
667.457	44923.9
667.655	44520.45
667.853	44475.4
668.051	44295.17
668.249	44268.55
668.447	44563.46
668.645	43928.59
668.843	44663.81
669.041	44526.6
669.239	44624.9
669.437	44626.95
669.635	44653.57
669.833	43992.08
670.031	44647.43
670.229	44106.76
670.426	44579.84
670.624	44504.07
670.822	43953.16
671.02	44194.82
671.218	44499.97
671.415	44235.78
671.613	44387.33
671.811	44430.34
672.009	43926.54
672.206	44583.94
672.404	44180.49
672.602	44250.12
672.799	44190.73
672.997	44747.78
673.195	44516.36
673.392	44082.19
673.59	43598.87
673.788	44141.58
673.985	43746.32
674.183	44108.81
674.38	44295.17
674.578	44028.94
674.775	43969.55
674.973	43729.94
675.17	43863.05
675.368	43766.8
675.565	44196.87
675.763	43975.69
675.96	44370.95
676.158	44049.42
676.355	43844.62
676.553	44528.64
676.75	43803.66
676.947	44409.86
677.145	44385.29
677.342	44340.23
677.539	43514.9
677.737	43598.87
677.934	44098.57
678.131	43441.17
678.329	43594.77
678.526	43645.97
678.723	43426.84
678.92	43789.33
679.118	43217.94
679.315	43529.23
679.512	44250.12
679.709	43697.17
679.906	43320.34
680.104	43750.42
680.301	43811.85
680.498	43435.03
680.695	43570.19
680.892	43422.74
681.089	43828.24
681.286	43705.36
681.483	42865.69
681.68	43699.22
681.877	43953.16
682.075	43213.85
682.272	43125.78
682.469	43623.44
682.665	43435.03
682.862	42949.66
683.059	43101.21
683.256	43617.3
683.453	43289.62
683.65	43346.97
683.847	43351.06
684.044	43369.49
684.241	43074.59
684.438	43406.36
684.635	42873.88
684.831	43494.42
685.028	43607.06
685.225	43000.86
685.422	42722.33
685.619	43183.13
685.815	42722.33
686.012	42800.16
686.209	42691.62
686.405	42712.09
686.602	43387.92
686.799	42751.01
686.996	43189.27
687.192	42882.08
687.389	43004.95
687.586	42710.05
687.782	43150.36
687.979	43445.27
688.175	43107.35
688.372	42583.07
688.568	42775.58
688.765	42904.6
688.962	42867.74
689.158	42765.34
689.355	42683.42
689.551	43017.24
689.748	42685.47
689.944	42343.46
690.14	42310.69
690.337	42273.83
690.533	42003.5
690.73	42026.03
690.926	42521.63
691.123	42091.56
691.319	42044.46
691.515	42460.19
691.712	42163.24
691.908	42216.49
692.104	42271.78
692.301	41825.32
692.497	41593.9
692.693	42372.13
692.889	42042.41
693.086	41942.06
693.282	41477.17
693.478	41831.47
693.674	42828.83
693.87	41692.21
694.067	41333.81
694.263	42015.79
694.459	42017.83
694.655	41907.24
694.851	41972.78
695.047	41948.2
695.243	42296.36
695.439	42009.64
695.635	41810.99
695.831	42054.7
696.027	41673.77
696.224	41505.84
696.42	41929.77
696.615	42271.78
696.811	42386.47
697.007	41600.05
697.203	41679.92
697.399	41874.48
697.595	42009.64
697.791	41505.84
697.987	41929.77
698.183	41606.19
698.379	41292.85
698.575	41569.33
698.77	41401.39
698.966	41774.13
699.162	41804.84
699.358	41595.95
699.554	41110.58
699.749	41878.57
699.945	41616.43
700.141	41112.63
700.337	41503.79
700.532	41169.97
700.728	41118.78
700.924	40731.71
701.119	40827.96
701.315	41096.25
701.511	40778.81
701.706	41258.04
701.902	40903.74
702.097	40977.47
702.293	41405.49
702.489	41026.62
702.684	40913.98
702.88	41161.78
703.075	41034.81
703.271	40703.04
703.466	40866.88
703.662	40770.62
703.857	41067.58
704.053	40961.08
704.248	40625.21
704.443	41165.88
704.639	41264.18
704.834	40830.01
705.03	40748.09
705.225	41231.41
705.42	41036.86
705.616	41100.34
705.811	40444.99
706.006	40457.28
706.202	40617.02
706.397	40578.11
706.592	40432.71
706.787	40148.04
706.983	40782.91
707.178	41108.54
707.373	40612.93
707.568	40379.46
707.763	40518.72
707.959	40545.34
708.154	40651.84
708.349	40049.74
708.544	40299.59
708.739	40383.55
708.934	39709.77
709.129	40549.44
709.324	40227.91
709.519	40285.25
709.714	40043.59
709.909	40666.17
710.104	40416.32
710.299	40217.67
710.494	40533.06
710.689	40666.17
710.884	40232
711.079	40363.07
711.274	39734.35
711.469	40885.31
711.664	40033.35
711.859	40309.83
712.054	40494.14
712.249	40019.02
712.443	40723.52
712.638	40049.74
712.833	39787.6
713.028	40158.28
713.223	39599.18
713.417	40105.03
713.612	40232
713.807	40690.75
714.002	40678.46
714.196	40457.28
714.391	40004.68
714.586	40295.49
714.78	39885.9
714.975	40010.82
715.17	39699.53
715.364	40313.92
715.559	40485.95
715.754	39328.85
715.948	39273.56
716.143	40191.05
716.337	39601.23
716.532	39980.1
716.726	39345.23
716.921	39588.94
717.115	39914.57
717.31	39531.6
717.504	40055.88
717.699	39578.7
717.893	39134.29
718.088	39218.26
718.282	39029.85
718.476	39271.51
718.671	39158.87
718.865	39169.11
719.059	38739.04
719.254	39232.6
719.448	39230.55
719.642	39162.97
719.837	38374.5
720.031	38921.3
720.225	38491.23
720.419	38722.65
720.614	38589.53
720.808	39304.27
721.002	38657.12
721.196	38915.16
721.39	38585.44
721.585	38859.87
721.779	38736.99
721.973	38442.08
722.167	38012.01
722.361	38650.97
722.555	39183.44
722.749	37989.48
722.943	38489.18
723.137	38261.86
723.331	38462.56
723.525	38087.78
723.719	38138.98
723.913	38401.12
724.107	38366.31
724.301	38450.27
724.495	38282.34
724.689	38704.22
724.883	38644.83
725.077	38419.55
725.271	38427.74
725.465	38734.94
725.659	38784.09
725.853	38181.99
726.046	38448.22
726.24	37672.04
726.434	37749.87
726.628	38249.57
726.822	38716.51
727.015	39130.2
727.209	38050.92
727.403	38177.89
727.596	37880.94
727.79	38618.21
727.984	38982.74
728.177	38511.71
728.371	38585.44
728.565	38544.48
728.758	38235.24
728.952	38472.8
729.146	38136.93
729.339	38900.83
729.533	38519.9
729.726	38050.92
729.92	38075.49
730.113	38734.94
730.307	38306.91
730.5	37772.39
730.694	38184.04
730.887	38286.43
731.081	38581.34
731.274	38368.35
731.468	38106.21
731.661	38517.85
731.854	38116.45
732.048	38270.05
732.241	38220.9
732.435	38610.01
732.628	38122.6
732.821	37930.09
733.014	38315.11
733.208	38339.68
733.401	38069.35
733.594	37690.48
733.788	38255.71
733.981	38360.16
734.174	37825.64
734.367	37463.15
734.56	37987.43
734.754	37899.37
734.947	38519.9
735.14	37917.8
735.333	38364.26
735.526	38464.61
735.719	37690.48
735.912	37672.04
736.105	37958.76
736.298	38321.25
736.491	37756.01
736.684	37610.6
736.877	37827.69
737.07	37991.53
737.263	38270.05
737.456	38186.08
737.649	38167.65
737.842	38429.79
738.035	38380.64
738.228	38046.82
738.421	38048.87
738.614	38462.56
738.807	38485.09
739	37618.8
739.192	37676.14
739.385	37925.99
739.578	38268
739.771	38175.84
739.964	37858.41
740.156	38016.1
740.349	38061.16
740.542	38294.63
740.735	37622.89
740.927	37831.79
741.12	37946.47
741.313	37860.46
741.505	38327.39
741.698	37850.22
741.891	37815.4
742.083	37905.51
742.276	37835.88
742.468	38044.77
742.661	37684.33
742.854	37604.46
743.046	37506.16
743.239	38112.36
743.431	38136.93
743.624	37846.12
743.816	37233.78
744.009	37979.24
744.201	37717.1
744.393	37454.96
744.586	37190.77
744.778	37225.59
744.971	37059.7
745.163	37393.52
745.355	37467.25
745.548	37203.06
745.74	36668.54
745.932	37424.24
746.125	37438.58
746.317	37973.1
746.509	37151.86
746.702	37350.51
746.894	36940.92
747.086	36793.47
747.278	37352.56
747.471	36940.92
747.663	36928.63
747.855	37176.44
748.047	37751.91
748.239	37254.26
748.431	37291.12
748.623	37794.92
748.815	36967.54
749.008	37031.03
749.2	37033.08
749.392	37317.75
749.584	36785.27
749.776	37209.2
749.968	37389.42
750.16	37887.08
750.352	36627.58
750.544	36449.41
750.736	36404.35
750.928	36512.89
751.12	36351.1
751.311	36336.77
751.503	37071.99
751.695	36793.47
751.887	36359.3
752.079	36314.24
752.271	36242.56
752.463	37500.01
752.654	36818.04
752.846	36148.36
753.038	35996.81
753.23	36246.66
753.421	36402.3
753.613	35736.71
753.805	36738.17
753.997	36320.38
754.188	36324.48
754.38	36428.93
754.572	35937.41
754.763	36320.38
754.955	36033.67
755.146	35548.3
755.338	35714.19
755.53	35677.32
755.721	35902.6
755.913	35556.49
756.104	35611.79
756.296	35622.03
756.487	36109.44
756.679	35796.1
756.87	35738.76
757.062	35742.86
757.253	35933.32
757.445	35339.41
757.636	35222.67
757.827	35269.78
758.019	35892.36
758.21	34952.34
758.401	35183.76
758.593	35460.24
758.784	35181.71
758.975	34800.79
759.167	34321.57
759.358	35366.03
759.549	35568.78
759.74	35194
759.932	34718.87
760.123	35200.15
760.314	34673.82
760.505	34841.75
760.696	34735.26
760.888	35458.19
761.079	34679.96
761.27	34819.22
761.461	34751.64
761.652	34882.71
761.843	34215.07
762.034	34851.99
762.225	34442.4
762.416	34413.73
762.607	34286.75
762.798	34290.85
762.989	34215.07
763.18	35396.75
763.371	34090.15
763.562	34497.69
763.753	33977.51
763.944	34362.53
764.135	34385.05
764.326	34239.65
764.517	33858.73
764.708	34190.5
764.899	33815.72
765.089	33692.84
765.28	33649.83
765.471	34223.26
765.662	33744.04
765.853	33830.05
766.043	33631.4
766.234	33916.07
766.425	33850.53
766.615	33297.58
766.806	33514.67
766.997	34223.26
767.187	33541.29
767.378	33459.37
767.569	33207.47
767.759	33748.14
767.95	33926.31
768.141	33553.58
768.331	33178.8
768.522	33240.24
768.712	33682.6
768.903	33320.11
769.093	33526.96
769.284	33797.29
769.474	33744.04
769.665	32531.64
769.855	32812.21
770.046	32965.81
770.236	33082.55
770.426	32914.61
770.617	32730.3
770.807	32814.26
770.998	32793.78
771.188	32459.96
771.378	32457.92
771.569	32931
771.759	32894.13
771.949	32517.31
772.139	32183.49
772.33	32718.01
772.52	33017.01
772.71	32160.96
772.9	31966.4
773.09	32990.39
773.281	32957.62
773.471	31958.21
773.661	31880.39
773.851	32058.56
774.041	31763.65
774.231	31775.94
774.421	32146.62
774.611	31988.93
774.802	31587.53
774.992	31599.82
775.182	31868.1
775.372	31720.65
775.562	32105.66
775.752	31833.28
775.942	31978.69
776.131	32634.04
776.321	31624.39
776.511	31544.52
776.701	31370.44
776.891	31544.52
777.081	31524.04
777.271	31345.87
777.461	31429.84
777.651	31370.44
777.84	31517.9
778.03	31429.84
778.22	31114.45
778.41	31589.58
778.599	31311.05
778.789	31395.02
778.979	30776.53
779.169	31337.68
779.358	31057.1
779.548	30921.94
779.738	30387.42
779.927	30999.76
780.117	30571.74
780.307	30581.98
780.496	30346.46
780.686	31141.07
780.875	31167.7
781.065	30952.66
781.254	30620.89
781.444	30516.44
781.633	30616.79
781.823	30209.25
782.012	30309.6
782.202	30235.87
782.391	30401.75
782.581	30190.81
782.77	30594.26
782.96	30475.48
783.149	30375.13
783.338	30575.83
783.528	30194.91
783.717	30729.43
783.906	30717.14
784.096	30129.37
784.285	30672.09
784.474	30180.57
784.663	29844.71
784.853	30270.68
785.042	29770.98
785.231	30002.4
785.42	30420.19
785.61	30098.66
785.799	29596.9
785.988	29715.69
786.177	29517.03
786.366	29275.37
786.555	29625.57
786.744	29779.17
786.933	29312.24
787.122	29263.08
787.312	29797.6
787.501	29488.36
787.69	29703.4
787.879	29517.03
788.068	29433.07
788.257	28945.65
788.445	29084.91
788.634	29715.69
788.823	29277.42
789.012	30188.77
789.201	29574.38
789.39	29070.58
789.579	28753.14
789.768	28955.89
789.957	29402.35
790.145	29054.19
790.334	28843.25
790.523	28798.2
790.712	29062.38
790.9	28880.11
791.089	28570.87
791.278	29056.24
791.467	28923.12
791.655	29277.42
791.844	29162.73
792.033	28812.53
792.221	28382.46
792.41	28378.36
792.599	27929.86
792.787	29172.97
792.976	29209.84
793.164	28792.05
793.353	28669.17
793.541	28941.55
793.73	28794.1
793.918	28298.49
794.107	28271.87
794.295	28239.1
794.484	28454.14
794.672	28081.41
794.861	28194.04
795.049	28654.84
795.238	28708.08
795.426	28249.34
795.614	28167.42
795.803	28402.94
795.991	28513.53
796.179	28445.94
796.368	28022.02
796.556	28484.86
796.744	27845.89
796.932	27878.66
797.121	27469.06
797.309	28036.35
797.497	28392.7
797.685	28110.08
797.874	28263.68
798.062	28300.54
798.25	28054.78
798.438	27778.31
798.626	27647.24
798.814	27788.55
799.002	28085.5
799.19	27981.06
799.378	27383.05
799.566	28306.68
799.755	27886.85
799.943	27204.88
800.131	27661.57
800.318	27796.74
800.506	27874.56
800.694	27462.92
800.882	27620.61
801.07	28077.31
801.258	27741.44
801.446	27905.28
801.634	27639.04
801.822	27702.53
802.01	27710.72
802.197	27981.06
802.385	27985.15
802.573	27970.82
802.761	27671.81
802.949	28065.02
803.136	27733.25
803.324	28132.61
803.512	27639.04
803.699	27970.82
803.887	27579.65
804.075	28560.63
804.262	27780.35
804.45	27788.55
804.638	27731.2
804.825	27831.55
805.013	27905.28
805.201	27811.07
805.388	27540.74
805.576	27954.43
805.763	28423.42
805.951	27727.11
806.138	27979.01
806.326	28513.53
806.513	27962.62
806.701	28153.09
806.888	27657.48
807.075	28232.96
807.263	28173.56
807.45	27882.75
807.638	27839.75
807.825	28394.75
808.012	28415.23
808.2	27884.8
808.387	28005.63
808.574	28247.29
808.761	28239.1
808.949	27743.49
809.136	28187.9
809.323	28017.92
809.51	28310.78
809.698	27981.06
809.885	28075.26
810.072	28314.87
810.259	28216.57
810.446	27849.99
810.633	27860.23
810.82	28441.85
811.008	28538.1
811.195	28312.83
811.382	28321.02
811.569	28056.83
811.756	27796.74
811.943	28265.72
812.13	27950.34
812.317	27684.1
812.504	28030.21
812.691	28263.68
812.878	27817.22
813.064	28189.95
813.251	27868.42
813.438	28038.4
813.625	27876.61
813.812	27397.38
813.999	28267.77
814.186	28038.4
814.372	28095.74
814.559	27860.23
814.746	28167.42
814.933	28056.83
815.12	28386.55
815.306	28091.65
815.493	27944.19
815.68	28226.81
815.866	28007.68
816.053	28495.1
816.24	28587.25
816.426	28155.13
816.613	28163.32
816.799	28300.54
816.986	28470.52
817.173	27952.38
817.359	27704.58
817.546	27788.55
817.732	27632.9
817.919	27682.05
818.105	28321.02
818.292	28067.07
818.478	28548.34
818.665	28108.03
818.851	28159.23
819.037	28587.25
819.224	27940.1
819.41	27315.47
819.597	27110.67
819.783	28060.93
819.969	28110.08
820.156	27745.54
820.342	27548.93
820.528	28542.2
820.714	28058.88
820.901	28046.59
821.087	27393.29
821.273	28361.98
821.459	27473.16
821.646	27667.72
821.832	27571.46
822.018	28148.99
822.204	27530.5
822.39	27938.05
822.576	27489.54
822.762	27831.55
822.948	27485.45
823.134	27352.33
823.32	27323.66
823.507	27493.64
823.693	27442.44
823.879	27409.67
824.065	27172.11
824.25	27383.05
824.436	26737.94
824.622	26881.3
824.808	27159.82
824.994	27362.57
825.18	26719.51
825.366	27073.81
825.552	26934.54
825.738	27239.69
825.923	27317.51
826.109	27247.88
826.295	26869.01
826.481	26842.39
826.667	27225.36
826.852	27430.15
827.038	27215.12
827.224	27614.47
827.409	27297.03
827.595	27079.95
827.781	27061.52
827.966	27047.18
828.152	27075.85
828.338	26754.32
828.523	26164.51
828.709	26346.78
828.894	26565.91
829.08	26311.96
829.266	26010.91
829.451	26254.62
829.637	26592.53
829.822	26461.46
830.008	25881.89
830.193	26653.97
830.378	26955.02
830.564	26365.21
830.749	26502.42
830.935	26615.06
831.12	26293.53
831.305	26203.42
831.491	26012.96
831.676	26350.87
831.861	26582.29
832.047	26146.08
832.232	26025.25
832.417	26361.11
832.602	26324.25
832.788	25775.39
832.973	26043.68
833.158	26098.97
833.343	25693.47
833.528	26295.58
833.714	26129.69
833.899	26201.37
834.084	26750.23
834.269	26541.33
834.454	25840.93
834.639	26256.67
834.824	25928.99
835.009	25976.09
835.194	26154.27
835.379	26082.59
835.564	25926.94
835.749	25281.83
835.934	25525.54
836.119	25580.84
836.304	26019.1
836.489	25474.34
836.674	25722.15
836.859	25290.02
837.044	25980.19
837.228	25736.48
837.413	25388.33
837.598	26098.97
837.783	25627.94
837.968	25787.68
838.152	25363.75
838.337	25255.21
838.522	25500.97
838.707	25847.07
838.891	25351.46
839.076	25191.72
839.261	25863.46
839.445	25576.74
839.63	25437.48
839.815	25523.49
839.999	25228.59
840.184	24921.39
840.368	24823.09
840.553	25187.63
840.737	25466.15
840.922	25085.23
841.106	24810.8
841.291	24540.47
841.475	24970.54
841.66	24651.06
841.844	24329.53
842.029	25343.27
842.213	24716.59
842.397	24507.7
842.582	24616.24
842.766	25107.76
842.951	24663.35
843.135	24771.89
843.319	24667.44
843.504	24796.46
843.688	24941.87
843.872	24075.58
844.056	24591.67
844.241	24945.97
844.425	24431.93
844.609	24345.91
844.793	24024.38
844.977	24476.98
845.161	24149.31
845.346	23973.18
845.53	23915.84
845.714	24216.89
845.898	24370.49
846.082	23543.11
846.266	23844.16
846.45	23819.58
846.634	24128.83
846.818	23934.27
847.002	24149.31
847.186	24083.77
847.37	23883.07
847.554	23731.52
847.738	23672.13
847.922	23958.85
848.106	24307
848.29	23360.84
848.473	23876.93
848.657	23571.78
848.841	23649.6
849.025	23428.42
849.209	23321.93
849.392	23665.99
849.576	23618.88
849.76	22992.2
849.944	23674.18
850.127	24073.53
850.311	23414.09
850.495	23242.06
850.678	22977.87
850.862	23471.43
851.046	23391.56
851.229	23213.38
851.413	23108.94
851.596	23070.03
851.78	22938.96
851.964	23215.43
852.147	22969.68
852.331	23653.7
852.514	23274.82
852.698	23174.47
852.881	22605.14
853.065	23311.69
853.248	23063.88
853.431	23084.36
853.615	23084.36
853.798	23528.77
853.982	23065.93
854.165	22787.41
854.348	22771.02
854.532	23002.44
854.715	23102.79
854.898	22809.93
855.081	22848.85
855.265	23453
855.448	23098.7
855.631	22482.26
855.814	22527.31
855.997	23037.26
856.181	22512.98
856.364	22490.45
856.547	22490.45
856.73	22719.82
856.913	22469.97
857.096	22398.29
857.279	22373.72
857.462	22166.87
857.645	22945.1
857.828	22381.91
858.011	22166.87
858.194	21861.73
858.377	22355.29
858.56	22021.47
858.743	22095.19
858.926	21640.54
859.109	22287.7
859.292	21912.92
859.475	21871.96
859.658	22033.75
859.841	22105.43
860.023	21474.66
860.206	21378.4
860.389	21781.85
860.572	22146.39
860.755	21685.6
860.937	21871.96
861.12	21871.96
861.303	21751.13
861.486	21718.37
861.668	21581.15
861.851	21755.23
862.034	21824.86
862.216	21837.15
862.399	21056.87
862.581	21149.03
862.764	21710.18
862.947	21083.5
863.129	20915.56
863.312	20956.52
863.494	21572.96
863.677	21005.67
863.859	20696.43
864.042	21060.97
864.224	21497.19
864.406	20598.13
864.589	20608.37
864.771	20977
864.954	20632.94
865.136	20827.5
865.318	19977.59
865.501	20831.6
865.683	20639.09
865.865	20815.21
866.048	20604.27
866.23	20530.55
866.412	20647.28
866.594	20366.71
866.777	20546.93
866.959	20870.51
867.141	20608.37
867.323	20512.11
867.505	20166.01
867.687	20383.09
867.869	20602.22
868.052	20321.65
868.234	20288.89
868.416	20364.66
868.598	20542.83
868.78	20243.83
868.962	19948.92
869.144	20462.96
869.326	20616.56
869.508	20079.99
869.69	19914.11
869.872	20118.9
870.054	20626.8
870.236	19737.98
870.417	20319.6
870.599	20178.29
870.781	20614.51
870.963	20315.51
871.145	19944.83
871.327	20069.75
871.508	20510.07
871.69	20350.32
871.872	20282.74
872.054	20403.57
872.235	20446.58
872.417	20147.58
872.599	19713.41
872.78	20639.09
872.962	19996.03
873.144	19758.46
873.325	19887.48
873.507	20649.33
873.689	19953.02
873.87	19459.46
874.052	19957.11
874.233	20114.81
874.415	20147.58
874.596	20231.54
874.778	19666.3
874.959	20196.73
875.141	20413.81
875.322	20096.38
875.503	20034.94
875.685	20675.95
875.866	19977.59
876.048	20454.77
876.229	20305.27
876.41	20151.67
876.592	20761.97
876.773	20106.62
876.954	20155.77
877.136	20696.43
877.317	20424.05
877.498	20159.86
877.679	20376.95
877.86	20600.18
878.042	20381.04
878.223	19938.68
878.404	20159.86
878.585	20194.68
878.766	20821.36
878.947	20493.68
879.128	20419.96
879.309	20733.29
879.49	20856.17
879.672	20483.44
879.853	20329.84
880.034	20163.96
880.215	20753.77
880.396	20757.87
880.576	20569.46
880.757	20389.24
880.938	20970.86
881.119	20499.83
881.3	20700.53
881.481	21036.39
881.662	21532
881.843	20583.79
882.023	20508.02
882.204	20974.95
882.385	20911.47
882.566	20596.08
882.747	20473.2
882.927	20452.72
883.108	20927.85
883.289	20407.67
883.469	20655.47
883.65	20684.14
883.831	20843.88
884.011	21048.68
884.192	20751.73
884.373	21261.67
884.553	21192.04
884.734	20958.57
884.914	21048.68
885.095	21398.88
885.275	21542.24
885.456	21345.64
885.636	20686.19
885.817	21202.28
885.997	21427.56
886.178	21153.13
886.358	21204.33
886.538	21212.52
886.719	22152.54
886.899	21163.37
887.08	21505.38
887.26	21824.86
887.44	21511.52
887.621	21542.24
887.801	21720.42
887.981	22056.28
888.161	22181.21
888.342	21755.23
888.522	21722.46
888.702	22318.42
888.882	21853.53
889.062	21865.82
889.242	21876.06
889.423	22322.52
889.603	21876.06
889.783	21890.4
889.963	21931.36
890.143	22031.71
890.323	22205.78
890.503	22082.91
890.683	22201.69
890.863	22213.98
891.043	21978.46
891.223	22050.14
891.403	21847.39
891.583	22127.96
891.763	21630.3
891.943	21949.79
892.122	21720.42
892.302	22146.39
892.482	21968.22
892.662	21728.61
892.842	21974.36
893.022	22177.11
893.201	22103.39
893.381	22031.71
893.561	21751.13
893.741	22103.39
893.92	22439.25
894.1	22297.94
894.28	22216.02
894.459	21876.06
894.639	22027.61
894.819	21968.22
894.998	22060.38
895.178	22244.7
895.357	22355.29
895.537	21812.57
895.716	21945.69
895.896	22480.21
896.075	22703.44
896.255	22146.39
896.434	21884.25
896.614	22422.87
896.793	22787.41
896.973	22232.41
897.152	21849.44
897.331	21781.85
897.511	22080.86
897.69	21321.06
897.87	22070.62
898.049	21890.4
898.228	21931.36
898.407	22160.73
898.587	21761.37
898.766	21654.88
898.945	22105.43
899.124	21298.53
899.304	21749.09
899.483	22056.28
899.662	22543.7
899.841	21529.95
900.02	21882.2
900.199	22439.25
900.378	22078.81
900.557	21476.71
900.737	21941.6
900.916	22142.3
901.095	22050.14
901.274	21953.88
901.453	21673.31
901.632	21775.71
901.811	21656.93
901.989	21732.7
902.168	21611.87
902.347	21710.18
902.526	21052.78
902.705	21222.76
902.884	21259.62
903.063	21808.48
903.242	21828.96
903.42	21204.33
903.599	21542.24
903.778	21624.16
903.957	21384.55
904.135	21235.05
904.314	21065.07
904.493	21372.26
904.672	21161.32
904.85	21165.42
905.029	21327.21
905.207	21566.82
905.386	22019.42
905.565	20798.83
905.743	20477.3
905.922	20286.84
906.1	20944.24
906.279	20804.97
906.457	20634.99
906.636	21411.17
906.814	21081.45
906.993	21009.77
907.171	20964.71
907.35	20997.48
907.528	20964.71
907.707	21040.49
907.885	20837.74
908.063	21144.94
908.242	20835.69
908.42	20581.74
908.598	20311.41
908.777	20591.98
908.955	20700.53
909.133	20477.3
909.311	20503.92
909.49	20544.88
909.668	20569.46
909.846	20335.99
910.024	19701.12
910.202	20223.35
910.38	19883.39
910.559	19780.99
910.737	20215.16
910.915	20051.32
911.093	20299.12
911.271	19899.77
911.449	20133.24
911.627	19910.01
911.805	20606.32
911.983	19924.35
912.161	19869.05
912.339	19873.15
912.517	19969.4
912.695	19953.02
912.872	19549.57
913.05	19565.95
913.228	19461.51
913.406	19742.08
913.584	19271.04
913.762	19809.66
913.939	19424.64
914.117	19666.3
914.295	19363.2
914.473	19654.01
914.65	19998.07
914.828	19285.38
915.006	19215.75
915.184	19320.2
915.361	19486.08
915.539	19320.2
915.716	19314.05
915.894	19543.42
916.072	19434.88
916.249	19340.68
916.427	19238.28
916.604	19074.44
916.782	19174.79
916.959	18902.41
917.137	18759.05
917.314	19139.97
917.492	18759.05
917.669	18728.33
917.847	18460.05
918.024	18781.58
918.201	18525.58
918.379	18795.92
918.556	18777.48
918.733	19127.69
918.911	18437.52
919.088	18515.34
919.265	18435.47
919.442	18478.48
919.62	18277.78
919.797	18175.38
919.974	18025.88
920.151	18161.05
920.328	17892.76
920.506	17919.39
920.683	17999.26
920.86	17550.75
921.037	17941.91
921.214	17952.15
921.391	17970.58
921.568	18154.9
921.745	17882.52
921.922	17391.01
922.099	17335.71
922.276	17692.06
922.453	17536.42
922.63	17431.97
922.807	17587.61
922.984	17358.24
923.161	17380.77
923.338	17685.92
923.514	17182.12
923.691	17503.65
923.868	17444.26
924.045	17030.57
924.222	16504.24
924.399	16967.08
924.575	17114.53
924.752	16928.17
924.929	16850.35
925.105	17032.61
925.282	16620.97
925.459	16803.24
925.635	16702.89
925.812	16784.81
925.989	16629.16
926.165	16524.72
926.342	16522.67
926.518	16268.72
926.695	16625.07
926.871	16358.83
927.048	16231.86
927.224	16756.14
927.401	16111.03
927.577	16135.6
927.754	15674.81
927.93	16227.76
928.107	15889.85
928.283	15627.71
928.459	15975.86
928.636	15893.94
928.812	15750.59
928.988	15390.14
929.165	15392.19
929.341	15506.88
929.517	15623.61
929.693	15631.8
929.87	14945.73
930.046	15404.48
930.222	15353.28
930.398	15134.15
930.574	15183.3
930.751	15269.31
930.927	15056.32
931.103	15203.78
931.279	14747.08
931.455	14560.72
931.631	14806.47
931.807	14530
931.983	14413.26
932.159	14384.59
932.335	14544.33
932.511	14443.98
932.687	14239.19
932.863	14595.53
933.039	14136.79
933.215	13995.48
933.391	13692.38
933.566	14118.36
933.742	14144.98
933.918	13551.07
934.094	13401.57
934.27	13721.05
934.445	13454.81
934.621	13555.16
934.797	12664.3
934.973	13481.44
935.148	13389.28
935.324	12908.01
935.5	12717.54
935.675	13080.04
935.851	12590.57
936.027	12518.89
936.202	12240.37
936.378	12418.54
936.553	11939.32
936.729	12047.86
936.904	11496.96
937.08	11503.1
937.255	11236.86
937.431	11005.44
937.606	10841.61
937.782	10843.65
937.957	10894.85
938.133	10579.47
938.308	10302.99
938.483	10329.61
938.659	10030.61
938.834	10016.27
939.009	9963.03
939.185	9862.68
939.36	9723.41
939.535	9041.44
939.71	9506.33
939.886	9457.18
940.061	9621.02
940.236	9315.87
940.411	8982.05
940.586	8977.95
940.761	9055.78
940.937	8738.34
941.112	8801.83
941.287	8949.28
941.462	8801.83
941.637	8576.55
941.812	8713.77
941.987	8691.24
942.162	8631.85
942.337	8484.39
942.512	8224.3
942.687	8529.45
942.862	8425
943.037	7816.76
943.212	7775.8
943.386	8001.07
943.561	8181.29
943.736	8226.35
943.911	8232.49
944.086	8093.23
944.26	8027.7
944.435	7941.68
944.61	8128.05
944.785	8519.21
944.959	8408.62
945.134	7536.18
945.309	7716.4
945.483	7773.75
945.658	8062.51
945.833	7519.8
946.007	7775.8
946.182	8326.7
946.357	7669.3
946.531	7734.84
946.706	7753.27
946.88	7575.1
947.055	7953.97
947.229	7618.1
947.404	7648.82
947.578	8074.8
947.752	7824.95
947.927	7878.19
948.101	7806.52
948.276	7827
948.45	8046.13
948.624	8128.05
948.799	7953.97
948.973	8152.62
949.147	7781.94
949.321	8193.58
949.496	7970.35
949.67	8248.88
949.844	8060.46
950.018	8295.98
950.193	8224.3
950.367	8867.36
950.541	8238.64
950.715	8433.19
950.889	8508.97
951.063	8472.11
951.237	8513.06
951.411	8121.9
951.585	8027.7
951.759	8453.67
951.933	8277.55
952.107	8185.39
952.281	8476.2
952.455	9018.91
952.629	8678.95
952.803	8361.52
952.977	8511.02
953.151	8547.88
953.325	8777.25
953.499	8787.49
953.672	8384.04
953.846	8551.98
954.02	8664.61
954.194	8502.82
954.368	8289.84
954.541	8857.12
954.715	8541.74
954.889	8945.19
955.062	8652.33
955.236	8697.38
955.41	8535.59
955.583	8787.49
955.757	8416.81
955.93	8658.47
956.104	8427.05
956.278	8656.42
956.451	8580.65
956.625	8838.69
956.798	9352.73
956.972	8904.23
957.145	8545.83
957.319	8994.34
957.492	9086.5
957.665	8963.62
957.839	8797.73
958.012	9123.36
958.185	8885.8
958.359	8773.16
958.532	9121.31
958.705	9135.65
958.879	9178.65
959.052	8918.56
959.225	8683.05
959.398	8932.9
959.572	8949.28
959.745	9086.5
959.918	8746.53
960.091	8846.88
960.264	8863.27
960.438	8644.13
960.611	8689.19
960.784	8961.57
960.957	8779.3
961.13	9090.59
961.303	8764.96
961.476	8832.55
961.649	8965.67
961.822	8484.39
961.995	8756.77
962.168	9098.78
962.341	9020.96
962.514	8973.86
962.686	8635.94
962.859	8973.86
963.032	9020.96
963.205	8875.56
963.378	8685.09
963.551	9043.49
963.723	8949.28
963.896	9018.91
964.069	9006.63
964.242	8840.74
964.414	9186.85
964.587	8871.46
964.76	8910.37
964.932	9125.41
965.105	8910.37
965.278	8826.4
965.45	8732.2
965.623	9113.12
965.795	8990.24
965.968	8590.89
966.14	8615.46
966.313	8728.1
966.485	8932.9
966.658	8580.65
966.83	8795.68
967.003	9121.31
967.175	8922.66
967.348	8681
967.52	8928.8
967.692	9180.7
967.865	8982.05
968.037	8619.56
968.209	8930.85
968.382	8713.77
968.554	8967.71
968.726	8724.01
968.898	8455.72
969.071	8695.33
969.243	8545.83
969.415	8255.02
969.587	8443.43
969.759	9113.12
969.932	8857.12
970.104	8465.96
970.276	8001.07
970.448	8371.75
970.62	8312.36
970.792	8384.04
970.964	8369.71
971.136	8799.78
971.308	8521.26
971.48	8265.26
971.652	8324.65
971.824	8879.65
971.996	8361.52
972.168	8498.73
972.339	8402.47
972.511	8472.11
972.683	8396.33
972.855	8590.89
973.027	8414.76
973.199	8439.34
973.37	8504.87
973.542	8494.63
973.714	8461.87
973.886	8662.57
974.057	8592.94
974.229	8029.74
974.401	8099.38
974.572	7986.74
974.744	7566.9
974.915	7872.05
975.087	7927.35
975.259	8492.59
975.43	7798.32
975.602	7689.78
975.773	7700.02
975.945	7597.62
976.116	8173.1
976.288	7652.92
976.459	7736.88
976.63	7810.61
976.802	7691.83
976.973	7681.59
977.145	7708.21
977.316	8216.11
977.487	8048.18
977.659	7697.97
977.83	7597.62
978.001	8195.63
978.172	7847.47
978.344	7749.17
978.515	7558.71
978.686	7556.66
978.857	7933.49
979.028	7573.05
979.2	7491.13
979.371	7738.93
979.542	7534.14
979.713	7829.04
979.884	7112.25
980.055	7484.98
980.226	7427.64
980.397	7415.35
980.568	7413.31
980.739	8033.84
980.91	7493.18
981.081	7577.14
981.252	7249.47
981.423	7732.79
981.594	7736.88
981.765	7321.15
981.936	7302.72
982.106	7362.11
982.277	7409.21
982.448	7097.92
982.619	7159.36
982.79	7173.69
982.96	7603.77
983.131	7204.41
983.302	6907.46
983.472	7181.89
983.643	7167.55
983.814	7255.61
983.984	6886.98
984.155	7054.91
984.326	7380.54
984.496	7251.52
984.667	6950.46
984.837	6987.33
985.008	7140.93
985.178	6954.56
985.349	6772.29
985.519	6874.69
985.69	6626.89
985.86	6723.14
986.031	6499.91
986.201	6805.06
986.371	6807.11
986.542	6471.24
986.712	6491.72
986.882	6762.05
987.053	6870.59
987.223	6389.32
987.393	6706.76
987.563	6733.38
987.734	6770.24
987.904	6737.48
988.074	6461
988.244	6807.11
988.414	6362.7
988.585	6401.61
988.755	6639.17
988.925	6585.93
989.095	6977.09
989.265	6413.9
989.435	6524.49
989.605	6655.56
989.775	6594.12
989.945	6487.62
990.115	6143.56
990.285	6352.46
990.455	6559.3
990.625	6241.87
990.795	6096.46
990.965	6508.1
991.134	5922.38
991.304	6258.25
991.474	6198.86
991.644	6436.42
991.814	6516.3
991.984	5971.54
992.153	5846.61
992.323	6166.09
992.493	6145.61
992.662	5803.6
992.832	6223.44
993.002	6307.4
993.171	6174.28
993.341	5887.57
993.511	6098.51
993.68	5832.27
993.85	6069.84
994.019	5699.16
994.189	5715.54
994.358	5922.38
994.528	5770.83
994.697	5488.21
994.867	5602.9
995.036	5897.81
995.206	5733.97
995.375	5617.24
995.544	5881.42
995.714	5994.06
995.883	5709.4
996.052	5643.86
996.222	5140.06
996.391	6286.92
996.56	5529.17
996.73	5381.72
996.899	5367.38
997.068	5811.79
997.237	5570.13
997.406	5183.07
997.576	5295.71
997.745	5555.8
997.914	5666.39
998.083	5045.85
998.252	5262.94
998.421	5346.91
998.59	5283.42
998.759	5170.78
998.928	4965.98
999.097	5406.3
999.266	5267.03
999.435	5105.24
999.604	4935.26
999.773	5719.64
999.942	5181.02
1000.111	4736.61
1000.28	4763.23
1000.448	4957.79
1000.617	4879.97
1000.786	4961.89
1000.955	4832.86
1001.124	5148.25
1001.292	5592.66
1001.461	4628.07
1001.63	4843.1
1001.798	5314.14
1001.967	5193.31
1002.136	4781.67
1002.304	4777.57
1002.473	4992.61
1002.642	4925.02
1002.81	4824.67
1002.979	4535.91
1003.147	5070.43
1003.316	5307.99
1003.484	4453.99
1003.653	4480.61
1003.821	5023.33
1003.99	4607.59
1004.158	4529.77
1004.327	4505.19
1004.495	4781.67
1004.663	4257.39
1004.832	4476.52
1005	4232.81
1005.168	4662.88
1005.337	4619.88
1005.505	4195.95
1005.673	4429.42
1005.842	4529.77
1006.01	4593.25
1006.178	4234.86
1006.346	4298.35
1006.514	4593.25
1006.683	4746.85
1006.851	4138.6
1007.019	4148.84
1007.187	4193.9
1007.355	4081.26
1007.523	3980.91
1007.691	3909.23
1007.859	4032.11
1008.027	4552.29
1008.195	4146.8
1008.363	3804.78
1008.531	4654.69
1008.699	4052.59
1008.867	3919.47
1009.035	3952.24
1009.203	4529.77
1009.37	4028.01
1009.538	4068.97
1009.706	4433.51
1009.874	4167.28
1010.042	4107.88
1010.209	3763.83
1010.377	3669.62
1010.545	4288.11
1010.713	4103.79
1010.88	3757.68
1011.048	3812.98
1011.216	3823.22
1011.383	4292.2
1011.551	3692.15
1011.718	3460.73
1011.886	4017.77
1012.054	3886.7
1012.221	3651.19
1012.389	3757.68
1012.556	3882.61
1012.724	4152.94
1012.891	3645.04
1013.058	3427.96
1013.226	3808.88
1013.393	3915.37
1013.561	3434.1
1013.728	3335.8
1013.895	3845.74
1014.063	3804.78
1014.23	3376.76
1014.397	3356.28
1014.565	3833.46
1014.732	3507.83
1014.899	3403.38
1015.066	3243.64
1015.233	3434.1
1015.401	3513.97
1015.568	3249.79
1015.735	3421.81
1015.902	3483.25
1016.069	3726.96
1016.236	3159.67
1016.403	3264.12
1016.57	3202.68
1016.737	3559.03
1016.904	3141.24
1017.071	3118.72
1017.238	3303.03
1017.405	3577.46
1017.572	3190.39
1017.739	3257.98
1017.906	3356.28
1018.073	3464.82
1018.24	3020.41
1018.407	3063.42
1018.573	3444.34
1018.74	3053.18
1018.907	3055.23
1019.074	2883.2
1019.241	3358.33
1019.407	3126.91
1019.574	2973.31
1019.741	2694.79
1019.907	3122.81
1020.074	3262.07
1020.241	2776.7
1020.407	2872.96
1020.574	3194.49
1020.74	3210.87
1020.907	2811.52
1021.073	2836.1
1021.24	3442.29
1021.406	3343.99
1021.573	2795.14
1021.739	2737.79
1021.906	2946.69
1022.072	2836.1
1022.239	2498.18
1022.405	2539.14
1022.571	2889.34
1022.738	2668.16
1022.904	2561.67
1023.07	2598.53
1023.237	2721.41
1023.403	2971.26
1023.569	2629.25
1023.735	2639.49
1023.902	2694.79
1024.068	2793.09
1024.234	2348.68
1024.4	2512.52
1024.566	2678.4
1024.732	2848.38
1024.898	2522.76
1025.065	2209.42
1025.231	2799.23
1025.397	2655.87
1025.563	2393.73
1025.729	2311.82
1025.895	2256.52
1026.061	2463.37
1026.227	2229.9
1026.392	2289.29
1026.558	2705.03
1026.724	2621.06
1026.89	2283.14
1027.056	2268.81
1027.222	2432.65
1027.388	2393.73
1027.553	2219.66
1027.719	2160.27
1027.885	2715.27
1028.051	2563.72
1028.216	1986.19
1028.382	2156.17
1028.548	2619.01
1028.713	2227.85
1028.879	1996.43
1029.045	2160.27
1029.21	2483.84
1029.376	2479.75
1029.541	2053.77
1029.707	2145.93
1029.873	2352.77
1030.038	2387.59
1030.204	1980.04
1030.369	2168.46
1030.534	2465.41
1030.7	2244.23
1030.865	1883.79
1031.031	1885.84
1031.196	2317.96
1031.361	2250.38
1031.527	2008.72
1031.692	1982.09
1031.857	1767.06
1032.023	2332.3
1032.188	1900.17
1032.353	1916.56
1032.518	2592.39
1032.684	2203.27
1032.849	1695.38
1033.014	1912.46
1033.179	2328.2
1033.344	2221.7
1033.509	1808.02
1033.674	1750.67
1033.839	2221.7
1034.004	2088.59
1034.17	1707.66
1034.335	1722
1034.5	1992.33
1034.664	1816.21
1034.829	1826.45
1034.994	1785.49
1035.159	2205.32
1035.324	1988.24
1035.489	1732.24
1035.654	1769.1
1035.819	2268.81
1035.984	1818.25
1036.148	1734.29
1036.313	1545.88
1036.478	2021
1036.643	1969.8
1036.807	1601.17
1036.972	1644.18
1037.137	2162.31
1037.301	1746.58
1037.466	1488.53
1037.631	1549.97
1037.795	2090.63
1037.96	1902.22
1038.124	1656.47
1038.289	1420.95
1038.454	1808.02
1038.618	1742.48
1038.783	1490.58
1038.947	1416.85
1039.111	1777.3
1039.276	1615.51
1039.44	1388.18
1039.605	1781.39
1039.769	1560.21
1039.933	1574.55
1040.098	1447.57
1040.262	1693.33
1040.426	1857.17
1040.591	1760.91
1040.755	1169.05
1040.919	1357.46
1041.083	1732.24
1041.248	1601.17
1041.412	1205.91
1041.576	1242.78
1041.74	1496.72
1041.904	1853.07
1042.068	1171.1
1042.232	1373.85
1042.397	1662.61
1042.561	1601.17
1042.725	1062.55
1042.889	1367.7
1043.053	1775.25
1043.217	1689.23
1043.381	1459.86
1043.544	1128.09
1043.708	1838.73
1043.872	1234.58
1044.036	966.3
1044.2	1121.95
1044.364	1760.91
1044.528	1822.35
1044.691	3432.05
1044.855	1076.89
1045.019	1642.13
1045.183	1580.69
1045.346	1240.73
1045.51	1111.71
1045.674	1498.77
1045.837	1578.64
1046.001	1210.01
1046.165	1136.28
1046.328	1859.21
1046.492	1595.03
1046.655	1232.54
1046.819	1234.58
1046.983	1179.29
1047.146	1441.43
1047.31	1257.11
1047.473	1027.74
1047.636	1371.8
1047.8	1275.54
1047.963	1142.43
1048.127	1068.7
1048.29	1187.48
