Data from Ink_Intensity_USB4F045381__14__00014.txt Node

Date: Mon Jul 17 09:35:50 EDT 2023
User: mmckonesweet
Spectrometer: USB4F04538
Trigger mode: 4
Integration Time (sec): 9.000000E-1
Scans to average: 1
Electric dark correction enabled: true
Nonlinearity correction enabled: false
Boxcar width: 0
XAxis mode: Wavelengths
Number of Pixels in Spectrum: 3648
>>>>>Begin Spectral Data<<<<<
345.52	-881.99
345.736	-881.99
345.952	-881.99
346.168	-898.38
346.384	-922.95
346.6	-109.91
346.816	-238.93
347.032	-126.29
347.248	266.92
347.464	-222.55
347.68	-99.67
347.896	103.08
348.112	354.98
348.328	-3.41
348.544	-109.91
348.76	-60.76
348.975	246.44
349.191	-165.2
349.407	-116.05
349.623	-89.43
349.839	-73.04
350.055	0.68
350.27	129.7
350.486	201.38
350.702	346.79
350.918	242.34
351.133	-136.53
351.349	150.18
351.565	369.32
351.781	-210.26
351.996	51.88
352.212	299.69
352.428	-169.3
352.644	-99.67
352.859	-210.26
353.075	287.4
353.291	-124.24
353.506	-21.84
353.722	-212.31
353.938	-13.65
354.153	420.52
354.369	107.18
354.584	-212.31
354.8	291.49
355.016	-302.42
355.231	-191.83
355.447	-5.46
355.662	23.21
355.878	895.65
356.093	-245.07
356.309	-32.08
356.524	-240.98
356.74	168.62
356.955	-79.19
357.171	-93.52
357.386	193.19
357.602	-243.03
357.817	-95.57
358.033	-79.19
358.248	367.27
358.464	98.99
358.679	-71
358.895	-288.08
359.11	-3.41
359.325	428.71
359.541	207.53
359.756	47.79
359.972	-298.32
360.187	176.81
360.402	-179.54
360.618	-95.57
360.833	862.88
361.048	230.06
361.264	-101.72
361.479	-81.24
361.694	62.12
361.909	199.34
362.125	-118.1
362.34	-122.2
362.555	160.42
362.77	72.36
362.986	-204.11
363.201	-89.43
363.416	158.38
363.631	66.22
363.847	-132.44
364.062	-144.72
364.277	166.57
364.492	60.07
364.707	-109.91
364.922	-273.75
365.138	234.15
365.353	385.7
365.568	-150.87
365.783	-122.2
365.998	154.28
366.213	494.24
366.428	-230.74
366.643	62.12
366.858	228.01
367.073	211.62
367.288	-54.61
367.503	-179.54
367.718	103.08
367.933	242.34
368.148	-249.17
368.363	-77.14
368.578	-21.84
368.793	424.61
369.008	-91.48
369.223	-148.82
369.438	264.87
369.653	510.63
369.868	-204.11
370.083	-165.2
370.298	90.79
370.513	357.03
370.728	45.74
370.943	-56.66
371.157	-189.78
371.372	520.87
371.587	-238.93
371.802	-163.15
372.017	35.5
372.232	438.95
372.446	6.83
372.661	-169.3
372.876	207.53
373.091	209.58
373.306	-27.99
373.52	-140.63
373.735	-126.29
373.95	410.28
374.165	-58.71
374.379	-161.11
374.594	-159.06
374.809	103.08
375.023	109.23
375.238	-249.17
375.453	217.77
375.667	-193.87
375.882	-91.48
376.097	-54.61
376.311	92.84
376.526	-40.28
376.741	-191.83
376.955	166.57
377.17	701.09
377.384	602.79
377.599	-38.23
377.813	-245.07
378.028	522.91
378.242	133.8
378.457	19.11
378.672	-240.98
378.886	109.23
379.101	-36.18
379.315	-286.03
379.53	-116.05
379.744	232.1
379.958	146.09
380.173	-36.18
380.387	-79.19
380.602	225.96
380.816	-130.39
381.031	-54.61
381.245	-97.62
381.459	248.49
381.674	2341.51
381.888	-189.78
382.103	123.56
382.317	-144.72
382.531	498.34
382.746	-44.37
382.96	-152.91
383.174	-101.72
383.388	365.22
383.603	74.41
383.817	-259.41
384.031	164.52
384.246	549.54
384.46	-21.84
384.674	289.45
384.888	98.99
385.103	23.21
385.317	-177.49
385.531	15.02
385.745	326.31
385.959	316.07
386.174	-185.68
386.388	-183.63
386.602	-27.99
386.816	-116.05
387.03	80.55
387.244	8.87
387.458	70.31
387.672	414.37
387.887	-191.83
388.101	-253.27
388.315	365.22
388.529	158.38
388.743	-36.18
388.957	-140.63
389.171	346.79
389.385	-71
389.599	-21.84
389.813	160.42
390.027	262.82
390.241	699.04
390.455	-46.42
390.669	6.83
390.883	-30.04
391.097	471.72
391.311	168.62
391.525	-54.61
391.738	187.05
391.952	195.24
392.166	-9.56
392.38	-68.95
392.594	293.54
392.808	295.59
393.022	27.31
393.236	-44.37
393.449	225.96
393.663	125.61
393.877	-204.11
394.091	-19.8
394.305	-27.99
394.518	-34.13
394.732	-224.59
394.946	-50.52
395.16	463.52
395.373	78.51
395.587	-60.76
395.801	-77.14
396.015	397.99
396.228	281.25
396.442	-97.62
396.656	-171.35
396.869	365.22
397.083	514.72
397.297	43.69
397.51	-85.33
397.724	441
397.938	252.58
398.151	-220.5
398.365	-126.29
398.578	258.73
398.792	320.17
399.005	125.61
399.219	4.78
399.433	291.49
399.646	246.44
399.86	103.08
400.073	76.46
400.287	273.06
400.5	51.88
400.714	117.42
400.927	78.51
401.141	185
401.354	1088.15
401.567	314.02
401.781	-64.85
401.994	248.49
402.208	666.27
402.421	39.59
402.635	47.79
402.848	90.79
403.061	430.76
403.275	119.46
403.488	-89.43
403.701	545.44
403.915	252.58
404.128	109.23
404.341	29.35
404.555	187.05
404.768	133.8
404.981	172.71
405.195	-48.47
405.408	631.46
405.621	330.41
405.834	117.42
406.048	-38.23
406.261	457.38
406.474	588.45
406.687	-83.28
406.9	191.14
407.114	166.57
407.327	182.95
407.54	-99.67
407.753	-157.01
407.966	-60.76
408.179	393.89
408.392	27.31
408.605	-187.73
408.819	301.73
409.032	260.77
409.245	15.02
409.458	191.14
409.671	373.41
409.884	365.22
410.097	-120.15
410.31	168.62
410.523	303.78
410.736	131.75
410.949	92.84
411.162	10.92
411.375	465.57
411.588	498.34
411.801	238.25
412.014	-34.13
412.227	180.9
412.44	135.85
412.653	4.78
412.865	225.96
413.078	371.37
413.291	389.8
413.504	103.08
413.717	-3.41
413.93	432.8
414.143	51.88
414.356	82.6
414.568	-165.2
414.781	469.67
414.994	223.91
415.207	86.7
415.42	82.6
415.632	459.43
415.845	631.46
416.058	-50.52
416.271	8.87
416.483	303.78
416.696	588.45
416.909	-3.41
417.121	-11.61
417.334	459.43
417.547	733.86
417.759	78.51
417.972	113.32
418.185	121.51
418.397	391.84
418.61	-7.51
418.823	39.59
419.035	678.56
419.248	254.63
419.46	152.23
419.673	158.38
419.885	475.81
420.098	133.8
420.311	180.9
420.523	-128.34
420.736	510.63
420.948	326.31
421.161	25.26
421.373	60.07
421.586	311.97
421.798	92.84
422.01	25.26
422.223	209.58
422.435	146.09
422.648	414.37
422.86	115.37
423.073	66.22
423.285	664.22
423.497	78.51
423.71	82.6
423.922	119.46
424.134	420.52
424.347	637.6
424.559	340.65
424.771	391.84
424.984	209.58
425.196	391.84
425.408	-87.38
425.621	53.93
425.833	594.59
426.045	606.88
426.257	70.31
426.47	-3.41
426.682	383.65
426.894	432.8
427.106	154.28
427.318	164.52
427.531	191.14
427.743	527.01
427.955	-1.37
428.167	494.24
428.379	518.82
428.591	369.32
428.804	244.39
429.016	152.23
429.228	258.73
429.44	496.29
429.652	377.51
429.864	105.13
430.076	381.6
430.288	279.21
430.5	246.44
430.712	252.58
430.924	658.08
431.136	352.93
431.348	23.21
431.56	150.18
431.772	406.18
431.984	221.86
432.196	221.86
432.408	230.06
432.62	176.81
432.832	516.77
433.044	514.72
433.256	293.54
433.468	578.21
433.679	170.66
433.891	160.42
434.103	455.33
434.315	725.66
434.527	520.87
434.739	404.13
434.95	242.34
435.162	676.51
435.374	340.65
435.586	273.06
435.798	346.79
436.009	201.38
436.221	391.84
436.433	338.6
436.645	357.03
436.856	402.08
437.068	740
437.28	254.63
437.491	559.78
437.703	621.22
437.915	518.82
438.126	373.41
438.338	549.54
438.55	500.39
438.761	629.41
438.973	326.31
439.184	307.88
439.396	467.62
439.608	723.62
439.819	185
440.031	371.37
440.242	641.7
440.454	676.51
440.665	342.69
440.877	447.14
441.088	674.46
441.3	387.75
441.511	320.17
441.723	285.35
441.934	531.11
442.146	631.46
442.357	490.15
442.569	694.94
442.78	455.33
442.991	901.79
443.203	750.24
443.414	320.17
443.626	852.64
443.837	430.76
444.048	336.55
444.26	250.53
444.471	633.51
444.682	803.49
444.894	219.82
445.105	285.35
445.316	809.63
445.528	709.28
445.739	567.97
445.95	438.95
446.161	690.85
446.373	850.59
446.584	514.72
446.795	471.72
447.006	678.56
447.217	996
447.429	307.88
447.64	271.01
447.851	785.05
448.062	662.18
448.273	334.5
448.484	426.66
448.695	826.01
448.907	572.07
449.118	481.96
449.329	729.76
449.54	580.26
449.751	395.94
449.962	393.89
450.173	443.04
450.384	885.41
450.595	1075.87
450.806	541.35
451.017	610.98
451.228	946.84
451.439	901.79
451.65	633.51
451.861	367.27
452.072	529.06
452.283	719.52
452.494	735.9
452.705	561.83
452.915	1059.48
453.126	809.63
453.337	522.91
453.548	553.63
453.759	1004.19
453.97	1217.18
454.181	844.45
454.391	627.36
454.602	789.15
454.813	918.17
455.024	701.09
455.235	621.22
455.445	873.12
455.656	914.08
455.867	746.14
456.078	586.4
456.288	678.56
456.499	809.63
456.71	578.21
456.921	869.02
457.131	965.28
457.342	864.93
457.553	709.28
457.763	594.59
457.974	989.85
458.184	1002.14
458.395	610.98
458.606	633.51
458.816	1065.63
459.027	1338.01
459.237	809.63
459.448	555.68
459.659	1174.17
459.869	1368.73
460.08	621.22
460.29	912.03
460.501	1370.77
460.711	844.45
460.922	680.61
461.132	844.45
461.343	1540.76
461.553	731.81
461.764	801.44
461.974	760.48
462.184	1139.35
462.395	1049.24
462.605	924.32
462.816	813.73
463.026	1104.54
463.236	1338.01
463.447	678.56
463.657	918.17
463.867	1235.61
464.078	1034.91
464.288	922.27
464.498	948.89
464.709	1145.5
464.919	1024.67
465.129	1014.43
465.339	854.69
465.55	1213.08
465.76	1354.39
465.97	1061.53
466.18	944.8
466.391	1448.6
466.601	1282.71
466.811	1067.67
467.021	1024.67
467.231	1464.98
467.441	1516.18
467.651	1149.59
467.862	936.6
468.072	1288.86
468.282	1630.87
468.492	1157.79
468.702	1274.52
468.912	1315.48
469.122	1864.33
469.332	1606.29
469.542	1254.04
469.752	1604.24
469.962	1516.18
470.172	1196.7
470.382	1239.7
470.592	1821.33
470.802	1809.04
471.012	1559.19
471.222	1274.52
471.432	1856.14
471.642	1680.02
471.852	1573.52
472.062	1413.78
472.272	1546.9
472.482	1335.96
472.691	1456.79
472.901	1477.27
473.111	1850
473.321	2132.62
473.531	1505.94
473.741	1655.44
473.95	1981.07
474.16	1878.67
474.37	1723.02
474.58	1481.36
474.79	2232.97
474.999	2144.91
475.209	1680.02
475.419	1700.5
475.628	1993.36
475.838	2075.28
476.048	1847.95
476.258	1626.77
476.467	2331.27
476.677	1958.54
476.886	2034.32
477.096	1923.73
477.306	2028.17
477.515	2589.32
477.725	2155.15
477.935	1948.3
478.144	2513.54
478.354	2171.53
478.563	2128.52
478.773	1915.53
478.982	2294.41
479.192	2740.86
479.401	2247.3
479.611	2054.8
479.82	2159.24
480.03	2505.35
480.239	2183.82
480.449	2226.82
480.658	2812.54
480.868	2192.01
481.077	2421.38
481.287	2364.04
481.496	2804.35
481.705	2880.13
481.915	2607.75
482.124	2615.94
482.333	2747.01
482.543	2912.89
482.752	2640.51
482.961	2546.31
483.171	3013.24
483.38	2892.41
483.589	2667.14
483.799	2634.37
484.008	2861.7
484.217	3033.72
484.426	2693.76
484.636	2695.81
484.845	2982.53
485.054	2642.56
485.263	3062.4
485.472	2830.98
485.682	3572.34
485.891	3109.5
486.1	2800.26
486.309	2908.8
486.518	3275.38
486.727	3463.8
486.936	2935.42
487.146	3101.31
487.355	3607.16
487.564	3129.98
487.773	3156.6
487.982	2996.86
488.191	3318.39
488.4	3392.12
488.609	3103.36
488.818	3340.92
489.027	3904.11
489.236	3734.13
489.445	3248.76
489.654	3177.08
489.863	3795.57
490.072	3519.09
490.281	3711.6
490.49	3476.09
490.698	3924.59
490.907	3951.21
491.116	3502.71
491.325	3347.06
491.534	3971.69
491.743	3766.9
491.952	3648.12
492.16	3621.49
492.369	3914.35
492.578	4137.58
492.787	3885.68
492.996	3609.2
493.204	3783.28
493.413	4328.04
493.622	3558
493.831	3537.52
494.039	4307.56
494.248	3723.89
494.457	3687.03
494.665	3674.74
494.874	4141.68
495.083	4571.75
495.291	3918.45
495.5	3818.1
495.709	4252.27
495.917	4299.37
496.126	4039.28
496.335	4033.13
496.543	4092.52
496.752	4389.48
496.96	4274.79
497.169	3983.98
497.377	4330.09
497.586	4745.83
497.794	4346.47
498.003	4196.97
498.211	4178.54
498.42	4897.38
498.628	4358.76
498.837	4344.42
499.045	4786.79
499.254	4688.48
499.462	4356.71
499.671	4235.88
499.879	4780.64
500.087	4680.29
500.296	4545.13
500.504	4475.49
500.713	4717.15
500.921	5390.94
501.129	4520.55
501.338	4475.49
501.546	5024.35
501.754	4790.88
501.962	4622.95
502.171	4538.98
502.379	5065.31
502.587	5249.63
502.795	4981.34
503.004	4743.78
503.212	5014.11
503.42	5325.4
503.628	4682.34
503.837	4926.05
504.045	5153.37
504.253	5442.14
504.461	4811.36
504.669	4762.21
504.877	5020.25
505.085	5253.72
505.294	4860.51
505.502	5100.12
505.71	5372.5
505.918	5364.31
506.126	4762.21
506.334	4876.9
506.542	5235.29
506.75	5290.59
506.958	5165.66
507.166	5171.8
507.374	5120.6
507.582	5816.91
507.79	5231.19
507.998	5055.07
508.206	5390.94
508.414	5472.86
508.622	5231.19
508.83	5253.72
509.037	5718.61
509.245	5358.17
509.453	5151.32
509.661	5165.66
509.869	5749.33
510.077	5567.06
510.285	5438.04
510.492	5136.99
510.7	6171.21
510.908	5382.74
511.116	5378.65
511.324	5485.14
511.531	5651.03
511.739	5681.75
511.947	5562.97
512.155	5810.77
512.362	5677.65
512.57	5542.49
512.778	5485.14
512.985	5517.91
513.193	6011.47
513.401	6238.8
513.608	5753.43
513.816	5610.07
514.024	5995.09
514.231	6087.25
514.439	5771.86
514.646	5743.19
514.854	5972.56
515.061	6206.03
515.269	5775.95
515.477	5704.28
515.684	5782.1
515.892	6287.95
516.099	5794.39
516.307	5573.21
516.514	6279.75
516.722	6574.66
516.929	5966.42
517.136	5735
517.344	6480.46
517.551	6175.31
517.759	5794.39
517.966	5874.26
518.173	6208.08
518.381	6189.64
518.588	6134.35
518.796	6005.33
519.003	6488.65
519.21	6433.35
519.418	5958.22
519.625	6509.13
519.832	6373.96
520.039	6564.42
520.247	6091.34
520.454	6189.64
520.661	6646.34
520.868	6419.02
521.076	6324.81
521.283	6349.39
521.49	7168.57
521.697	6697.54
521.904	6361.67
522.112	6400.58
522.319	6806.08
522.526	6535.75
522.733	6337.1
522.94	6492.74
523.147	6683.2
523.354	7008.83
523.561	6408.78
523.768	6826.56
523.975	7019.07
524.183	6947.39
524.39	6842.95
524.597	6564.42
524.804	6865.47
525.011	6722.12
525.218	6562.37
525.425	6869.57
525.632	7324.22
525.838	6957.63
526.045	6668.87
526.252	6638.15
526.459	7909.94
526.666	7645.75
526.873	6670.92
527.08	6844.99
527.287	7262.78
527.494	7262.78
527.701	7084.61
527.907	6746.69
528.114	7246.4
528.321	7078.46
528.528	6976.06
528.735	7031.36
528.941	7172.67
529.148	7127.61
529.355	7311.93
529.562	6832.71
529.768	7610.93
529.975	7375.42
530.182	7137.85
530.388	7201.34
530.595	7684.66
530.802	7203.39
531.008	7264.83
531.215	7262.78
531.422	8204.85
531.628	8276.52
531.835	7330.36
532.042	7533.11
532.248	7410.23
532.455	7666.23
532.661	7385.66
532.868	7627.32
533.074	7725.62
533.281	7850.55
533.487	7688.76
533.694	7432.76
533.9	7723.57
534.107	8000.05
534.313	7461.43
534.52	7627.32
534.726	7926.32
534.933	8327.72
535.139	7651.89
535.345	7621.17
535.552	7905.84
535.758	7922.23
535.965	7744.05
536.171	7924.27
536.377	8260.14
536.584	8378.92
536.79	7803.44
536.996	8000.05
537.203	8112.69
537.409	8358.44
537.615	7744.05
537.821	8086.06
538.028	8350.25
538.234	8426.03
538.44	8032.82
538.646	8139.31
538.853	8401.45
539.059	8172.08
539.265	8340.01
539.471	7832.12
539.677	8600.1
539.883	8401.45
540.09	8170.03
540.296	8509.99
540.502	8473.13
540.708	8342.06
540.914	8583.72
541.12	8331.82
541.326	8874.53
541.532	8612.39
541.738	8501.8
541.944	8518.18
542.15	8978.98
542.356	8659.49
542.562	8397.35
542.768	8792.61
542.974	9435.67
543.18	9314.84
543.386	8557.1
543.592	8569.38
543.798	9126.43
544.004	9038.37
544.21	8821.28
544.415	8761.89
544.621	9071.14
544.827	9357.85
545.033	8753.7
545.239	9019.94
545.445	8966.69
545.651	9032.22
545.856	8862.24
546.062	8772.13
546.268	9054.75
546.474	8903.2
546.679	8952.35
546.885	8913.44
547.091	8866.34
547.297	9712.15
547.502	9099.81
547.708	8731.17
547.914	9071.14
548.119	9400.86
548.325	8985.12
548.531	8755.75
548.736	9615.9
548.942	8948.26
549.147	8852
549.353	9415.19
549.559	9744.92
549.764	9474.59
549.97	9073.18
550.175	9165.34
550.381	9632.28
550.586	9183.77
550.792	9439.77
550.997	9351.71
551.203	9493.02
551.408	9665.05
551.614	9175.58
551.819	9339.42
552.025	9935.38
552.23	10232.33
552.435	9378.33
552.641	9712.15
552.846	9585.18
553.052	10113.55
553.257	9732.63
553.462	9523.74
553.668	9566.74
553.873	10168.85
554.078	9562.65
554.283	9527.83
554.489	9966.1
554.694	9947.67
554.899	9746.97
555.105	9982.48
555.31	10232.33
555.515	9951.76
555.72	9652.76
555.925	9753.11
556.131	10199.57
556.336	9968.15
556.541	10039.83
556.746	9796.12
556.951	10256.91
557.156	10441.23
557.361	9914.9
557.567	10185.23
557.772	10732.04
557.977	10373.64
558.182	10021.39
558.387	10041.87
558.592	10215.95
558.797	10553.87
559.002	10306.06
559.207	10138.13
559.412	10547.72
559.617	10734.09
559.822	10134.03
560.027	10037.78
560.232	10381.84
560.437	10510.86
560.642	10367.5
560.847	10088.98
561.051	10648.07
561.256	10385.93
561.461	10271.25
561.666	10254.86
561.871	10641.93
562.076	10605.06
562.281	10551.82
562.485	10185.23
562.69	10822.15
562.895	10846.73
563.1	10205.71
563.305	10062.35
563.509	11143.68
563.714	11512.31
563.919	10500.62
564.123	10494.47
564.328	10713.61
564.533	10889.73
564.737	10641.93
564.942	10605.06
565.147	11190.78
565.351	11416.06
565.556	10945.03
565.761	10682.89
565.965	10934.79
566.17	10570.25
566.374	10750.47
566.579	10607.11
566.784	10934.79
566.988	10830.34
567.193	10838.53
567.397	10891.78
567.602	10791.43
567.806	10891.78
568.011	11117.06
568.215	11028.99
568.42	11110.91
568.624	10996.23
568.828	10912.26
569.033	11082.24
569.237	11139.58
569.442	11278.85
569.646	10992.13
569.85	11143.68
570.055	11297.28
570.259	11629.05
570.463	11364.86
570.668	11069.95
570.872	11264.51
571.076	11284.99
571.281	11309.57
571.485	11307.52
571.689	11221.5
571.893	11747.83
572.098	11432.44
572.302	11291.13
572.506	11551.23
572.71	11592.19
572.914	11377.15
573.119	11446.78
573.323	11893.24
573.527	11766.26
573.731	11360.77
573.935	11457.02
574.139	11692.54
574.343	11563.51
574.547	11512.31
574.751	11696.63
574.955	12112.37
575.159	12001.78
575.364	11393.53
575.568	11659.77
575.772	11745.78
575.976	12079.6
576.18	11602.43
576.383	11672.06
576.587	12030.45
576.791	11977.2
576.995	11571.71
577.199	11483.64
577.403	12145.14
577.607	12481
577.811	11823.61
578.015	11782.65
578.219	12065.27
578.422	11975.16
578.626	11839.99
578.83	11952.63
579.034	12294.64
579.238	12026.36
579.442	11887.09
579.645	12300.78
579.849	12270.06
580.053	12231.15
580.257	11778.55
580.46	12136.95
580.664	12476.91
580.868	12325.36
581.071	12343.79
581.275	12325.36
581.479	11878.9
581.682	12495.34
581.886	12208.62
582.09	12296.69
582.293	12601.83
582.497	12597.74
582.7	12311.02
582.904	12323.31
583.107	12524.01
583.311	12544.49
583.515	12399.09
583.718	12415.47
583.922	12638.7
584.125	12960.23
584.329	12440.04
584.532	12579.31
584.735	12882.41
584.939	12765.67
585.142	12339.69
585.346	12356.08
585.549	12702.18
585.753	12745.19
585.956	12669.42
586.159	13017.57
586.363	13482.46
586.566	13044.2
586.769	12478.96
586.973	12947.94
587.176	13101.54
587.379	13148.64
587.582	13152.74
587.786	12970.47
587.989	13109.73
588.192	13410.78
588.395	12788.2
588.599	13064.68
588.802	13191.65
589.005	13011.43
589.208	13154.79
589.411	12962.28
589.615	13326.82
589.818	13634.01
590.021	13343.2
590.224	12970.47
590.427	13398.49
590.63	13597.15
590.833	12952.04
591.036	13013.48
591.239	13175.27
591.442	13375.97
591.645	13332.96
591.848	13367.77
592.051	13640.15
592.254	13754.84
592.457	13437.41
592.66	13302.24
592.863	13461.98
593.066	13554.14
593.269	13548
593.472	13408.73
593.675	13498.84
593.878	13734.36
594.081	13689.31
594.284	13308.38
594.486	13955.54
594.689	14025.17
594.892	13668.83
595.095	13656.54
595.298	13697.5
595.5	13871.57
595.703	13984.21
595.906	13652.44
596.109	14373.33
596.311	14297.55
596.514	13412.83
596.717	13908.44
596.92	14547.4
597.122	14088.66
597.325	13351.39
597.528	13517.28
597.73	14617.04
597.933	14391.76
598.136	13941.21
598.338	13844.95
598.541	14299.6
598.743	14408.14
598.946	13857.24
599.148	14092.76
599.351	14494.16
599.554	14445.01
599.756	14266.83
599.959	14594.51
600.161	14733.77
600.363	15055.3
600.566	14363.09
600.768	14379.47
600.971	15018.44
601.173	14541.26
601.376	14221.78
601.578	14279.12
601.78	14662.09
601.983	14838.22
602.185	14330.32
602.388	14494.16
602.59	14705.1
602.792	14438.86
602.995	14451.15
603.197	14346.7
603.399	14879.18
603.601	14588.36
603.804	14356.94
604.006	14666.19
604.208	14701
604.41	14483.92
604.613	14698.95
604.815	14354.9
605.017	15413.7
605.219	14469.58
605.421	14608.84
605.623	14379.47
605.826	15468.99
606.028	15079.88
606.23	14608.84
606.432	14623.18
606.634	15401.41
606.836	15208.9
607.038	14485.97
607.24	14752.2
607.442	14930.37
607.644	14830.02
607.846	14766.54
608.048	14670.28
608.25	15354.3
608.452	14725.58
608.654	14838.22
608.856	14358.99
609.058	15010.25
609.26	15258.05
609.462	14795.21
609.664	14983.62
609.866	15268.29
610.067	15067.59
610.269	15006.15
610.471	14758.35
610.673	14897.61
610.875	15186.37
611.077	14555.6
611.278	14973.38
611.48	15077.83
611.682	15665.6
611.884	15284.67
612.085	15102.4
612.287	15309.25
612.489	15274.43
612.69	15045.06
612.892	15202.75
613.094	15473.09
613.295	15094.21
613.497	14887.37
613.699	15147.46
613.9	15811
614.102	15598.01
614.304	14848.46
614.505	14911.94
614.707	15327.68
614.908	15147.46
615.11	14827.98
615.311	15059.4
615.513	15325.63
615.714	15739.32
615.916	15075.78
616.117	15051.2
616.319	15256
616.52	15518.14
616.722	15282.63
616.923	15153.6
617.124	15587.77
617.326	15679.93
617.527	15460.8
617.729	15458.75
617.93	15567.29
618.131	15876.54
618.333	14932.42
618.534	15282.63
618.735	15280.58
618.937	15884.73
619.138	15229.38
619.339	15100.36
619.54	15749.56
619.742	15700.41
619.943	15331.78
620.144	15624.64
620.345	15919.54
620.546	15806.91
620.748	15460.8
620.949	15309.25
621.15	15616.44
621.351	15638.97
621.552	15417.79
621.753	15237.57
621.954	15372.74
622.155	16212.4
622.356	15325.63
622.558	15790.52
622.759	15741.37
622.96	16099.76
623.161	15489.47
623.362	15370.69
623.563	15688.12
623.764	15765.95
623.965	15706.55
624.166	16005.56
624.366	15899.06
624.567	15995.32
624.768	15462.85
624.969	15491.52
625.17	15772.09
625.371	16140.72
625.572	15604.16
625.773	15503.81
625.973	16306.61
626.174	16036.28
626.375	15901.11
626.576	15897.02
626.777	16087.48
626.977	16486.83
627.178	15653.31
627.379	16202.16
627.58	15870.39
627.78	16064.95
627.981	15929.78
628.182	16245.17
628.382	16308.66
628.583	15696.32
628.784	15974.84
628.984	15940.02
629.185	16279.99
629.386	16003.51
629.586	16021.94
629.787	15618.49
629.987	16335.28
630.188	16288.18
630.388	15987.13
630.589	16042.42
630.79	16765.35
630.99	16150.96
631.191	16396.72
631.391	16306.61
631.591	16366
631.792	16726.44
631.992	16284.08
632.193	16247.22
632.393	16593.33
632.594	16345.52
632.794	16116.15
632.994	16355.76
633.195	16294.32
633.395	16337.33
633.595	15786.43
633.796	16423.34
633.996	16296.37
634.196	16662.96
634.397	16394.67
634.597	16202.16
634.797	16355.76
634.997	16800.17
635.198	16615.85
635.398	16107.96
635.598	16533.93
635.798	16808.36
635.998	16507.31
636.199	16243.12
636.399	16247.22
636.599	16445.87
636.799	16556.46
636.999	16419.25
637.199	16738.73
637.399	16925.1
637.599	16380.34
637.799	16353.71
637.999	16540.08
638.199	17293.73
638.399	16316.85
638.599	16515.5
638.799	16886.19
638.999	16980.39
639.199	16492.98
639.399	16751.02
639.599	17031.59
639.799	16468.4
639.999	16593.33
640.199	16370.1
640.399	17039.78
640.599	16531.89
640.799	17088.93
640.998	16787.88
641.198	17281.44
641.398	16839.08
641.598	16814.51
641.798	16820.65
641.997	17742.24
642.197	16884.14
642.397	17025.45
642.597	17007.02
642.796	17164.71
642.996	17400.23
643.196	16871.85
643.395	16402.86
643.595	17281.44
643.795	16732.59
643.994	16953.77
644.194	16992.68
644.394	17332.64
644.593	17207.72
644.793	16824.75
644.992	16806.31
645.192	17406.37
645.392	16814.51
645.591	16880.04
645.791	17277.35
645.99	17320.35
646.19	17140.13
646.389	17011.11
646.589	16986.54
646.788	17711.52
646.987	17408.42
647.187	17252.77
647.386	17301.92
647.586	17461.66
647.785	17721.76
647.984	17318.31
648.184	17250.72
648.383	17369.51
648.582	17164.71
648.782	17539.49
648.981	17271.2
649.18	17179.04
649.38	17389.99
649.579	17138.09
649.778	17226.15
649.977	17688.99
650.177	17566.11
650.376	17291.68
650.575	17357.22
650.774	17746.33
650.973	17494.43
651.173	17113.51
651.372	17279.4
651.571	17629.6
651.77	17969.56
651.969	17422.75
652.168	17697.18
652.367	17519.01
652.566	17799.58
652.765	17516.96
652.964	17688.99
653.163	18145.69
653.362	17787.29
653.561	17844.63
653.76	17467.81
653.959	17455.52
654.158	18112.92
654.357	17684.89
654.556	17574.3
654.755	17893.79
654.954	17981.85
655.153	17318.31
655.352	17760.67
655.551	18207.12
655.749	17535.39
655.948	17901.98
656.147	17985.94
656.346	18317.72
656.545	17871.26
656.743	17777.05
656.942	17785.24
657.141	18196.89
657.34	17476
657.538	18035.1
657.737	17809.82
657.936	17768.86
658.135	18139.54
658.333	17619.36
658.532	17654.17
658.731	18456.98
658.929	18352.53
659.128	18164.12
659.326	17897.88
659.525	18104.73
659.724	18014.62
659.922	17621.41
660.121	17787.29
660.319	18186.65
660.518	17967.51
660.716	17703.32
660.915	17852.83
661.113	18215.32
661.312	17854.87
661.51	18133.4
661.709	17951.13
661.907	18477.46
662.105	18606.48
662.304	17969.56
662.502	17924.51
662.701	18256.28
662.899	17777.05
663.097	18307.48
663.296	17580.45
663.494	18665.87
663.692	18762.12
663.891	17910.17
664.089	17910.17
664.287	18256.28
664.485	18514.32
664.684	17736.09
664.882	17998.23
665.08	18139.54
665.278	18450.83
665.476	17858.97
665.675	18459.03
665.873	18672.01
666.071	18723.21
666.269	17881.5
666.467	18186.65
666.665	18436.5
666.863	18194.84
667.061	18330
667.259	18117.01
667.457	18649.49
667.655	18409.87
667.853	17832.35
668.051	18137.49
668.249	18217.36
668.447	18299.28
668.645	17850.78
668.843	18319.76
669.041	18669.97
669.239	18188.69
669.437	18192.79
669.635	18395.54
669.833	18133.4
670.031	18381.2
670.229	18209.17
670.426	18227.6
670.624	18092.44
670.822	18006.42
671.02	18147.73
671.218	18149.78
671.415	18196.89
671.613	18325.91
671.811	18491.79
672.009	18311.57
672.206	18383.25
672.404	18297.24
672.602	18389.39
672.799	18108.82
672.997	18356.63
673.195	18452.88
673.392	18479.5
673.59	18006.42
673.788	18577.81
673.985	17723.8
674.183	18016.66
674.38	18416.02
674.578	18469.26
674.775	17979.8
674.973	17965.46
675.17	17975.7
675.368	18598.29
675.565	18432.4
675.763	18096.53
675.96	18078.1
676.158	18684.3
676.355	18151.83
676.553	18080.15
676.75	18157.97
676.947	18596.24
677.145	18262.42
677.342	18190.74
677.539	18071.96
677.737	18313.62
677.934	18950.54
678.131	18057.62
678.329	18059.67
678.526	18307.48
678.723	18594.19
678.92	18479.5
679.118	17920.41
679.315	17850.78
679.512	18712.97
679.709	18155.93
679.906	18239.89
680.104	18719.12
680.301	18430.35
680.498	17840.54
680.695	18016.66
680.892	18067.86
681.089	18155.93
681.286	18405.78
681.483	17971.61
681.68	18350.48
681.877	18416.02
682.075	18200.98
682.272	18334.1
682.469	18528.66
682.665	18188.69
682.862	17602.97
683.059	17621.41
683.256	18358.67
683.453	18174.36
683.65	18237.84
683.847	18106.77
684.044	18139.54
684.241	18004.38
684.438	18155.93
684.635	17994.14
684.831	18649.49
685.028	18618.77
685.225	17906.07
685.422	18123.16
685.619	18016.66
685.815	18053.53
686.012	18186.65
686.209	17865.11
686.405	18039.19
686.602	18336.15
686.799	17772.96
686.996	17926.55
687.192	17744.28
687.389	18268.56
687.586	17963.42
687.782	17813.91
687.979	18690.45
688.175	18213.27
688.372	17891.74
688.568	18151.83
688.765	17834.39
688.962	18510.22
689.158	17799.58
689.355	17688.99
689.551	18276.76
689.748	17553.82
689.944	17791.39
690.14	17897.88
690.337	18307.48
690.533	17697.18
690.73	17916.31
690.926	18133.4
691.123	17977.75
691.319	17906.07
691.515	17803.67
691.712	17832.35
691.908	18196.89
692.104	17779.1
692.301	17922.46
692.497	17607.07
692.693	17916.31
692.889	18254.23
693.086	17844.63
693.282	17543.58
693.478	17912.22
693.674	18192.79
693.87	17660.32
694.067	17703.32
694.263	17807.77
694.459	18090.39
694.655	17979.8
694.851	17822.11
695.047	17965.46
695.243	18110.87
695.439	17717.66
695.635	17836.44
695.831	18033.05
696.027	18096.53
696.224	17588.64
696.42	18139.54
696.615	18246.04
696.811	17983.9
697.007	17617.31
697.203	17627.55
697.399	17926.55
697.595	18430.35
697.791	17476
697.987	17822.11
698.183	17467.81
698.379	17654.17
698.575	17820.06
698.77	17824.15
698.966	17936.79
699.162	18180.5
699.358	17717.66
699.554	17539.49
699.749	17965.46
699.945	18012.57
700.141	17422.75
700.337	17738.14
700.532	17971.61
700.728	17598.88
700.924	17652.13
701.119	17541.53
701.315	17797.53
701.511	17596.83
701.706	17834.39
701.902	17344.93
702.097	17754.52
702.293	17625.5
702.489	17697.18
702.684	17742.24
702.88	17537.44
703.075	17965.46
703.271	17807.77
703.466	17285.54
703.662	17777.05
703.857	17865.11
704.053	17600.93
704.248	17674.65
704.443	18020.76
704.639	17850.78
704.834	17680.8
705.03	17418.66
705.225	18213.27
705.42	17668.51
705.616	17691.04
705.811	17129.89
706.006	17553.82
706.202	17688.99
706.397	17576.35
706.592	17480.1
706.787	17588.64
706.983	17680.8
707.178	17949.08
707.373	17404.32
707.568	17994.14
707.763	17719.71
707.959	17263.01
708.154	17273.25
708.349	17521.06
708.544	17877.4
708.739	17631.65
708.934	17365.41
709.129	17840.54
709.324	17549.73
709.519	17351.07
709.714	17361.31
709.909	17842.59
710.104	17551.77
710.299	17197.48
710.494	17629.6
710.689	17758.62
710.884	17863.07
711.079	17369.51
711.274	17707.42
711.469	17930.65
711.664	17545.63
711.859	17353.12
712.054	17717.66
712.249	17746.33
712.443	18049.43
712.638	17246.63
712.833	17074.6
713.028	17562.01
713.223	17648.03
713.417	17652.13
713.612	17545.63
713.807	17609.12
714.002	17668.51
714.196	17205.67
714.391	17105.32
714.586	17713.56
714.78	17430.94
714.975	17510.82
715.17	16896.42
715.364	17310.11
715.559	17705.37
715.754	16638.38
715.948	17252.77
716.143	17752.48
716.337	17127.85
716.532	17682.84
716.726	17148.33
716.921	17490.34
717.115	17762.72
717.31	16892.33
717.504	17650.08
717.699	17148.33
717.893	17447.33
718.088	16873.9
718.282	16914.86
718.476	17185.19
718.671	17064.36
718.865	17234.34
719.059	16796.07
719.254	17389.99
719.448	17369.51
719.642	17043.88
719.837	16927.14
720.031	17385.89
720.225	17344.93
720.419	17185.19
720.614	17177
720.808	17416.61
721.002	16943.53
721.196	16892.33
721.39	16933.29
721.585	17410.47
721.779	17269.16
721.973	16853.42
722.167	16828.84
722.361	17203.62
722.555	17346.98
722.749	16650.67
722.943	16834.99
723.137	16818.6
723.331	17217.96
723.525	17183.14
723.719	16697.77
723.913	16996.78
724.107	17250.72
724.301	16642.48
724.495	16597.42
724.689	17211.81
724.883	17519.01
725.077	16460.21
725.271	16796.07
725.465	17400.23
725.659	17007.02
725.853	16796.07
726.046	16673.2
726.24	16628.14
726.434	16974.25
726.628	16622
726.822	16769.45
727.015	17166.76
727.209	17017.26
727.403	16746.92
727.596	16431.54
727.79	16992.68
727.984	17217.96
728.177	16847.27
728.371	16996.78
728.565	17031.59
728.758	16822.7
728.952	16654.76
729.146	16767.4
729.339	17232.29
729.533	16863.66
729.726	16851.37
729.92	16871.85
730.113	17160.61
730.307	17336.74
730.5	16955.82
730.694	16945.58
730.887	16832.94
731.081	17203.62
731.274	16681.39
731.468	16722.35
731.661	16589.23
731.854	16660.91
732.048	16652.72
732.241	16519.6
732.435	16740.78
732.628	16824.75
732.821	16581.04
733.014	16843.18
733.208	16650.67
733.401	16992.68
733.594	16474.54
733.788	16601.52
733.981	17220
734.174	16882.09
734.367	16552.37
734.56	16746.92
734.754	16931.24
734.947	16953.77
735.14	16646.57
735.333	16980.39
735.526	16873.9
735.719	16411.06
735.912	16433.58
736.105	16542.13
736.298	16708.01
736.491	16566.7
736.684	16245.17
736.877	16509.36
737.07	16896.42
737.263	17017.26
737.456	16691.63
737.649	16583.09
737.842	16662.96
738.035	16791.98
738.228	16736.68
738.421	16955.82
738.614	16937.38
738.807	17199.52
739	16376.24
739.192	16357.81
739.385	16794.03
739.578	16882.09
739.771	16998.82
739.964	16470.45
740.156	16765.35
740.349	16869.8
740.542	17117.61
740.735	16558.51
740.927	16497.07
741.12	16384.43
741.313	16589.23
741.505	16783.79
741.698	16646.57
741.891	16834.99
742.083	16505.26
742.276	16517.55
742.468	16816.55
742.661	16386.48
742.854	16419.25
743.046	16411.06
743.239	17158.56
743.431	16626.09
743.624	16495.02
743.816	16193.97
744.009	16677.29
744.201	16726.44
744.393	16570.8
744.586	16392.62
744.778	16755.12
744.971	16501.17
745.163	16497.07
745.355	16433.58
745.548	16497.07
745.74	16540.08
745.932	16419.25
746.125	16322.99
746.317	17193.38
746.509	16523.69
746.702	16415.15
746.894	16564.65
747.086	16556.46
747.278	16812.46
747.471	16681.39
747.663	16626.09
747.855	16599.47
748.047	16748.97
748.239	16552.37
748.431	16306.61
748.623	16906.66
748.815	16941.48
749.008	16187.83
749.2	16253.36
749.392	16560.56
749.584	16499.12
749.776	16372.14
749.968	16525.74
750.16	16933.29
750.352	16578.99
750.544	16214.45
750.736	16327.09
750.928	16464.3
751.12	16495.02
751.311	16079.29
751.503	16480.69
751.695	16345.52
751.887	16173.49
752.079	15927.74
752.271	16173.49
752.463	17109.41
752.654	16576.94
752.846	16206.26
753.038	16273.84
753.23	16228.79
753.421	16603.57
753.613	15905.21
753.805	16153.01
753.997	16421.3
754.188	16535.98
754.38	15913.4
754.572	15888.82
754.763	16134.58
754.955	16314.8
755.146	15976.89
755.338	16277.94
755.53	16304.56
755.721	16097.72
755.913	15845.82
756.104	15528.38
756.296	16153.01
756.487	16032.18
756.679	15976.89
756.87	16038.33
757.062	15731.13
757.253	16488.88
757.445	15929.78
757.636	16019.89
757.827	15731.13
758.019	16574.89
758.21	15614.4
758.401	15786.43
758.593	16302.51
758.784	16294.32
758.975	15577.53
759.167	15346.11
759.358	15911.35
759.549	16071.09
759.74	15493.57
759.932	15579.58
760.123	16165.3
760.314	15694.27
760.505	15286.72
760.696	15557.05
760.888	16224.69
761.079	15714.75
761.27	15452.61
761.461	15501.76
761.652	15993.27
761.843	15274.43
762.034	15466.94
762.225	15657.4
762.416	15622.59
762.607	15595.96
762.798	15550.91
762.989	15354.3
763.18	16370.1
763.371	15600.06
763.562	15452.61
763.753	15495.61
763.944	15929.78
764.135	15770.04
764.326	15600.06
764.517	15364.54
764.708	15280.58
764.899	15532.48
765.089	15100.36
765.28	15157.7
765.471	15483.33
765.662	15598.01
765.853	15456.7
766.043	14916.04
766.234	15757.75
766.425	15677.88
766.615	15272.39
766.806	15100.36
766.997	15602.11
767.187	15139.27
767.378	15239.62
767.569	14866.89
767.759	15239.62
767.95	15286.72
768.141	15139.27
768.331	14907.85
768.522	15229.38
768.712	15503.81
768.903	14850.5
769.093	14899.66
769.284	15765.95
769.474	15370.69
769.665	14772.68
769.855	14752.2
770.046	15292.87
770.236	15178.18
770.426	14932.42
770.617	14924.23
770.807	14864.84
770.998	15086.02
771.188	14948.81
771.378	14719.43
771.569	15106.5
771.759	14938.57
771.949	14612.94
772.139	14537.16
772.33	14676.43
772.52	15256
772.71	14506.45
772.9	14485.97
773.09	15327.68
773.281	14926.28
773.471	14623.18
773.661	14420.43
773.851	15036.87
774.041	14455.25
774.231	14686.67
774.421	14432.72
774.611	14911.94
774.802	14768.59
774.992	14746.06
775.182	14381.52
775.372	14907.85
775.562	14948.81
775.752	14651.85
775.942	14477.77
776.131	14985.67
776.321	14913.99
776.511	14336.46
776.701	14619.08
776.891	14729.67
777.081	14430.67
777.271	14649.8
777.461	14281.17
777.651	14547.4
777.84	14909.9
778.03	14150.1
778.22	14100.95
778.41	14725.58
778.599	14356.94
778.789	14393.81
778.979	14277.07
779.169	14797.26
779.358	14510.54
779.548	14647.76
779.738	14051.8
779.927	14592.46
780.117	14041.56
780.307	14059.99
780.496	13853.14
780.686	14129.62
780.875	14610.89
781.065	14217.68
781.254	13855.19
781.444	14137.81
781.633	14010.84
781.823	13933.01
782.012	13853.14
782.202	13998.55
782.391	14010.84
782.581	13816.28
782.77	13957.59
782.96	14336.46
783.149	14057.94
783.338	13920.73
783.528	13812.18
783.717	14205.39
783.906	14465.49
784.096	13859.29
784.285	13654.49
784.474	13914.58
784.663	13756.89
784.853	13578.72
785.042	13763.03
785.231	13935.06
785.42	14027.22
785.61	13885.91
785.799	13537.76
785.988	13769.18
786.177	13926.87
786.366	13683.16
786.555	13746.65
786.744	13867.48
786.933	13689.31
787.122	13545.95
787.312	13341.15
787.501	13634.01
787.69	13824.47
787.879	13599.2
788.068	13625.82
788.257	13263.33
788.445	13435.36
788.634	13781.46
788.823	13335.01
789.012	14209.49
789.201	14059.99
789.39	13461.98
789.579	13228.51
789.768	13560.28
789.957	13791.7
790.145	13224.42
790.334	13117.92
790.523	13382.11
790.712	13494.75
790.9	13595.1
791.089	13031.91
791.278	13900.25
791.467	13603.29
791.655	13691.35
791.844	13758.94
792.033	13277.66
792.221	13509.08
792.41	13320.67
792.599	13076.96
792.787	13785.56
792.976	13906.39
793.164	12800.49
793.353	13199.84
793.541	13664.73
793.73	13677.02
793.918	13224.42
794.107	13228.51
794.295	13150.69
794.484	13265.38
794.672	13128.16
794.861	13091.3
795.049	13382.11
795.238	13464.03
795.426	12841.45
795.614	13357.53
795.803	13306.34
795.991	13787.61
796.179	12980.71
796.368	12974.56
796.556	13367.77
796.744	13103.59
796.932	12978.66
797.121	12880.36
797.309	13162.98
797.497	13570.52
797.685	13203.94
797.874	12935.65
798.062	13521.37
798.25	13341.15
798.438	12935.65
798.626	12823.01
798.814	13146.59
799.002	13599.2
799.19	13050.34
799.378	13146.59
799.566	13517.28
799.755	13306.34
799.943	12943.85
800.131	12966.37
800.318	13191.65
800.506	13072.87
800.694	12913.13
800.882	13040.1
801.07	13220.32
801.258	13169.12
801.446	12876.26
801.634	12808.68
801.822	13019.62
802.01	13056.48
802.197	12814.82
802.385	13029.86
802.573	13240.8
802.761	13087.2
802.949	12855.78
803.136	12673.51
803.324	13418.97
803.512	13081.06
803.699	12978.66
803.887	12943.85
804.075	13459.93
804.262	12866.02
804.45	12947.94
804.638	13160.93
804.825	13169.12
805.013	13074.92
805.201	13072.87
805.388	13007.33
805.576	13275.62
805.763	13760.98
805.951	12794.34
806.138	13296.1
806.326	13834.71
806.513	13404.64
806.701	13201.89
806.888	13183.46
807.075	13380.06
807.263	14002.64
807.45	13519.32
807.638	13429.21
807.825	13844.95
808.012	13545.95
808.2	13355.49
808.387	13609.43
808.574	13488.6
808.761	13799.9
808.949	13222.37
809.136	13277.66
809.323	13418.97
809.51	13431.26
809.698	13556.19
809.885	13310.43
810.072	13447.65
810.259	13812.18
810.446	13253.09
810.633	13281.76
810.82	13902.29
811.008	13916.63
811.195	13468.13
811.382	13466.08
811.569	13697.5
811.756	13208.03
811.943	13548
812.13	13490.65
812.317	13363.68
812.504	13679.07
812.691	13468.13
812.878	13619.67
813.064	14129.62
813.251	13726.17
813.438	13265.38
813.625	13734.36
813.812	13736.41
813.999	13648.35
814.186	13236.7
814.372	13527.52
814.559	13619.67
814.746	13816.28
814.933	13304.29
815.12	13603.29
815.306	13509.08
815.493	13369.82
815.68	13355.49
815.866	13494.75
816.053	13728.22
816.24	14268.88
816.426	13660.63
816.613	13423.07
816.799	13818.33
816.986	13873.62
817.173	13504.99
817.359	13359.58
817.546	13717.98
817.732	13019.62
817.919	13027.81
818.105	13482.46
818.292	13466.08
818.478	13849.05
818.665	13500.89
818.851	13212.13
819.037	13896.15
819.224	13662.68
819.41	13199.84
819.597	13189.6
819.783	13951.45
819.969	13699.55
820.156	13521.37
820.342	13517.28
820.528	14084.56
820.714	13365.73
820.901	13310.43
821.087	13142.5
821.273	13781.46
821.459	13427.17
821.646	12952.04
821.832	13267.42
822.018	13189.6
822.204	13259.23
822.39	13339.1
822.576	12958.18
822.762	13236.7
822.948	13203.94
823.134	13287.9
823.32	13294.05
823.507	13208.03
823.693	13267.42
823.879	13169.12
824.065	13095.39
824.25	13253.09
824.436	12906.98
824.622	12874.21
824.808	12784.1
824.994	12993
825.18	13054.44
825.366	12820.97
825.552	12853.73
825.738	13115.87
825.923	13355.49
826.109	13001.19
826.295	12507.63
826.481	12558.83
826.667	12796.39
826.852	12949.99
827.038	12605.93
827.224	13435.36
827.409	13408.73
827.595	12653.03
827.781	12960.23
827.966	13195.75
828.152	13054.44
828.338	12751.34
828.523	12429.8
828.709	12634.6
828.894	13369.82
829.08	12741.1
829.266	12454.38
829.451	12847.59
829.637	12898.79
829.822	12634.6
830.008	12407.28
830.193	13115.87
830.378	13232.61
830.564	12636.65
830.749	12347.89
830.935	13152.74
831.12	12724.71
831.305	12366.32
831.491	12415.47
831.676	12591.59
831.861	12843.49
832.047	12530.16
832.232	12456.43
832.417	12847.59
832.602	12677.61
832.788	12335.6
832.973	12423.66
833.158	12347.89
833.343	12610.03
833.528	12368.37
833.714	12370.41
833.899	12524.01
834.084	13040.1
834.269	12636.65
834.454	12325.36
834.639	12722.66
834.824	12577.26
835.009	12337.65
835.194	12521.96
835.379	12399.09
835.564	12747.24
835.749	12292.59
835.934	12286.45
836.119	12507.63
836.304	12513.77
836.489	12132.85
836.674	12415.47
836.859	12284.4
837.044	12683.75
837.228	12351.98
837.413	12231.15
837.598	12435.95
837.783	12351.98
837.968	12042.74
838.152	11883
838.337	11727.35
838.522	12462.57
838.707	12485.1
838.891	12069.36
839.076	12239.34
839.261	12478.96
839.445	11971.06
839.63	12001.78
839.815	12618.22
839.999	12175.86
840.184	11891.19
840.368	11899.38
840.553	12179.95
840.737	12259.82
840.922	11944.44
841.106	11805.17
841.291	11786.74
841.475	12161.52
841.66	11856.37
841.844	11776.5
842.029	12773.86
842.213	11723.26
842.397	11739.64
842.582	11561.47
842.766	12298.73
842.951	12085.75
843.135	11983.35
843.319	11930.1
843.504	11985.4
843.688	12067.31
843.872	11403.77
844.056	11403.77
844.241	11837.94
844.425	11676.15
844.609	11604.47
844.793	11422.2
844.977	11911.67
845.161	11737.59
845.346	11680.25
845.53	11618.81
845.714	11596.28
845.898	11846.13
846.082	11524.6
846.266	11360.77
846.45	11479.55
846.634	11659.77
846.818	11266.56
847.002	11602.43
847.186	11936.24
847.37	11418.11
847.554	11438.59
847.738	11612.67
847.922	11725.3
848.106	11870.71
848.29	11217.41
848.473	11282.94
848.657	11663.86
848.841	11397.63
849.025	11221.5
849.209	11043.33
849.392	11565.56
849.576	11586.04
849.76	10684.94
849.944	11274.75
850.127	11741.69
850.311	11065.86
850.495	11172.35
850.678	10942.98
850.862	11475.45
851.046	11620.86
851.229	11436.54
851.413	11012.61
851.596	11074.05
851.78	11432.44
851.964	11325.95
852.147	11203.07
852.331	12018.16
852.514	11463.16
852.698	11112.96
852.881	10744.33
853.065	11670.01
853.248	11049.47
853.431	11063.81
853.615	10883.59
853.798	11559.42
853.982	11045.38
854.165	10865.16
854.348	11182.59
854.532	11024.9
854.715	11086.34
854.898	10969.6
855.081	10791.43
855.265	11063.81
855.448	11287.04
855.631	10588.68
855.814	10826.25
855.997	11059.71
856.181	10758.66
856.364	10740.23
856.547	10498.57
856.73	10963.46
856.913	11069.95
857.096	10619.4
857.279	10680.84
857.462	10881.54
857.645	11186.69
857.828	10844.68
858.011	10799.62
858.194	10738.18
858.377	10912.26
858.56	10525.19
858.743	10547.72
858.926	10396.17
859.109	10674.7
859.292	10224.14
859.475	10304.01
859.658	10762.76
859.841	10760.71
860.023	10320.4
860.206	10183.18
860.389	10727.94
860.572	10650.12
860.755	10349.07
860.937	10631.69
861.12	10580.49
861.303	10484.23
861.486	10418.7
861.668	10131.98
861.851	10648.07
862.034	10609.16
862.216	10314.25
862.399	10097.17
862.581	10467.85
862.764	10736.13
862.947	10295.82
863.129	10138.13
863.312	10314.25
863.494	10639.88
863.677	10336.78
863.859	10060.31
864.042	10318.35
864.224	10813.96
864.406	10080.78
864.589	9816.6
864.771	10349.07
864.954	10131.98
865.136	9843.22
865.318	9798.17
865.501	9921.04
865.683	9550.36
865.865	9837.08
866.048	9847.32
866.23	9990.67
866.412	9900.56
866.594	9726.49
866.777	9820.69
866.959	10236.43
867.141	9828.88
867.323	9925.14
867.505	10021.39
867.687	10107.41
867.869	10152.46
868.052	10019.35
868.234	9714.2
868.416	9974.29
868.598	10111.5
868.78	9759.25
868.962	9943.57
869.144	10267.15
869.326	10203.66
869.508	9738.77
869.69	9763.35
869.872	9781.78
870.054	10506.76
870.236	9619.99
870.417	9751.06
870.599	9908.76
870.781	10258.96
870.963	9787.93
871.145	9634.33
871.327	9681.43
871.508	10174.99
871.69	9607.7
871.872	9753.11
872.054	10021.39
872.235	10164.75
872.417	9792.02
872.599	9697.81
872.78	10084.88
872.962	10043.92
873.144	9474.59
873.325	9533.98
873.507	10041.87
873.689	9939.47
873.87	9331.23
874.052	9753.11
874.233	9863.7
874.415	10121.74
874.596	9890.32
874.778	9490.97
874.959	9822.74
875.141	10148.37
875.322	9622.04
875.503	9523.74
875.685	9988.63
875.866	9239.07
876.048	9529.88
876.229	9550.36
876.41	9816.6
876.592	10015.25
876.773	9644.57
876.954	9548.31
877.136	10177.04
877.317	9775.64
877.498	9548.31
877.679	9785.88
877.86	9949.71
878.042	9644.57
878.223	9699.86
878.404	10113.55
878.585	10068.5
878.766	10291.73
878.947	10181.14
879.128	9808.4
879.309	9855.51
879.49	10121.74
879.672	9812.5
879.853	9488.92
880.034	9685.53
880.215	9878.04
880.396	9818.64
880.576	9785.88
880.757	9966.1
880.938	10189.33
881.119	9640.47
881.3	9603.61
881.481	9749.01
881.662	10859.01
881.843	9828.88
882.023	9810.45
882.204	10211.85
882.385	10334.73
882.566	10191.38
882.747	9998.87
882.927	10199.57
883.108	10265.1
883.289	10013.2
883.469	10232.33
883.65	10209.81
883.831	10107.41
884.011	10195.47
884.192	10148.37
884.373	10568.2
884.553	10576.39
884.734	10258.96
884.914	10521.1
885.095	10881.54
885.275	10807.81
885.456	10332.68
885.636	10125.84
885.817	10306.06
885.997	10353.16
886.178	10056.21
886.358	10123.79
886.538	10654.22
886.719	11420.16
886.899	10318.35
887.08	10619.4
887.26	10627.59
887.44	10209.81
887.621	10496.52
887.801	10490.38
887.981	11112.96
888.161	10809.86
888.342	10381.84
888.522	10420.75
888.702	10914.31
888.882	10992.13
889.062	10478.09
889.242	10123.79
889.423	11043.33
889.603	10799.62
889.783	10770.95
889.963	10465.8
890.143	10818.05
890.323	10760.71
890.503	10496.52
890.683	10525.19
890.863	10598.92
891.043	10877.44
891.223	10652.17
891.403	10668.55
891.583	10678.79
891.763	10523.15
891.943	10578.44
892.122	10365.45
892.302	10607.11
892.482	10299.92
892.662	10580.49
892.842	10504.71
893.022	10639.88
893.201	10574.35
893.381	10611.21
893.561	10441.23
893.741	10975.75
893.92	10850.82
894.1	10498.57
894.28	10527.24
894.459	10940.93
894.639	10959.36
894.819	10576.39
894.998	10701.32
895.178	10779.14
895.357	10922.5
895.537	10654.22
895.716	10551.82
895.896	10940.93
896.075	10973.7
896.255	10492.43
896.434	10426.89
896.614	10914.31
896.793	11168.26
896.973	10699.27
897.152	10519.05
897.331	10727.94
897.511	10885.64
897.69	10308.11
897.87	10383.88
898.049	10869.25
898.228	10697.22
898.407	10572.3
898.587	10242.57
898.766	10328.59
898.945	10627.59
899.124	10471.95
899.304	10318.35
899.483	10680.84
899.662	11016.71
899.841	10168.85
900.02	10181.14
900.199	10709.51
900.378	10478.09
900.557	10127.89
900.737	10203.66
900.916	10613.26
901.095	10826.25
901.274	10306.06
901.453	9939.47
901.632	10183.18
901.811	10357.26
901.989	10205.71
902.168	10082.83
902.347	10390.03
902.526	10084.88
902.705	10113.55
902.884	10398.22
903.063	10816.01
903.242	10605.06
903.42	10172.94
903.599	10228.24
903.778	10512.91
903.957	10684.94
904.135	10279.44
904.314	10179.09
904.493	10220.05
904.672	10465.8
904.85	10041.87
905.029	10181.14
905.207	10248.72
905.386	11069.95
905.565	9810.45
905.743	9949.71
905.922	10064.4
906.1	10312.21
906.279	9859.6
906.457	9738.77
906.636	10140.18
906.814	9904.66
906.993	9832.98
907.171	9853.46
907.35	10213.9
907.528	10291.73
907.707	10109.46
907.885	9767.45
908.063	10461.71
908.242	9794.07
908.42	9607.7
908.598	9505.31
908.777	9949.71
908.955	9742.87
909.133	9753.11
909.311	9536.03
909.49	9632.28
909.668	9761.3
909.846	9583.13
910.024	9355.8
910.202	9880.08
910.38	9765.4
910.559	9300.51
910.737	9505.31
910.915	9726.49
911.093	9617.94
911.271	9462.3
911.449	9904.66
911.627	9857.56
911.805	9906.71
911.983	9478.68
912.161	9333.28
912.339	9648.66
912.517	9777.69
912.695	9417.24
912.872	9273.89
913.05	9300.51
913.228	9310.75
913.406	9355.8
913.584	9194.01
913.762	9396.76
913.939	9122.34
914.117	8958.5
914.295	9024.03
914.473	9523.74
914.65	9558.55
914.828	9134.62
915.006	8940.07
915.184	8985.12
915.361	9177.63
915.539	9095.71
915.716	9185.82
915.894	9079.33
916.072	9202.21
916.249	9122.34
916.427	8944.16
916.604	9021.98
916.782	8976.93
916.959	8688.17
917.137	8634.92
917.314	9069.09
917.492	9013.79
917.669	8763.94
917.847	8841.76
918.024	8958.5
918.201	8677.93
918.379	8688.17
918.556	8614.44
918.733	9083.42
918.911	8811.04
919.088	8856.1
919.265	8759.84
919.442	8899.11
919.62	8751.65
919.797	8530.47
919.974	8362.54
920.151	8649.25
920.328	8675.88
920.506	8526.38
920.683	8380.97
920.86	8176.17
921.037	8395.31
921.214	8284.72
921.391	8069.68
921.568	8620.58
921.745	8337.96
921.922	8376.87
922.099	8036.91
922.276	8669.73
922.453	8411.69
922.63	7965.23
922.807	8210.99
922.984	8280.62
923.161	8094.26
923.338	7952.95
923.514	7981.62
923.691	8127.02
923.868	8432.17
924.045	7586.36
924.222	7707.19
924.399	8188.46
924.575	8174.13
924.752	8053.3
924.929	8061.49
925.105	8129.07
925.282	7582.26
925.459	7629.37
925.635	7864.88
925.812	7844.4
925.989	7582.26
926.165	7551.54
926.342	7393.85
926.518	7397.95
926.695	7625.27
926.871	7316.03
927.048	7248.44
927.224	7629.37
927.401	7531.06
927.577	7213.63
927.754	7459.38
927.93	7801.4
928.107	7637.56
928.283	7191.1
928.459	7324.22
928.636	7660.09
928.812	7230.01
928.988	7178.81
929.165	7053.89
929.341	7172.67
929.517	7541.3
929.693	7508.54
929.87	6777.41
930.046	7354.94
930.222	6963.78
930.398	6820.42
930.574	7010.88
930.751	6832.71
930.927	6867.52
931.103	7166.53
931.279	6949.44
931.455	6539.85
931.631	6773.32
931.807	6574.66
931.983	6445.64
932.159	6560.33
932.335	6781.51
932.511	6640.2
932.687	6435.4
932.863	6572.61
933.039	6613.57
933.215	6251.08
933.391	6275.66
933.566	6431.3
933.742	6343.24
933.918	5976.66
934.094	5868.11
934.27	6183.5
934.445	6134.35
934.621	6113.87
934.797	5857.87
934.973	6152.78
935.148	6068.81
935.324	5743.19
935.5	5462.62
935.675	5974.61
935.851	5626.45
936.027	5499.48
936.202	5458.52
936.378	5632.6
936.553	5519.96
936.729	5782.1
936.904	5161.56
937.08	4885.09
937.255	5098.08
937.431	4665.96
937.606	4917.86
937.782	4858.46
937.957	4952.67
938.133	4807.27
938.308	4420.2
938.483	4715.11
938.659	4489.83
938.834	4475.49
939.009	4319.85
939.185	4309.61
939.36	4143.72
939.535	3977.84
939.71	4223.59
939.886	4600.42
940.061	4311.66
940.236	4133.48
940.411	3945.07
940.586	3949.17
940.761	4098.67
940.937	3859.06
941.112	3648.12
941.287	3846.77
941.462	3756.66
941.637	3480.18
941.812	3684.98
941.987	3881.58
942.162	3715.7
942.337	3568.24
942.512	3449.46
942.687	3666.55
942.862	3760.75
943.037	3304.06
943.212	3025.53
943.386	3469.94
943.561	3644.02
943.736	3521.14
943.911	3625.59
944.086	3562.1
944.26	3519.09
944.435	3363.45
944.61	3242.62
944.785	3801.71
944.959	3750.51
945.134	3220.09
945.309	3144.31
945.483	3160.7
945.658	3641.97
945.833	2953.85
946.007	3142.27
946.182	3811.95
946.357	3097.21
946.531	3048.06
946.706	3267.19
946.88	2943.61
947.055	3412.6
947.229	3109.5
947.404	3084.92
947.578	3627.64
947.752	3293.82
947.927	3058.3
948.101	3070.59
948.276	3326.58
948.45	3506.81
948.624	3302.01
948.799	3263.1
948.973	3486.33
949.147	3150.46
949.321	3314.3
949.496	3027.58
949.67	3451.51
949.844	3316.34
950.018	3330.68
950.193	3195.51
950.367	3781.23
950.541	3269.24
950.715	3416.69
950.889	3390.07
951.063	3320.44
951.237	3635.83
951.411	2939.52
951.585	3080.83
951.759	3525.24
951.933	3234.43
952.107	3144.31
952.281	3371.64
952.455	3754.61
952.629	3603.06
952.803	3207.8
952.977	3205.75
953.151	3531.38
953.325	3553.91
953.499	3250.81
953.672	3009.15
953.846	3103.36
954.02	3353.21
954.194	3078.78
954.368	3099.26
954.541	3492.47
954.715	3242.62
954.889	3134.07
955.062	3054.2
955.236	3322.49
955.41	3377.78
955.583	3254.91
955.757	2890.37
955.93	3162.75
956.104	2982.53
956.278	3072.64
956.451	3134.07
956.625	3250.81
956.798	3715.7
956.972	3349.11
957.145	2937.47
957.319	3295.86
957.492	3222.14
957.665	3322.49
957.839	2941.57
958.012	3308.15
958.185	3152.51
958.359	2998.91
958.532	3281.53
958.705	3398.26
958.879	3373.69
959.052	2980.48
959.225	2929.28
959.398	3240.57
959.572	3363.45
959.745	3072.64
959.918	3181.18
960.091	3246.71
960.264	3428.98
960.438	2892.41
960.611	2931.33
960.784	3232.38
960.957	3119.74
961.13	3416.69
961.303	3039.87
961.476	3066.49
961.649	3330.68
961.822	2812.54
961.995	2994.81
962.168	3345.02
962.341	3232.38
962.514	2919.04
962.686	2986.62
962.859	3277.43
963.032	3293.82
963.205	2978.43
963.378	2773.63
963.551	3150.46
963.723	3115.64
963.896	3025.53
964.069	2943.61
964.242	3142.27
964.414	3474.04
964.587	3101.31
964.76	3095.16
964.932	3144.31
965.105	2955.9
965.278	2914.94
965.45	2835.07
965.623	3177.08
965.795	3328.63
965.968	2947.71
966.14	2896.51
966.313	2902.65
966.485	3062.4
966.658	2923.13
966.83	2755.2
967.003	3332.73
967.175	3201.66
967.348	2955.9
967.52	2957.95
967.692	3283.58
967.865	3060.35
968.037	2867.84
968.209	3039.87
968.382	3052.16
968.554	3148.41
968.726	2886.27
968.898	2722.43
969.071	3142.27
969.243	3142.27
969.415	2720.39
969.587	2892.41
969.759	3467.89
969.932	3062.4
970.104	2771.58
970.276	2634.37
970.448	2855.55
970.62	2824.83
970.792	2919.04
970.964	2845.31
971.136	3373.69
971.308	3105.4
971.48	2781.82
971.652	2763.39
971.824	3375.74
971.996	2833.02
972.168	2663.04
972.339	2695.81
972.511	3201.66
972.683	2646.66
972.855	2888.32
973.027	2677.38
973.199	2802.3
973.37	3039.87
973.542	2816.64
973.714	2714.24
973.886	2812.54
974.057	2986.62
974.229	2515.59
974.401	2593.41
974.572	2546.31
974.744	2402.95
974.915	2468.49
975.087	2605.7
975.259	3103.36
975.43	2646.66
975.602	2515.59
975.773	2462.34
975.945	2636.42
976.116	2812.54
976.288	2466.44
976.459	2835.07
976.63	2683.52
976.802	2828.93
976.973	2443.91
977.145	2648.71
977.316	3091.07
977.487	2785.92
977.659	2644.61
977.83	2568.84
978.001	3015.29
978.172	2837.12
978.344	2427.53
978.515	2531.97
978.686	2572.93
978.857	2978.43
979.028	2556.55
979.2	2478.72
979.371	2978.43
979.542	2646.66
979.713	2646.66
979.884	2073.23
980.055	2554.5
980.226	2652.8
980.397	2413.19
980.568	2382.47
980.739	2873.98
980.91	2638.47
981.081	2560.64
981.252	2486.92
981.423	2804.35
981.594	2849.41
981.765	2257.54
981.936	2355.85
982.106	2570.88
982.277	2824.83
982.448	2280.07
982.619	2482.82
982.79	2417.29
982.96	2798.21
983.131	2427.53
983.302	2144.91
983.472	2499.2
983.643	2595.46
983.814	2454.15
983.984	2316.94
984.155	2376.33
984.326	2851.46
984.496	2370.18
984.667	2302.6
984.837	2321.03
985.008	2693.76
985.178	2458.25
985.349	2325.13
985.519	2376.33
985.69	2196.11
985.86	2187.91
986.031	2282.12
986.201	2427.53
986.371	2585.22
986.542	2226.82
986.712	2052.75
986.882	2511.49
987.053	2437.77
987.223	2192.01
987.393	2214.54
987.563	2241.16
987.734	2531.97
987.904	2425.48
988.074	2251.4
988.244	2478.72
988.414	2224.78
988.585	2226.82
988.755	2243.21
988.925	2300.55
989.095	2685.57
989.265	2183.82
989.435	2251.4
989.605	2493.06
989.775	2366.09
989.945	2542.21
990.115	2050.7
990.285	2314.89
990.455	2405
990.625	2157.19
990.795	2015.88
990.965	2667.14
991.134	2116.23
991.304	1976.97
991.474	2054.8
991.644	2282.12
991.814	2542.21
991.984	1907.34
992.153	2011.79
992.323	2251.4
992.493	2255.5
992.662	1770.13
992.832	2224.78
993.002	2300.55
993.171	2177.67
993.341	1837.71
993.511	2194.06
993.68	2017.93
993.85	2347.65
994.019	1735.31
994.189	1917.58
994.358	2105.99
994.528	2073.23
994.697	1712.78
994.867	1845.9
995.036	2257.54
995.206	1999.5
995.375	1817.23
995.544	2042.51
995.714	2126.47
995.883	2036.36
996.052	2036.36
996.222	1694.35
996.391	2650.75
996.56	2097.8
996.73	1778.32
996.899	1669.78
997.068	2513.54
997.237	1950.35
997.406	1837.71
997.576	1651.35
997.745	2005.64
997.914	1913.49
998.083	1651.35
998.252	1921.68
998.421	1882.77
998.59	1806.99
998.759	1755.79
998.928	1727.12
999.097	2257.54
999.266	2257.54
999.435	1903.25
999.604	1606.29
999.773	2431.62
999.942	1942.16
1000.111	1690.26
1000.28	1514.13
1000.448	1720.98
1000.617	1813.14
1000.786	1866.38
1000.955	1467.03
1001.124	1993.36
1001.292	2656.9
1001.461	1608.34
1001.63	1634.96
1001.798	2247.3
1001.967	2216.58
1002.136	1518.23
1002.304	1528.47
1002.473	1972.88
1002.642	1911.44
1002.81	1571.47
1002.979	1532.56
1003.147	2067.08
1003.316	2325.13
1003.484	1618.58
1003.653	1551
1003.821	2159.24
1003.99	1778.32
1004.158	1643.15
1004.327	1714.83
1004.495	2050.7
1004.663	1526.42
1004.832	1712.78
1005	1481.36
1005.168	1968.78
1005.337	1872.53
1005.505	1450.64
1005.673	1751.7
1005.842	1948.3
1006.01	1870.48
1006.178	1409.69
1006.346	1473.17
1006.514	1936.01
1006.683	1974.92
1006.851	1485.46
1007.019	1288.86
1007.187	1526.42
1007.355	1247.9
1007.523	1262.23
1007.691	1251.99
1007.859	1335.96
1008.027	2003.6
1008.195	1485.46
1008.363	1305.24
1008.531	1919.63
1008.699	1436.31
1008.867	1264.28
1009.035	1251.99
1009.203	1856.14
1009.37	1581.71
1009.538	1383.06
1009.706	1749.65
1009.874	1589.91
1010.042	1555.09
1010.209	1133.21
1010.377	1206.94
1010.545	1747.6
1010.713	1565.33
1010.88	1223.32
1011.048	1245.85
1011.216	1473.17
1011.383	1903.25
1011.551	1247.9
1011.718	1249.94
1011.886	1882.77
1012.054	1610.39
1012.221	1266.33
1012.389	1307.29
1012.556	1395.35
1012.724	1956.49
1012.891	1297.05
1013.058	1075.87
1013.226	1690.26
1013.393	1675.92
1013.561	1090.2
1013.728	1137.31
1013.895	1585.81
1014.063	1692.3
1014.23	1100.44
1014.397	1219.22
1014.565	1694.35
1014.732	1497.75
1014.899	1211.03
1015.066	948.89
1015.233	1462.93
1015.401	1622.67
1015.568	1198.74
1015.735	1202.84
1015.902	1372.82
1016.069	1571.47
1016.236	1168.02
1016.403	1018.52
1016.57	1274.52
1016.737	1493.65
1016.904	1065.63
1017.071	1084.06
1017.238	1260.18
1017.405	1487.51
1017.572	1079.96
1017.739	1403.54
1017.906	1507.99
1018.073	1495.7
1018.24	952.99
1018.407	1178.26
1018.573	1575.57
1018.74	1335.96
1018.907	1161.88
1019.074	981.66
1019.241	1495.7
1019.407	1440.4
1019.574	961.18
1019.741	967.32
1019.907	1333.91
1020.074	1311.38
1020.241	803.49
1020.407	912.03
1020.574	1381.01
1020.74	1315.48
1020.907	936.6
1021.073	791.2
1021.24	1731.22
1021.406	1616.53
1021.573	942.75
1021.739	787.1
1021.906	1348.25
1022.072	1055.39
1022.239	783.01
1022.405	961.18
1022.571	1223.32
1022.738	955.04
1022.904	973.47
1023.07	909.98
1023.237	1159.83
1023.403	1483.41
1023.569	916.12
1023.735	944.8
1023.902	1161.88
1024.068	1305.24
1024.234	725.66
1024.4	883.36
1024.566	1251.99
1024.732	1284.76
1024.898	805.53
1025.065	690.85
1025.231	1338.01
1025.397	936.6
1025.563	899.74
1025.729	717.47
1025.895	705.18
1026.061	1036.95
1026.227	658.08
1026.392	696.99
1026.558	1354.39
1026.724	1192.6
1026.89	832.16
1027.056	836.25
1027.222	1280.66
1027.388	1051.29
1027.553	680.61
1027.719	598.69
1027.885	1473.17
1028.051	1219.22
1028.216	688.8
1028.382	815.77
1028.548	1190.55
1028.713	1043.1
1028.879	627.36
1029.045	879.26
1029.21	1411.73
1029.376	1356.44
1029.541	858.78
1029.707	770.72
1029.873	1110.68
1030.038	1256.09
1030.204	756.38
1030.369	668.32
1030.534	1217.18
1030.7	967.32
1030.865	717.47
1031.031	735.9
1031.196	1161.88
1031.361	1043.1
1031.527	631.46
1031.692	629.41
1031.857	543.39
1032.023	1098.39
1032.188	674.46
1032.353	684.7
1032.518	1479.32
1032.684	1053.34
1032.849	510.63
1033.014	664.22
1033.179	1202.84
1033.344	1063.58
1033.509	821.92
1033.674	658.08
1033.839	1098.39
1034.004	1098.39
1034.17	623.27
1034.335	537.25
1034.5	756.38
1034.664	848.54
1034.829	641.7
1034.994	715.42
1035.159	1030.81
1035.324	1075.87
1035.489	563.87
1035.654	627.36
1035.819	1196.7
1035.984	1010.33
1036.148	635.55
1036.313	582.31
1036.478	1096.35
1036.643	887.45
1036.807	625.31
1036.972	449.19
1037.137	1217.18
1037.301	873.12
1037.466	432.8
1037.631	656.03
1037.795	1229.46
1037.96	866.97
1038.124	715.42
1038.289	430.76
1038.454	1051.29
1038.618	920.22
1038.783	543.39
1038.947	559.78
1039.111	916.12
1039.276	731.81
1039.44	484
1039.605	858.78
1039.769	875.17
1039.933	862.88
1040.098	602.79
1040.262	729.76
1040.426	1036.95
1040.591	940.7
1040.755	453.28
1040.919	576.16
1041.083	854.69
1041.248	758.43
1041.412	416.42
1041.576	330.41
1041.74	699.04
1041.904	969.37
1042.068	467.62
1042.232	459.43
1042.397	1002.14
1042.561	926.36
1042.725	254.63
1042.889	627.36
1043.053	969.37
1043.217	897.69
1043.381	658.08
1043.544	365.22
1043.708	1088.15
1043.872	637.6
1044.036	121.51
1044.2	305.83
1044.364	1034.91
1044.528	1133.21
1044.691	3066.49
1044.855	268.97
1045.019	1000.09
1045.183	895.65
1045.346	486.05
1045.51	424.61
1045.674	750.24
1045.837	914.08
1046.001	514.72
1046.165	352.93
1046.328	1321.62
1046.492	826.01
1046.655	584.35
1046.819	492.2
1046.983	510.63
1047.146	901.79
1047.31	481.96
1047.473	271.01
1047.636	621.22
1047.8	457.38
1047.963	422.56
1048.127	373.41
1048.29	537.25
