Data from Ink_Intensity_USB4F045381__58__00058.txt Node

Date: Mon Jul 17 10:22:00 EDT 2023
User: mmckonesweet
Spectrometer: USB4F04538
Trigger mode: 4
Integration Time (sec): 9.000000E-1
Scans to average: 1
Electric dark correction enabled: true
Nonlinearity correction enabled: false
Boxcar width: 0
XAxis mode: Wavelengths
Number of Pixels in Spectrum: 3648
>>>>>Begin Spectral Data<<<<<
345.52	-987.63
345.736	-987.63
345.952	-987.63
346.168	-1016.3
346.384	-1053.17
346.6	-158.21
346.816	-246.27
347.032	-193.02
347.248	251.39
347.464	-207.36
347.68	-154.11
347.896	126.46
348.112	364.03
348.328	-72.19
348.544	-57.86
348.76	79.36
348.975	267.77
349.191	-227.84
349.407	-123.39
349.623	1.54
349.839	-162.3
350.055	-174.59
350.27	28.16
350.486	118.27
350.702	251.39
350.918	220.67
351.133	-186.88
351.349	128.51
351.565	370.17
351.781	-207.36
351.996	42.5
352.212	321.02
352.428	-131.58
352.644	-236.03
352.859	-182.78
353.075	259.58
353.291	167.42
353.506	-160.25
353.722	-342.52
353.938	-61.95
354.153	452.09
354.369	140.8
354.584	-248.32
354.8	300.54
355.016	-363
355.231	-219.64
355.447	-72.19
355.662	56.83
355.878	847.35
356.093	-371.19
356.309	-4.61
356.524	-244.22
356.74	222.72
356.955	-178.69
357.171	-119.29
357.386	173.57
357.602	-240.12
357.817	-117.25
358.033	-219.64
358.248	341.5
358.464	124.41
358.679	-184.83
358.895	-328.19
359.11	-23.04
359.325	290.3
359.541	-64
359.756	38.4
359.972	-350.71
360.187	124.41
360.402	-254.46
360.618	-193.02
360.833	890.35
361.048	126.46
361.264	-145.92
361.479	-92.67
361.694	-72.19
361.909	75.26
362.125	-207.36
362.34	-158.21
362.555	222.72
362.77	71.17
362.986	-305.66
363.201	-217.6
363.416	192
363.631	-41.47
363.847	-170.49
364.062	-180.73
364.277	140.8
364.492	114.17
364.707	-131.58
364.922	-387.58
365.138	269.82
365.353	364.03
365.568	-266.75
365.783	-154.11
365.998	-33.28
366.213	513.53
366.428	-272.89
366.643	-2.56
366.858	216.57
367.073	192
367.288	-92.67
367.503	-231.93
367.718	56.83
367.933	253.44
368.148	-285.18
368.363	-154.11
368.578	-6.66
368.793	394.75
369.008	-150.01
369.223	-272.89
369.438	165.37
369.653	419.32
369.868	-205.31
370.083	-246.27
370.298	-27.14
370.513	261.63
370.728	13.82
370.943	-123.39
371.157	-174.59
371.372	464.38
371.587	-180.73
371.802	-260.6
372.017	46.59
372.232	421.37
372.446	-6.66
372.661	-250.36
372.876	237.05
373.091	214.52
373.306	-113.15
373.52	-223.74
373.735	-229.88
373.95	368.12
374.165	-90.62
374.379	-121.34
374.594	-111.1
374.809	157.18
375.023	19.97
375.238	-260.6
375.453	179.71
375.667	-219.64
375.882	-215.55
376.097	-211.45
376.311	-35.33
376.526	-123.39
376.741	-215.55
376.955	56.83
377.17	505.34
377.384	501.24
377.599	-162.3
377.813	-260.6
378.028	591.35
378.242	120.32
378.457	-104.96
378.672	-375.29
378.886	17.92
379.101	-31.23
379.315	-301.56
379.53	-229.88
379.744	226.81
379.958	265.72
380.173	-197.12
380.387	-203.26
380.602	110.08
380.816	-76.29
381.031	-154.11
381.245	-150.01
381.459	230.91
381.674	2700.76
381.888	-299.52
382.103	-6.66
382.317	-186.88
382.531	472.57
382.746	-96.77
382.96	-209.4
383.174	-10.75
383.388	294.4
383.603	50.69
383.817	-301.56
384.031	144.89
384.246	456.19
384.46	-45.57
384.674	327.16
384.888	44.54
385.103	52.74
385.317	-297.47
385.531	-96.77
385.745	275.96
385.959	269.82
386.174	-143.87
386.388	-252.41
386.602	71.17
386.816	-197.12
387.03	-39.42
387.244	-121.34
387.458	28.16
387.672	390.65
387.887	-276.99
388.101	-221.69
388.315	337.4
388.529	163.33
388.743	-158.21
388.957	-238.08
389.171	304.64
389.385	-94.72
389.599	-166.4
389.813	30.21
390.027	157.18
390.241	601.59
390.455	-141.82
390.669	-129.53
390.883	-14.85
391.097	316.92
391.311	13.82
391.525	-139.77
391.738	73.21
391.952	148.99
392.166	-61.95
392.38	-272.89
392.594	224.76
392.808	312.83
393.022	-66.05
393.236	-133.63
393.449	222.72
393.663	138.75
393.877	-334.33
394.091	-141.82
394.305	-43.52
394.518	-96.77
394.732	-248.32
394.946	-211.45
395.16	411.13
395.373	169.47
395.587	-262.65
395.801	-276.99
396.015	329.21
396.228	161.28
396.442	-182.78
396.656	-373.24
396.869	349.69
397.083	470.52
397.297	-55.81
397.51	-80.38
397.724	355.83
397.938	153.09
398.151	-317.95
398.365	-231.93
398.578	212.48
398.792	370.17
399.005	-80.38
399.219	-156.16
399.433	101.89
399.646	226.81
399.86	17.92
400.073	-70.14
400.287	214.52
400.5	-88.57
400.714	-61.95
400.927	-45.57
401.141	192
401.354	1007.09
401.567	183.81
401.781	-307.71
401.994	327.16
402.208	511.48
402.421	-162.3
402.635	-111.1
402.848	44.54
403.061	288.25
403.275	-123.39
403.488	-229.88
403.701	402.94
403.915	224.76
404.128	-47.62
404.341	-31.23
404.555	202.24
404.768	42.5
404.981	36.35
405.195	-205.31
405.408	402.94
405.621	161.28
405.834	-76.29
406.048	-266.75
406.261	456.19
406.474	447.99
406.687	-203.26
406.9	-27.14
407.114	-2.56
407.327	62.98
407.54	-330.23
407.753	-301.56
407.966	-96.77
408.179	237.05
408.392	-211.45
408.605	-252.41
408.819	148.99
409.032	175.61
409.245	-190.97
409.458	9.73
409.671	235
409.884	245.24
410.097	-260.6
410.31	-23.04
410.523	130.56
410.736	-6.66
410.949	-125.44
411.162	-143.87
411.375	400.89
411.588	185.85
411.801	11.78
412.014	-201.21
412.227	32.26
412.44	-123.39
412.653	-250.36
412.865	-96.77
413.078	239.1
413.291	181.76
413.504	-125.44
413.717	-123.39
413.93	202.24
414.143	-176.64
414.356	-229.88
414.568	-211.45
414.781	251.39
414.994	97.79
415.207	-129.53
415.42	-121.34
415.632	243.2
415.845	486.9
416.058	-330.23
416.271	-115.2
416.483	-18.94
416.696	437.75
416.909	-193.02
417.121	-113.15
417.334	128.51
417.547	587.26
417.759	-195.07
417.972	-281.08
418.185	-119.29
418.397	239.1
418.61	-188.93
418.823	-158.21
419.035	368.12
419.248	60.93
419.46	-27.14
419.673	-119.29
419.885	177.66
420.098	-12.8
420.311	-188.93
420.523	-350.71
420.736	165.37
420.948	42.5
421.161	-256.51
421.373	-258.56
421.586	93.69
421.798	-109.05
422.01	-291.32
422.223	-57.86
422.435	-82.43
422.648	294.4
422.86	-231.93
423.073	-197.12
423.285	331.26
423.497	-242.17
423.71	-207.36
423.922	-264.7
424.134	79.36
424.347	394.75
424.559	-4.61
424.771	118.27
424.984	-4.61
425.196	112.13
425.408	-258.56
425.621	-281.08
425.833	306.68
426.045	228.86
426.257	-217.6
426.47	-262.65
426.682	110.08
426.894	148.99
427.106	-164.35
427.318	-188.93
427.531	-127.49
427.743	226.81
427.955	-182.78
428.167	189.95
428.379	144.89
428.591	-35.33
428.804	-0.51
429.016	-258.56
429.228	-90.62
429.44	202.24
429.652	42.5
429.864	-211.45
430.076	-2.56
430.288	-29.18
430.5	-141.82
430.712	-117.25
430.924	314.88
431.136	79.36
431.348	-426.49
431.56	-209.4
431.772	67.07
431.984	-96.77
432.196	-258.56
432.408	-131.58
432.62	-86.53
432.832	159.23
433.044	65.02
433.256	-94.72
433.468	222.72
433.679	-248.32
433.891	-217.6
434.103	-31.23
434.315	284.16
434.527	138.75
434.739	-80.38
434.95	-131.58
435.162	251.39
435.374	-121.34
435.586	-129.53
435.798	-252.41
436.009	-137.73
436.221	-66.05
436.433	-158.21
436.645	-135.68
436.856	-121.34
437.068	228.86
437.28	-266.75
437.491	48.64
437.703	93.69
437.915	206.33
438.126	-141.82
438.338	-0.51
438.55	11.78
438.761	222.72
438.973	-158.21
439.184	-92.67
439.396	19.97
439.608	286.2
439.819	-317.95
440.031	-59.9
440.242	128.51
440.454	167.42
440.665	-203.26
440.877	-145.92
441.088	85.5
441.3	-31.23
441.511	-305.66
441.723	-262.65
441.934	165.37
442.146	89.6
442.357	5.63
442.569	-20.99
442.78	-2.56
442.991	464.38
443.203	140.8
443.414	-215.55
443.626	409.08
443.837	-129.53
444.048	-309.76
444.26	-360.95
444.471	60.93
444.682	194.05
444.894	-363
445.105	-340.47
445.316	288.25
445.528	167.42
445.739	-119.29
445.95	-188.93
446.161	161.28
446.373	372.22
446.584	-219.64
446.795	-162.3
447.006	235
447.217	386.55
447.429	-365.05
447.64	-248.32
447.851	259.58
448.062	192
448.273	-371.19
448.484	-236.03
448.695	110.08
448.907	-117.25
449.118	-160.25
449.329	-31.23
449.54	-74.24
449.751	-193.02
449.962	-162.3
450.173	-250.36
450.384	353.79
450.595	318.97
450.806	-190.97
451.017	-129.53
451.228	323.07
451.439	196.09
451.65	-242.17
451.861	-344.57
452.072	-305.66
452.283	-39.42
452.494	-57.86
452.705	-227.84
452.915	316.92
453.126	116.22
453.337	-231.93
453.548	-340.47
453.759	294.4
453.97	550.39
454.181	30.21
454.391	-107.01
454.602	75.26
454.813	85.5
455.024	-121.34
455.235	-219.64
455.445	97.79
455.656	169.47
455.867	-96.77
456.078	-287.23
456.288	-96.77
456.499	118.27
456.71	-270.84
456.921	-14.85
457.131	52.74
457.342	124.41
457.553	-141.82
457.763	-168.45
457.974	192
458.184	288.25
458.395	-209.4
458.606	-186.88
458.816	337.4
459.027	425.47
459.237	-88.57
459.448	-408.06
459.659	282.11
459.869	513.53
460.08	-395.77
460.29	-90.62
460.501	460.28
460.711	-152.06
460.922	-342.52
461.132	-178.69
461.343	703.99
461.553	-303.61
461.764	-215.55
461.974	-207.36
462.184	159.23
462.395	112.13
462.605	-133.63
462.816	-311.8
463.026	87.55
463.236	318.97
463.447	-317.95
463.657	-231.93
463.867	196.09
464.078	34.3
464.288	-156.16
464.498	-250.36
464.709	-18.94
464.919	-61.95
465.129	-125.44
465.339	-274.94
465.55	75.26
465.76	241.15
465.97	-205.31
466.18	-248.32
466.391	247.29
466.601	226.81
466.811	-152.06
467.021	-315.9
467.231	99.84
467.441	359.93
467.651	-145.92
467.862	-389.63
468.072	83.45
468.282	325.12
468.492	-207.36
468.702	-190.97
468.912	52.74
469.122	544.25
469.332	52.74
469.542	-268.8
469.752	230.91
469.962	28.16
470.172	-336.38
470.382	-199.16
470.592	218.62
470.802	243.2
471.012	-131.58
471.222	-340.47
471.432	331.26
471.642	200.19
471.852	-88.57
472.062	-248.32
472.272	7.68
472.482	-229.88
472.691	-223.74
472.901	-375.29
473.111	56.83
473.321	577.02
473.531	-270.84
473.741	-168.45
473.95	77.31
474.16	269.82
474.37	-240.12
474.58	-342.52
474.79	529.91
474.999	220.67
475.209	-242.17
475.419	-281.08
475.628	-10.75
475.838	275.96
476.048	-180.73
476.258	-297.47
476.467	339.45
476.677	-135.68
476.886	-47.62
477.096	-117.25
477.306	-78.33
477.515	382.46
477.725	-127.49
477.935	-109.05
478.144	325.12
478.354	-137.73
478.563	-160.25
478.773	-264.7
478.982	159.23
479.192	325.12
479.401	-145.92
479.611	-221.69
479.82	-31.23
480.03	79.36
480.239	-270.84
480.449	-256.51
480.658	417.27
480.868	-158.21
481.077	-195.07
481.287	-231.93
481.496	95.74
481.705	413.18
481.915	-51.71
482.124	-4.61
482.333	101.89
482.543	376.31
482.752	-135.68
482.961	-322.04
483.171	200.19
483.38	81.41
483.589	-104.96
483.799	-238.08
484.008	126.46
484.217	255.48
484.426	-160.25
484.636	-334.33
484.845	17.92
485.054	-168.45
485.263	67.07
485.472	-100.86
485.682	376.31
485.891	157.18
486.1	-285.18
486.309	-156.16
486.518	163.33
486.727	296.44
486.936	-342.52
487.146	-211.45
487.355	478.71
487.564	-160.25
487.773	-195.07
487.982	-223.74
488.191	-107.01
488.4	65.02
488.609	-215.55
488.818	-172.54
489.027	542.2
489.236	255.48
489.445	-184.83
489.654	-260.6
489.863	251.39
490.072	-0.51
490.281	62.98
490.49	-203.26
490.698	419.32
490.907	343.55
491.116	-156.16
491.325	-328.19
491.534	380.41
491.743	48.64
491.952	-156.16
492.16	-113.15
492.369	134.65
492.578	177.66
492.787	-209.4
492.996	-317.95
493.204	-139.77
493.413	464.38
493.622	-420.35
493.831	-365.05
494.039	382.46
494.248	-242.17
494.457	-229.88
494.665	-291.32
494.874	181.76
495.083	515.58
495.291	-121.34
495.5	-281.08
495.709	171.52
495.917	105.98
496.126	-174.59
496.335	-268.8
496.543	-53.76
496.752	95.74
496.96	-18.94
497.169	-379.39
497.377	1.54
497.586	253.44
497.794	-135.68
498.003	-408.06
498.211	7.68
498.42	339.45
498.628	-190.97
498.837	-283.13
499.045	91.65
499.254	146.94
499.462	-281.08
499.671	-252.41
499.879	306.68
500.087	249.34
500.296	-309.76
500.504	-190.97
500.713	165.37
500.921	574.97
501.129	-293.37
501.338	-219.64
501.546	169.47
501.754	40.45
501.962	-236.03
502.171	-313.85
502.379	126.46
502.587	396.79
502.795	-205.31
503.004	-221.69
503.212	89.6
503.42	333.31
503.628	-221.69
503.837	-119.29
504.045	134.65
504.253	427.51
504.461	-285.18
504.669	-309.76
504.877	120.32
505.085	357.88
505.294	-360.95
505.502	-29.18
505.71	67.07
505.918	230.91
506.126	-311.8
506.334	-256.51
506.542	-74.24
506.75	87.55
506.958	-125.44
507.166	-182.78
507.374	-84.48
507.582	468.47
507.79	-190.97
507.998	-322.04
508.206	65.02
508.414	144.89
508.622	-276.99
508.83	-133.63
509.037	316.92
509.245	30.21
509.453	-238.08
509.661	-211.45
509.869	187.9
510.077	7.68
510.285	-154.11
510.492	-408.06
510.7	607.73
510.908	-31.23
511.116	-195.07
511.324	-276.99
511.531	-18.94
511.739	60.93
511.947	-145.92
512.155	28.16
512.362	54.78
512.57	-154.11
512.778	-250.36
512.985	-356.86
513.193	255.48
513.401	525.82
513.608	-162.3
513.816	-229.88
514.024	247.29
514.231	310.78
514.439	-307.71
514.646	-195.07
514.854	218.62
515.061	312.83
515.269	-276.99
515.477	-176.64
515.684	-174.59
515.892	343.55
516.099	-381.43
516.307	-266.75
516.514	224.76
516.722	445.95
516.929	-182.78
517.136	-311.8
517.344	386.55
517.551	136.7
517.759	-190.97
517.966	-262.65
518.173	-20.99
518.381	36.35
518.588	-203.26
518.796	-188.93
519.003	355.83
519.21	17.92
519.418	-315.9
519.625	50.69
519.832	36.35
520.039	189.95
520.247	-358.91
520.454	-268.8
520.661	267.77
520.868	192
521.076	-236.03
521.283	-162.3
521.49	589.3
521.697	124.41
521.904	-199.16
522.112	-215.55
522.319	290.3
522.526	249.34
522.733	-410.11
522.94	-305.66
523.147	9.73
523.354	329.21
523.561	-406.01
523.768	-203.26
523.975	296.44
524.183	79.36
524.39	-213.5
524.597	-279.04
524.804	32.26
525.011	-82.43
525.218	-336.38
525.425	-299.52
525.632	288.25
525.838	-80.38
526.045	-238.08
526.252	-276.99
526.459	1078.77
526.666	794.1
526.873	-225.79
527.08	-242.17
527.287	368.12
527.494	298.49
527.701	-322.04
527.907	-264.7
528.114	251.39
528.321	69.12
528.528	-152.06
528.735	-373.24
528.941	-76.29
529.148	-104.96
529.355	-160.25
529.562	-225.79
529.768	372.22
529.975	-14.85
530.182	-215.55
530.388	-268.8
530.595	237.05
530.802	-229.88
531.008	-68.09
531.215	-242.17
531.422	728.56
531.628	769.52
531.835	-145.92
532.042	-115.2
532.248	-43.52
532.455	118.27
532.661	-129.53
532.868	-270.84
533.074	93.69
533.281	208.38
533.487	-240.12
533.694	-348.67
533.9	-135.68
534.107	271.87
534.313	-313.85
534.52	-301.56
534.726	275.96
534.933	560.63
535.139	-332.28
535.345	-399.87
535.552	142.85
535.758	87.55
535.965	-285.18
536.171	-291.32
536.377	230.91
536.584	318.97
536.79	-223.74
536.996	-186.88
537.203	89.6
537.409	159.23
537.615	-215.55
537.821	-59.9
538.028	273.92
538.234	226.81
538.44	-227.84
538.646	-125.44
538.853	128.51
539.059	1.54
539.265	169.47
539.471	-418.3
539.677	263.68
539.883	-37.38
540.09	-252.41
540.296	159.23
540.502	17.92
540.708	-80.38
540.914	-57.86
541.12	-242.17
541.326	189.95
541.532	-14.85
541.738	-47.62
541.944	-207.36
542.15	296.44
542.356	24.06
542.562	-283.13
542.768	-174.59
542.974	689.65
543.18	443.9
543.386	-227.84
543.592	-406.01
543.798	398.84
544.004	329.21
544.21	-260.6
544.415	-150.01
544.621	114.17
544.827	316.92
545.033	-309.76
545.239	15.87
545.445	-57.86
545.651	116.22
545.856	-299.52
546.062	-233.98
546.268	-109.05
546.474	67.07
546.679	-174.59
546.885	-135.68
547.091	-2.56
547.297	458.23
547.502	-158.21
547.708	-270.84
547.914	-72.19
548.119	153.09
548.325	-270.84
548.531	-350.71
548.736	390.65
548.942	-8.7
549.147	-242.17
549.353	-10.75
549.559	388.6
549.764	185.85
549.97	-197.12
550.175	-219.64
550.381	161.28
550.586	1.54
550.792	-131.58
550.997	-166.4
551.203	181.76
551.408	282.11
551.614	-309.76
551.819	-328.19
552.025	409.08
552.23	501.24
552.435	-346.62
552.641	-127.49
552.846	-98.81
553.052	280.06
553.257	-6.66
553.462	-223.74
553.668	-31.23
553.873	224.76
554.078	-207.36
554.283	-276.99
554.489	148.99
554.694	9.73
554.899	-262.65
555.105	-14.85
555.31	214.52
555.515	259.58
555.72	-84.48
555.925	-221.69
556.131	282.11
556.336	-57.86
556.541	-223.74
556.746	-309.76
556.951	370.17
557.156	419.32
557.361	-133.63
557.567	-111.1
557.772	511.48
557.977	167.42
558.182	-180.73
558.387	-305.66
558.592	-88.57
558.797	390.65
559.002	-154.11
559.207	-92.67
559.412	22.02
559.617	497.14
559.822	-180.73
560.027	-264.7
560.232	101.89
560.437	140.8
560.642	-393.72
560.847	-246.27
561.051	112.13
561.256	189.95
561.461	-193.02
561.666	-363
561.871	146.94
562.076	226.81
562.281	-92.67
562.485	-313.85
562.69	271.87
562.895	361.98
563.1	-166.4
563.305	-309.76
563.509	294.4
563.714	615.93
563.919	-180.73
564.123	-272.89
564.328	71.17
564.533	314.88
564.737	-100.86
564.942	-168.45
565.147	439.8
565.351	597.49
565.556	-59.9
565.761	-197.12
565.965	173.57
566.17	-184.83
566.374	-207.36
566.579	-326.14
566.784	95.74
566.988	-29.18
567.193	-301.56
567.397	-164.35
567.602	-231.93
567.806	97.79
568.011	-199.16
568.215	-143.87
568.42	-8.7
568.624	103.93
568.828	-195.07
569.033	-61.95
569.237	257.53
569.442	214.52
569.646	-311.8
569.85	-246.27
570.055	-55.81
570.259	144.89
570.463	-35.33
570.668	-215.55
570.872	40.45
571.076	132.61
571.281	-47.62
571.485	-129.53
571.689	65.02
571.893	331.26
572.098	-39.42
572.302	-154.11
572.506	194.05
572.71	91.65
572.914	-90.62
573.119	-135.68
573.323	386.55
573.527	409.08
573.731	-197.12
573.935	-301.56
574.139	108.03
574.343	-137.73
574.547	-248.32
574.751	-137.73
574.955	413.18
575.159	376.31
575.364	-203.26
575.568	-326.14
575.772	44.54
575.976	404.99
576.18	-240.12
576.383	-293.37
576.587	341.5
576.791	153.09
576.995	-346.62
577.199	-426.49
577.403	419.32
577.607	384.51
577.811	-240.12
578.015	-154.11
578.219	97.79
578.422	286.2
578.626	-137.73
578.83	-113.15
579.034	364.03
579.238	146.94
579.442	-207.36
579.645	99.84
579.849	89.6
580.053	140.8
580.257	-145.92
580.46	-109.05
580.664	378.36
580.868	267.77
581.071	67.07
581.275	-18.94
581.479	-182.78
581.682	267.77
581.886	-205.31
582.09	-111.1
582.293	257.53
582.497	343.55
582.7	-39.42
582.904	-205.31
583.107	134.65
583.311	95.74
583.515	-184.83
583.718	-147.97
583.922	167.42
584.125	544.25
584.329	-203.26
584.532	-47.62
584.735	388.6
584.939	204.28
585.142	-256.51
585.346	-240.12
585.549	243.2
585.753	36.35
585.956	-145.92
586.159	-88.57
586.363	534.01
586.566	198.14
586.769	-219.64
586.973	-256.51
587.176	243.2
587.379	368.12
587.582	146.94
587.786	116.22
587.989	65.02
588.192	732.66
588.395	-111.1
588.599	62.98
588.802	214.52
589.005	273.92
589.208	-186.88
589.411	-100.86
589.615	339.45
589.818	439.8
590.021	128.51
590.224	-109.05
590.427	372.22
590.63	239.1
590.833	-338.43
591.036	-266.75
591.239	1.54
591.442	52.74
591.645	38.4
591.848	-231.93
592.051	181.76
592.254	353.79
592.457	-135.68
592.66	-64
592.863	24.06
593.066	214.52
593.269	-121.34
593.472	-68.09
593.675	-72.19
593.878	331.26
594.081	7.68
594.284	-209.4
594.486	263.68
594.689	265.72
594.892	-2.56
595.095	-55.81
595.298	192
595.5	54.78
595.703	1.54
595.906	15.87
596.109	517.62
596.311	364.03
596.514	-422.39
596.717	-31.23
596.92	372.22
597.122	200.19
597.325	-289.28
597.528	-170.49
597.73	427.51
597.933	95.74
598.136	-168.45
598.338	-358.91
598.541	316.92
598.743	347.64
598.946	-115.2
599.148	-121.34
599.351	394.75
599.554	411.13
599.756	26.11
599.959	-94.72
600.161	345.59
600.363	697.85
600.566	58.88
600.768	-240.12
600.971	574.97
601.173	284.16
601.376	-76.29
601.578	-100.86
601.78	183.81
601.983	671.22
602.185	-201.21
602.388	30.21
602.59	237.05
602.792	-2.56
602.995	48.64
603.197	-96.77
603.399	398.84
603.601	247.29
603.804	-109.05
604.006	-133.63
604.208	108.03
604.41	-254.46
604.613	38.4
604.815	-117.25
605.017	728.56
605.219	17.92
605.421	275.96
605.623	-107.01
605.826	415.23
606.028	454.14
606.23	-109.05
606.432	-92.67
606.634	595.45
606.836	488.95
607.038	-315.9
607.24	110.08
607.442	222.72
607.644	194.05
607.846	54.78
608.048	-147.97
608.25	501.24
608.452	-14.85
608.654	-125.44
608.856	-303.61
609.058	103.93
609.26	323.07
609.462	-76.29
609.664	-25.09
609.866	562.68
610.067	376.31
610.269	87.55
610.471	-68.09
610.673	54.78
610.875	314.88
611.077	-199.16
611.278	34.3
611.48	271.87
611.682	583.16
611.884	-43.52
612.085	-59.9
612.287	-78.33
612.489	333.31
612.69	-178.69
612.892	-25.09
613.094	370.17
613.295	316.92
613.497	-145.92
613.699	-70.14
613.9	511.48
614.102	411.13
614.304	-49.66
614.505	-240.12
614.707	173.57
614.908	181.76
615.11	-197.12
615.311	-45.57
615.513	341.5
615.714	370.17
615.916	-207.36
616.117	-66.05
616.319	151.04
616.52	415.23
616.722	-180.73
616.923	-135.68
617.124	462.33
617.326	286.2
617.527	9.73
617.729	146.94
617.93	288.25
618.131	368.12
618.333	-12.8
618.534	26.11
618.735	28.16
618.937	560.63
619.138	-301.56
619.339	-143.87
619.54	292.35
619.742	116.22
619.943	128.51
620.144	-43.52
620.345	423.42
620.546	488.95
620.748	-82.43
620.949	-115.2
621.15	224.76
621.351	284.16
621.552	-43.52
621.753	-238.08
621.954	-143.87
622.155	652.79
622.356	-195.07
622.558	24.06
622.759	167.42
622.96	568.82
623.161	-117.25
623.362	-78.33
623.563	296.44
623.764	239.1
623.965	-49.66
624.166	79.36
624.366	103.93
624.567	235
624.768	-268.8
624.969	-31.23
625.17	38.4
625.371	390.65
625.572	67.07
625.773	-111.1
625.973	386.55
626.174	392.7
626.375	54.78
626.576	44.54
626.777	355.83
626.977	814.58
627.178	-125.44
627.379	73.21
627.58	241.15
627.78	339.45
627.981	85.5
628.182	97.79
628.382	486.9
628.583	-195.07
628.784	-150.01
628.984	93.69
629.185	361.98
629.386	325.12
629.586	-29.18
629.787	-104.96
629.987	413.18
630.188	194.05
630.388	-10.75
630.589	17.92
630.79	808.44
630.99	249.34
631.191	34.3
631.391	44.54
631.591	505.34
631.792	560.63
631.992	83.45
632.193	-47.62
632.393	695.8
632.594	253.44
632.794	-49.66
632.994	122.37
633.195	175.61
633.395	265.72
633.595	-139.77
633.796	114.17
633.996	89.6
634.196	503.29
634.397	-229.88
634.597	26.11
634.797	-4.61
634.997	654.84
635.198	196.09
635.398	-104.96
635.598	306.68
635.798	525.82
635.998	361.98
636.199	9.73
636.399	235
636.599	91.65
636.799	67.07
636.999	300.54
637.199	404.99
637.399	484.86
637.599	13.82
637.799	30.21
637.999	146.94
638.199	628.21
638.399	-104.96
638.599	46.59
638.799	378.36
638.999	738.8
639.199	189.95
639.399	48.64
639.599	597.49
639.799	1.54
639.999	-45.57
640.199	-193.02
640.399	400.89
640.599	318.97
640.799	15.87
640.998	62.98
641.198	536.06
641.398	407.03
641.598	118.27
641.798	50.69
641.997	1140.21
642.197	243.2
642.397	194.05
642.597	-37.38
642.796	343.55
642.996	632.31
643.196	171.52
643.395	-137.73
643.595	345.59
643.795	-137.73
643.994	-20.99
644.194	62.98
644.394	423.42
644.593	267.77
644.793	-102.91
644.992	161.28
645.192	327.16
645.392	-186.88
645.591	206.33
645.791	116.22
645.99	388.6
646.19	185.85
646.389	146.94
646.589	38.4
646.788	435.71
646.987	497.14
647.187	280.06
647.386	165.37
647.586	241.15
647.785	443.9
647.984	67.07
648.184	26.11
648.383	196.09
648.582	232.96
648.782	101.89
648.981	202.24
649.18	62.98
649.38	335.35
649.579	40.45
649.778	-66.05
649.977	361.98
650.177	394.75
650.376	32.26
650.575	89.6
650.774	673.27
650.973	83.45
651.173	-127.49
651.372	75.26
651.571	269.82
651.77	443.9
651.969	38.4
652.168	210.43
652.367	36.35
652.566	437.75
652.765	-107.01
652.964	345.59
653.163	712.18
653.362	224.76
653.561	93.69
653.76	-47.62
653.959	224.76
654.158	427.51
654.357	185.85
654.556	42.5
654.755	349.69
654.954	380.41
655.153	52.74
655.352	157.18
655.551	574.97
655.749	38.4
655.948	161.28
656.147	153.09
656.346	364.03
656.545	249.34
656.743	140.8
656.942	120.32
657.141	302.59
657.34	101.89
657.538	142.85
657.737	60.93
657.936	202.24
658.135	382.46
658.333	50.69
658.532	196.09
658.731	753.14
658.929	493.05
659.128	339.45
659.326	91.65
659.525	617.97
659.724	267.77
659.922	-201.21
660.121	-137.73
660.319	378.36
660.518	15.87
660.716	11.78
660.915	-35.33
661.113	599.54
661.312	50.69
661.51	165.37
661.709	42.5
661.907	480.76
662.105	593.4
662.304	48.64
662.502	85.5
662.701	581.11
662.899	210.43
663.097	460.28
663.296	24.06
663.494	525.82
663.692	701.94
663.891	38.4
664.089	-61.95
664.287	351.74
664.485	671.22
664.684	-16.9
664.882	261.63
665.08	316.92
665.278	347.64
665.476	-35.33
665.675	337.4
665.873	763.38
666.071	585.21
666.269	40.45
666.467	413.18
666.665	286.2
666.863	321.02
667.061	167.42
667.259	52.74
667.457	335.35
667.655	384.51
667.853	-68.09
668.051	208.38
668.249	189.95
668.447	423.42
668.645	40.45
668.843	245.24
669.041	509.43
669.239	212.48
669.437	228.86
669.635	267.77
669.833	286.2
670.031	447.99
670.229	247.29
670.426	132.61
670.624	304.64
670.822	179.71
671.02	48.64
671.218	198.14
671.415	79.36
671.613	415.23
671.811	204.28
672.009	83.45
672.206	515.58
672.404	321.02
672.602	321.02
672.799	169.47
672.997	419.32
673.195	560.63
673.392	237.05
673.59	62.98
673.788	562.68
673.985	3.58
674.183	194.05
674.38	62.98
674.578	554.49
674.775	245.24
674.973	69.12
675.17	-12.8
675.368	693.75
675.565	400.89
675.763	116.22
675.96	46.59
676.158	617.97
676.355	259.58
676.553	60.93
676.75	110.08
676.947	245.24
677.145	316.92
677.342	255.48
677.539	206.33
677.737	390.65
677.934	845.3
678.131	376.31
678.329	62.98
678.526	722.42
678.723	466.42
678.92	304.64
679.118	110.08
679.315	46.59
679.512	579.06
679.709	148.99
679.906	243.2
680.104	566.78
680.301	546.3
680.498	56.83
680.695	36.35
680.892	159.23
681.089	189.95
681.286	267.77
681.483	-94.72
681.68	552.44
681.877	484.86
682.075	130.56
682.272	353.79
682.469	431.61
682.665	269.82
682.862	71.17
683.059	-72.19
683.256	402.94
683.453	382.46
683.65	230.91
683.847	105.98
684.044	378.36
684.241	157.18
684.438	378.36
684.635	81.41
684.831	833.01
685.028	777.72
685.225	142.85
685.422	357.88
685.619	341.5
685.815	378.36
686.012	239.1
686.209	196.09
686.405	122.37
686.602	521.72
686.799	40.45
686.996	50.69
687.192	165.37
687.389	826.87
687.586	192
687.782	222.72
687.979	628.21
688.175	620.02
688.372	247.29
688.568	198.14
688.765	235
688.962	734.71
689.158	312.83
689.355	-88.57
689.551	464.38
689.748	204.28
689.944	235
690.14	3.58
690.337	597.49
690.533	316.92
690.73	355.83
690.926	167.42
691.123	570.87
691.319	331.26
691.515	83.45
691.712	345.59
691.908	509.43
692.104	429.56
692.301	349.69
692.497	42.5
692.693	607.73
692.889	574.97
693.086	306.68
693.282	19.97
693.478	392.7
693.674	790
693.87	224.76
694.067	-16.9
694.263	425.47
694.459	316.92
694.655	282.11
694.851	298.49
695.047	507.38
695.243	497.14
695.439	359.93
695.635	75.26
695.831	624.12
696.027	427.51
696.224	116.22
696.42	462.33
696.615	673.27
696.811	472.57
697.007	34.3
697.203	202.24
697.399	460.28
697.595	679.41
697.791	185.85
697.987	306.68
698.183	134.65
698.379	181.76
698.575	259.58
698.77	206.33
698.966	560.63
699.162	749.04
699.358	138.75
699.554	157.18
699.749	540.15
699.945	675.32
700.141	278.01
700.337	267.77
700.532	386.55
700.728	187.9
700.924	126.46
701.119	5.63
701.315	515.58
701.511	370.17
701.706	232.96
701.902	13.82
702.097	443.9
702.293	513.53
702.489	226.81
702.684	198.14
702.88	388.6
703.075	316.92
703.271	222.72
703.466	1.54
703.662	423.42
703.857	534.01
704.053	263.68
704.248	173.57
704.443	628.21
704.639	620.02
704.834	247.29
705.03	155.13
705.225	603.64
705.42	716.28
705.616	259.58
705.811	161.28
706.006	349.69
706.202	257.53
706.397	347.64
706.592	95.74
706.787	470.52
706.983	466.42
707.178	462.33
707.373	275.96
707.568	595.45
707.763	695.8
707.959	56.83
708.154	177.66
708.349	454.14
708.544	515.58
708.739	284.16
708.934	79.36
709.129	605.69
709.324	671.22
709.519	132.61
709.714	202.24
709.909	656.89
710.104	505.34
710.299	206.33
710.494	286.2
710.689	570.87
710.884	480.76
711.079	259.58
711.274	482.81
711.469	652.79
711.664	452.09
711.859	108.03
712.054	314.88
712.249	589.3
712.443	681.46
712.638	89.6
712.833	99.84
713.028	398.84
713.223	329.21
713.417	421.37
713.612	218.62
713.807	566.78
714.002	951.79
714.196	470.52
714.391	153.09
714.586	699.89
714.78	464.38
714.975	257.53
715.17	179.71
715.364	370.17
715.559	615.93
715.754	-27.14
715.948	151.04
716.143	933.36
716.337	466.42
716.532	456.19
716.726	161.28
716.921	622.07
717.115	859.63
717.31	114.17
717.504	747
717.699	296.44
717.893	601.59
718.088	108.03
718.282	91.65
718.476	452.09
718.671	550.39
718.865	224.76
719.059	255.48
719.254	361.98
719.448	763.38
719.642	1555.94
719.837	11.78
720.031	579.06
720.225	718.33
720.419	257.53
720.614	222.72
720.808	632.31
721.002	450.04
721.196	153.09
721.39	202.24
721.585	820.72
721.779	574.97
721.973	300.54
722.167	22.02
722.361	550.39
722.555	638.45
722.749	327.16
722.943	243.2
723.137	210.43
723.331	587.26
723.525	153.09
723.719	189.95
723.913	593.4
724.107	679.41
724.301	126.46
724.495	280.06
724.689	937.46
724.883	779.76
725.077	124.41
725.271	280.06
725.465	673.27
725.659	388.6
725.853	189.95
726.046	99.84
726.24	343.55
726.434	683.51
726.628	187.9
726.822	290.3
727.015	767.48
727.209	841.2
727.403	210.43
727.596	42.5
727.79	706.04
727.984	560.63
728.177	232.96
728.371	333.31
728.565	747
728.758	198.14
728.952	110.08
729.146	230.91
729.339	706.04
729.533	493.05
729.726	267.77
729.92	114.17
730.113	804.34
730.307	562.68
730.5	243.2
730.694	120.32
730.887	447.99
731.081	581.11
731.274	83.45
731.468	224.76
731.661	443.9
731.854	284.16
732.048	175.61
732.241	110.08
732.435	294.4
732.628	542.2
732.821	206.33
733.014	140.8
733.208	177.66
733.401	611.83
733.594	251.39
733.788	194.05
733.981	742.9
734.174	484.86
734.367	122.37
734.56	316.92
734.754	675.32
734.947	515.58
735.14	142.85
735.333	226.81
735.526	615.93
735.719	232.96
735.912	198.14
736.105	202.24
736.298	484.86
736.491	282.11
736.684	177.66
736.877	189.95
737.07	574.97
737.263	648.69
737.456	202.24
737.649	177.66
737.842	366.07
738.035	357.88
738.228	296.44
738.421	366.07
738.614	744.95
738.807	544.25
739	50.69
739.192	140.8
739.385	570.87
739.578	681.46
739.771	525.82
739.964	294.4
740.156	562.68
740.349	409.08
740.542	351.74
740.735	173.57
740.927	228.86
741.12	273.92
741.313	97.79
741.505	345.59
741.698	570.87
741.891	591.35
742.083	458.23
742.276	216.57
742.468	478.71
742.661	480.76
742.854	290.3
743.046	202.24
743.239	843.25
743.431	337.4
743.624	269.82
743.816	38.4
744.009	423.42
744.201	568.82
744.393	359.93
744.586	157.18
744.778	755.19
744.971	474.62
745.163	286.2
745.355	280.06
745.548	476.66
745.74	327.16
745.932	304.64
746.125	271.87
746.317	947.7
746.509	566.78
746.702	304.64
746.894	357.88
747.086	445.95
747.278	736.76
747.471	503.29
747.663	316.92
747.855	439.8
748.047	876.02
748.239	239.1
748.431	214.52
748.623	869.87
748.815	964.08
749.008	105.98
749.2	153.09
749.392	749.04
749.584	585.21
749.776	294.4
749.968	335.35
750.16	896.5
750.352	380.41
750.544	290.3
750.736	136.7
750.928	622.07
751.12	531.96
751.311	271.87
751.503	308.73
751.695	472.57
751.887	470.52
752.079	67.07
752.271	261.63
752.463	1236.46
752.654	710.13
752.846	296.44
753.038	218.62
753.23	335.35
753.421	654.84
753.613	255.48
753.805	470.52
753.997	759.28
754.188	701.94
754.38	241.15
754.572	196.09
754.763	454.14
754.955	562.68
755.146	345.59
755.338	288.25
755.53	568.82
755.721	480.76
755.913	19.97
756.104	110.08
756.296	495.1
756.487	658.93
756.679	165.37
756.87	290.3
757.062	370.17
757.253	634.36
757.445	278.01
757.636	357.88
757.827	542.2
758.019	996.85
758.21	161.28
758.401	304.64
758.593	968.18
758.784	804.34
758.975	132.61
759.167	144.89
759.358	497.14
759.549	669.17
759.74	230.91
759.932	230.91
760.123	742.9
760.314	304.64
760.505	345.59
760.696	220.67
760.888	966.13
761.079	275.96
761.27	232.96
761.461	112.13
761.652	841.2
761.843	458.23
762.034	218.62
762.225	550.39
762.416	570.87
762.607	568.82
762.798	296.44
762.989	269.82
763.18	1197.55
763.371	423.42
763.562	269.82
763.753	361.98
763.944	724.47
764.135	755.19
764.326	345.59
764.517	259.58
764.708	570.87
764.899	654.84
765.089	181.76
765.28	93.69
765.471	513.53
765.662	595.45
765.853	318.97
766.043	85.5
766.234	708.09
766.425	697.85
766.615	290.3
766.806	202.24
766.997	847.35
767.187	534.01
767.378	157.18
767.569	38.4
767.759	583.16
767.95	501.24
768.141	507.38
768.331	183.81
768.522	597.49
768.712	861.68
768.903	148.99
769.093	148.99
769.284	888.31
769.474	546.3
769.665	3.58
769.855	122.37
770.046	585.21
770.236	390.65
770.426	394.75
770.617	112.13
770.807	687.61
770.998	411.13
771.188	355.83
771.378	202.24
771.569	718.33
771.759	624.12
771.949	194.05
772.139	-39.42
772.33	534.01
772.52	886.26
772.71	194.05
772.9	79.36
773.09	910.83
773.281	716.28
773.471	75.26
773.661	222.72
773.851	689.65
774.041	310.78
774.231	165.37
774.421	419.32
774.611	878.07
774.802	519.67
774.992	216.57
775.182	159.23
775.372	478.71
775.562	658.93
775.752	235
775.942	275.96
776.131	755.19
776.321	632.31
776.511	173.57
776.701	91.65
776.891	822.77
777.081	251.39
777.271	282.11
777.461	253.44
777.651	648.69
777.84	763.38
778.03	304.64
778.22	181.76
778.41	732.66
778.599	310.78
778.789	339.45
778.979	257.53
779.169	589.3
779.358	349.69
779.548	507.38
779.738	89.6
779.927	560.63
780.117	232.96
780.307	259.58
780.496	-14.85
780.686	628.21
780.875	820.72
781.065	26.11
781.254	202.24
781.444	458.23
781.633	501.24
781.823	192
782.012	177.66
782.202	400.89
782.391	454.14
782.581	71.17
782.77	437.75
782.96	646.65
783.149	458.23
783.338	247.29
783.528	13.82
783.717	751.09
783.906	658.93
784.096	417.27
784.285	151.04
784.474	345.59
784.663	304.64
784.853	212.48
785.042	235
785.231	290.3
785.42	656.89
785.61	347.64
785.799	105.98
785.988	382.46
786.177	542.2
786.366	290.3
786.555	368.12
786.744	685.56
786.933	400.89
787.122	32.26
787.312	110.08
787.501	292.35
787.69	505.34
787.879	206.33
788.068	175.61
788.257	275.96
788.445	441.85
788.634	280.06
788.823	60.93
789.012	1070.58
789.201	773.62
789.39	413.18
789.579	202.24
789.768	370.17
789.957	476.66
790.145	198.14
790.334	-88.57
790.523	400.89
790.712	534.01
790.9	249.34
791.089	-4.61
791.278	759.28
791.467	583.16
791.655	419.32
791.844	693.75
792.033	286.2
792.221	452.09
792.41	265.72
792.599	19.97
792.787	681.46
792.976	536.06
793.164	93.69
793.353	198.14
793.541	663.03
793.73	660.98
793.918	263.68
794.107	261.63
794.295	347.64
794.484	439.8
794.672	194.05
794.861	189.95
795.049	538.1
795.238	906.74
795.426	69.12
795.614	210.43
795.803	579.06
795.991	919.03
796.179	159.23
796.368	222.72
796.556	660.98
796.744	245.24
796.932	79.36
797.121	161.28
797.309	534.01
797.497	626.17
797.685	267.77
797.874	134.65
798.062	335.35
798.25	689.65
798.438	50.69
798.626	185.85
798.814	564.73
799.002	1005.04
799.19	472.57
799.378	304.64
799.566	722.42
799.755	753.14
799.943	433.66
800.131	161.28
800.318	546.3
800.506	546.3
800.694	216.57
800.882	347.64
801.07	738.8
801.258	531.96
801.446	216.57
801.634	224.76
801.822	388.6
802.01	454.14
802.197	206.33
802.385	296.44
802.573	589.3
802.761	370.17
802.949	290.3
803.136	73.21
803.324	669.17
803.512	425.47
803.699	308.73
803.887	83.45
804.075	851.44
804.262	439.8
804.45	54.78
804.638	275.96
804.825	294.4
805.013	347.64
805.201	245.24
805.388	114.17
805.576	390.65
805.763	742.9
805.951	224.76
806.138	374.27
806.326	972.27
806.513	681.46
806.701	300.54
806.888	116.22
807.075	540.15
807.263	976.37
807.45	62.98
807.638	351.74
807.825	935.41
808.012	693.75
808.2	263.68
808.387	546.3
808.574	558.58
808.761	947.7
808.949	230.91
809.136	415.23
809.323	316.92
809.51	286.2
809.698	572.92
809.885	423.42
810.072	572.92
810.259	812.53
810.446	255.48
810.633	255.48
810.82	843.25
811.008	833.01
811.195	450.04
811.382	361.98
811.569	447.99
811.756	202.24
811.943	226.81
812.13	298.49
812.317	366.07
812.504	421.37
812.691	235
812.878	345.59
813.064	839.16
813.251	568.82
813.438	194.05
813.625	417.27
813.812	411.13
813.999	413.18
814.186	343.55
814.372	265.72
814.559	581.11
814.746	873.97
814.933	304.64
815.12	474.62
815.306	464.38
815.493	245.24
815.68	241.15
815.866	235
816.053	759.28
816.24	988.66
816.426	314.88
816.613	165.37
816.799	617.97
816.986	630.26
817.173	142.85
817.359	175.61
817.546	536.06
817.732	185.85
817.919	-4.61
818.105	370.17
818.292	331.26
818.478	605.69
818.665	282.11
818.851	200.19
819.037	1029.62
819.224	599.54
819.41	99.84
819.597	181.76
819.783	847.35
819.969	599.54
820.156	335.35
820.342	167.42
820.528	1238.51
820.714	452.09
820.901	579.06
821.087	308.73
821.273	945.65
821.459	476.66
821.646	179.71
821.832	232.96
822.018	513.53
822.204	482.81
822.39	310.78
822.576	142.85
822.762	718.33
822.948	636.41
823.134	413.18
823.32	302.59
823.507	175.61
823.693	558.58
823.879	632.31
824.065	228.86
824.25	546.3
824.436	296.44
824.622	253.44
824.808	157.18
824.994	296.44
825.18	288.25
825.366	175.61
825.552	304.64
825.738	382.46
825.923	820.72
826.109	501.24
826.295	243.2
826.481	450.04
826.667	466.42
826.852	353.79
827.038	101.89
827.224	871.92
827.409	949.75
827.595	151.04
827.781	474.62
827.966	771.57
828.152	695.8
828.338	253.44
828.523	134.65
828.709	265.72
828.894	732.66
829.08	308.73
829.266	271.87
829.451	482.81
829.637	603.64
829.822	392.7
830.008	243.2
830.193	773.62
830.378	830.96
830.564	343.55
830.749	202.24
830.935	679.41
831.12	765.43
831.305	167.42
831.491	364.03
831.676	263.68
831.861	693.75
832.047	329.21
832.232	198.14
832.417	822.77
832.602	566.78
832.788	202.24
832.973	210.43
833.158	429.56
833.343	607.73
833.528	439.8
833.714	316.92
833.899	738.8
834.084	1015.28
834.269	407.03
834.454	273.92
834.639	689.65
834.824	509.43
835.009	294.4
835.194	411.13
835.379	671.22
835.564	869.87
835.749	437.75
835.934	198.14
836.119	837.11
836.304	554.49
836.489	374.27
836.674	515.58
836.859	296.44
837.044	863.73
837.228	312.83
837.413	5.63
837.598	554.49
837.783	751.09
837.968	351.74
838.152	126.46
838.337	112.13
838.522	947.7
838.707	675.32
838.891	361.98
839.076	587.26
839.261	796.15
839.445	357.88
839.63	292.35
839.815	908.79
839.999	398.84
840.184	294.4
840.368	308.73
840.553	642.55
840.737	763.38
840.922	138.75
841.106	175.61
841.291	255.48
841.475	519.67
841.66	243.2
841.844	253.44
842.029	1187.31
842.213	179.71
842.397	294.4
842.582	142.85
842.766	777.72
842.951	734.71
843.135	290.3
843.319	296.44
843.504	630.26
843.688	767.48
843.872	85.5
844.056	200.19
844.241	634.36
844.425	452.09
844.609	470.52
844.793	-68.09
844.977	728.56
845.161	638.45
845.346	136.7
845.53	267.77
845.714	482.81
845.898	871.92
846.082	110.08
846.266	267.77
846.45	464.38
846.634	617.97
846.818	169.47
847.002	404.99
847.186	654.84
847.37	298.49
847.554	169.47
847.738	394.75
847.922	708.09
848.106	521.72
848.29	151.04
848.473	175.61
848.657	716.28
848.841	511.48
849.025	200.19
849.209	105.98
849.392	693.75
849.576	318.97
849.76	97.79
849.944	349.69
850.127	792.05
850.311	210.43
850.495	73.21
850.678	105.98
850.862	765.43
851.046	835.06
851.229	470.52
851.413	95.74
851.596	513.53
851.78	419.32
851.964	351.74
852.147	220.67
852.331	1265.13
852.514	783.86
852.698	335.35
852.881	101.89
853.065	720.37
853.248	472.57
853.431	382.46
853.615	341.5
853.798	978.42
853.982	503.29
854.165	396.79
854.348	275.96
854.532	353.79
854.715	413.18
854.898	206.33
855.081	218.62
855.265	898.55
855.448	970.23
855.631	224.76
855.814	298.49
855.997	732.66
856.181	538.1
856.364	271.87
856.547	196.09
856.73	587.26
856.913	613.88
857.096	167.42
857.279	388.6
857.462	374.27
857.645	828.92
857.828	464.38
858.011	353.79
858.194	280.06
858.377	673.27
858.56	165.37
858.743	413.18
858.926	337.4
859.109	634.36
859.292	265.72
859.475	105.98
859.658	783.86
859.841	628.21
860.023	91.65
860.206	95.74
860.389	587.26
860.572	888.31
860.755	296.44
860.937	323.07
861.12	370.17
861.303	478.71
861.486	237.05
861.668	146.94
861.851	699.89
862.034	599.54
862.216	333.31
862.399	153.09
862.581	628.21
862.764	906.74
862.947	321.02
863.129	216.57
863.312	255.48
863.494	849.4
863.677	599.54
863.859	87.55
864.042	775.67
864.224	882.16
864.406	390.65
864.589	108.03
864.771	630.26
864.954	396.79
865.136	95.74
865.318	101.89
865.501	642.55
865.683	148.99
865.865	175.61
866.048	222.72
866.23	572.92
866.412	558.58
866.594	134.65
866.777	329.21
866.959	601.59
867.141	351.74
867.323	460.28
867.505	413.18
867.687	466.42
867.869	527.86
868.052	306.68
868.234	124.41
868.416	527.86
868.598	712.18
868.78	300.54
868.962	169.47
869.144	663.03
869.326	695.8
869.508	267.77
869.69	75.26
869.872	288.25
870.054	806.39
870.236	153.09
870.417	243.2
870.599	431.61
870.781	935.41
870.963	341.5
871.145	132.61
871.327	144.89
871.508	728.56
871.69	169.47
871.872	222.72
872.054	486.9
872.235	663.03
872.417	273.92
872.599	132.61
872.78	845.3
872.962	527.86
873.144	54.78
873.325	304.64
873.507	876.02
873.689	675.32
873.87	148.99
874.052	337.4
874.233	364.03
874.415	701.94
874.596	288.25
874.778	118.27
874.959	460.28
875.141	794.1
875.322	179.71
875.503	212.48
875.685	650.74
875.866	89.6
876.048	169.47
876.229	118.27
876.41	558.58
876.592	507.38
876.773	148.99
876.954	87.55
877.136	763.38
877.317	384.51
877.498	1.54
877.679	310.78
877.86	636.41
878.042	495.1
878.223	163.33
878.404	493.05
878.585	558.58
878.766	898.55
878.947	480.76
879.128	370.17
879.309	673.27
879.49	765.43
879.672	288.25
879.853	263.68
880.034	343.55
880.215	415.23
880.396	267.77
880.576	226.81
880.757	286.2
880.938	919.03
881.119	167.42
881.3	132.61
881.481	331.26
881.662	1406.44
881.843	73.21
882.023	46.59
882.204	574.97
882.385	447.99
882.566	151.04
882.747	126.46
882.927	382.46
883.108	622.07
883.289	249.34
883.469	509.43
883.65	392.7
883.831	568.82
884.011	413.18
884.192	169.47
884.373	726.52
884.553	589.3
884.734	433.66
884.914	447.99
885.095	1132.01
885.275	880.11
885.456	560.63
885.636	177.66
885.817	415.23
885.997	476.66
886.178	128.51
886.358	292.35
886.538	570.87
886.719	1447.4
886.899	232.96
887.08	296.44
887.26	681.46
887.44	341.5
887.621	87.55
887.801	488.95
887.981	1011.18
888.161	744.95
888.342	323.07
888.522	251.39
888.702	771.57
888.882	880.11
889.062	503.29
889.242	44.54
889.423	828.92
889.603	697.85
889.783	357.88
889.963	261.63
890.143	607.73
890.323	720.37
890.503	275.96
890.683	304.64
890.863	521.72
891.043	544.25
891.223	325.12
891.403	525.82
891.583	443.9
891.763	566.78
891.943	359.93
892.122	198.14
892.302	458.23
892.482	513.53
892.662	398.84
892.842	343.55
893.022	658.93
893.201	378.36
893.381	484.86
893.561	241.15
893.741	671.22
893.92	673.27
894.1	306.68
894.28	368.12
894.459	722.42
894.639	620.02
894.819	300.54
894.998	394.75
895.178	552.44
895.357	581.11
895.537	237.05
895.716	144.89
895.896	507.38
896.075	929.27
896.255	259.58
896.434	142.85
896.614	669.17
896.793	849.4
896.973	460.28
897.152	460.28
897.331	665.08
897.511	759.28
897.69	167.42
897.87	443.9
898.049	771.57
898.228	521.72
898.407	581.11
898.587	447.99
898.766	372.22
898.945	747
899.124	581.11
899.304	396.79
899.483	738.8
899.662	1000.94
899.841	198.14
900.02	171.52
900.199	818.68
900.378	626.17
900.557	386.55
900.737	163.33
900.916	673.27
901.095	710.13
901.274	523.77
901.453	243.2
901.632	337.4
901.811	370.17
901.989	280.06
902.168	308.73
902.347	708.09
902.526	443.9
902.705	308.73
902.884	374.27
903.063	841.2
903.242	863.73
903.42	198.14
903.599	466.42
903.778	792.05
903.957	931.31
904.135	464.38
904.314	402.94
904.493	570.87
904.672	816.63
904.85	290.3
905.029	366.07
905.207	720.37
905.386	1242.61
905.565	118.27
905.743	341.5
905.922	321.02
906.1	740.85
906.279	222.72
906.457	302.59
906.636	415.23
906.814	415.23
906.993	384.51
907.171	206.33
907.35	638.45
907.528	697.85
907.707	515.58
907.885	282.11
908.063	945.65
908.242	390.65
908.42	321.02
908.598	130.56
908.777	665.08
908.955	476.66
909.133	413.18
909.311	218.62
909.49	466.42
909.668	525.82
909.846	251.39
910.024	194.05
910.202	581.11
910.38	656.89
910.559	159.23
910.737	173.57
910.915	564.73
911.093	634.36
911.271	329.21
911.449	515.58
911.627	665.08
911.805	1111.54
911.983	368.12
912.161	243.2
912.339	648.69
912.517	845.3
912.695	542.2
912.872	316.92
913.05	435.71
913.228	570.87
913.406	314.88
913.584	196.09
913.762	783.86
913.939	409.08
914.117	267.77
914.295	177.66
914.473	628.21
914.65	669.17
914.828	337.4
915.006	249.34
915.184	339.45
915.361	611.83
915.539	402.94
915.716	421.37
915.894	673.27
916.072	650.74
916.249	558.58
916.427	468.47
916.604	316.92
916.782	685.56
916.959	169.47
917.137	251.39
917.314	583.16
917.492	714.23
917.669	384.51
917.847	390.65
918.024	525.82
918.201	286.2
918.379	419.32
918.556	374.27
918.733	798.2
918.911	478.71
919.088	562.68
919.265	273.92
919.442	521.72
919.62	415.23
919.797	200.19
919.974	204.28
920.151	558.58
920.328	558.58
920.506	228.86
920.683	505.34
920.86	347.64
921.037	370.17
921.214	413.18
921.391	161.28
921.568	732.66
921.745	288.25
921.922	349.69
922.099	253.44
922.276	857.59
922.453	609.78
922.63	257.53
922.807	620.02
922.984	611.83
923.161	355.83
923.338	181.76
923.514	192
923.691	460.28
923.868	589.3
924.045	175.61
924.222	206.33
924.399	591.35
924.575	747
924.752	357.88
924.929	302.59
925.105	579.06
925.282	245.24
925.459	261.63
925.635	361.98
925.812	495.1
925.989	310.78
926.165	321.02
926.342	91.65
926.518	325.12
926.695	521.72
926.871	212.48
927.048	153.09
927.224	730.61
927.401	407.03
927.577	329.21
927.754	75.26
927.93	775.67
928.107	644.6
928.283	206.33
928.459	357.88
928.636	701.94
928.812	413.18
928.988	99.84
929.165	91.65
929.341	443.9
929.517	495.1
929.693	544.25
929.87	114.17
930.046	525.82
930.222	302.59
930.398	194.05
930.574	304.64
930.751	540.15
930.927	368.12
931.103	245.24
931.279	196.09
931.455	214.52
931.631	558.58
931.807	-12.8
931.983	105.98
932.159	138.75
932.335	517.62
932.511	306.68
932.687	155.13
932.863	544.25
933.039	501.24
933.215	89.6
933.391	67.07
933.566	314.88
933.742	515.58
933.918	237.05
934.094	38.4
934.27	476.66
934.445	411.13
934.621	296.44
934.797	148.99
934.973	652.79
935.148	476.66
935.324	99.84
935.5	-64
935.675	726.52
935.851	450.04
936.027	173.57
936.202	259.58
936.378	523.77
936.553	384.51
936.729	626.17
936.904	81.41
937.08	126.46
937.255	269.82
937.431	142.85
937.606	58.88
937.782	165.37
937.957	392.7
938.133	286.2
938.308	60.93
938.483	394.75
938.659	146.94
938.834	280.06
939.009	13.82
939.185	380.41
939.36	144.89
939.535	-178.69
939.71	142.85
939.886	534.01
940.061	491
940.236	263.68
940.411	71.17
940.586	361.98
940.761	546.3
940.937	79.36
941.112	30.21
941.287	278.01
941.462	333.31
941.637	-41.47
941.812	89.6
941.987	341.5
942.162	312.83
942.337	144.89
942.512	58.88
942.687	427.51
942.862	550.39
943.037	-39.42
943.212	-168.45
943.386	185.85
943.561	327.16
943.736	237.05
943.911	382.46
944.086	364.03
944.26	378.36
944.435	11.78
944.61	97.79
944.785	605.69
944.959	755.19
945.134	136.7
945.309	-31.23
945.483	169.47
945.658	574.97
945.833	-178.69
946.007	-31.23
946.182	675.32
946.357	7.68
946.531	-6.66
946.706	-53.76
946.88	-59.9
947.055	321.02
947.229	54.78
947.404	-51.71
947.578	441.85
947.752	173.57
947.927	-35.33
948.101	-182.78
948.276	261.63
948.45	226.81
948.624	265.72
948.799	44.54
948.973	278.01
949.147	-31.23
949.321	56.83
949.496	-20.99
949.67	519.67
949.844	189.95
950.018	38.4
950.193	-0.51
950.367	822.77
950.541	192
950.715	126.46
950.889	132.61
951.063	132.61
951.237	452.09
951.411	-184.83
951.585	-127.49
951.759	333.31
951.933	198.14
952.107	-10.75
952.281	173.57
952.455	617.97
952.629	398.84
952.803	13.82
952.977	-59.9
953.151	392.7
953.325	370.17
953.499	126.46
953.672	-147.97
953.846	-23.04
954.02	161.28
954.194	-66.05
954.368	30.21
954.541	335.35
954.715	126.46
954.889	97.79
955.062	-41.47
955.236	212.48
955.41	140.8
955.583	216.57
955.757	-102.91
955.93	171.52
956.104	-33.28
956.278	-18.94
956.451	5.63
956.625	304.64
956.798	747
956.972	241.15
957.145	-68.09
957.319	206.33
957.492	165.37
957.665	155.13
957.839	-51.71
958.012	308.73
958.185	140.8
958.359	-20.99
958.532	271.87
958.705	417.27
958.879	253.44
959.052	138.75
959.225	-150.01
959.398	161.28
959.572	282.11
959.745	58.88
959.918	42.5
960.091	181.76
960.264	411.13
960.438	-102.91
960.611	-100.86
960.784	378.36
960.957	24.06
961.13	390.65
961.303	-66.05
961.476	216.57
961.649	374.27
961.822	-162.3
961.995	79.36
962.168	333.31
962.341	337.4
962.514	-6.66
962.686	91.65
962.859	282.11
963.032	296.44
963.205	-33.28
963.378	-158.21
963.551	300.54
963.723	259.58
963.896	81.41
964.069	120.32
964.242	286.2
964.414	390.65
964.587	13.82
964.76	28.16
964.932	292.35
965.105	204.28
965.278	52.74
965.45	-49.66
965.623	282.11
965.795	380.41
965.968	60.93
966.14	-53.76
966.313	237.05
966.485	304.64
966.658	-25.09
966.83	-23.04
967.003	312.83
967.175	349.69
967.348	3.58
967.52	-10.75
967.692	562.68
967.865	353.79
968.037	5.63
968.209	357.88
968.382	148.99
968.554	370.17
968.726	24.06
968.898	28.16
969.071	273.92
969.243	368.12
969.415	103.93
969.587	77.31
969.759	783.86
969.932	370.17
970.104	-33.28
970.276	-178.69
970.448	144.89
970.62	153.09
970.792	114.17
970.964	28.16
971.136	669.17
971.308	417.27
971.48	-119.29
971.652	-20.99
971.824	542.2
971.996	132.61
972.168	-16.9
972.339	89.6
972.511	527.86
972.683	83.45
972.855	226.81
973.027	32.26
973.199	290.3
973.37	431.61
973.542	185.85
973.714	161.28
973.886	259.58
974.057	484.86
974.229	-88.57
974.401	-39.42
974.572	85.5
974.744	-211.45
974.915	-86.53
975.087	-8.7
975.259	538.1
975.43	50.69
975.602	-59.9
975.773	-160.25
975.945	128.51
976.116	339.45
976.288	-78.33
976.459	112.13
976.63	146.94
976.802	296.44
976.973	-39.42
977.145	122.37
977.316	689.65
977.487	536.06
977.659	132.61
977.83	1.54
978.001	665.08
978.172	296.44
978.344	-45.57
978.515	-23.04
978.686	155.13
978.857	585.21
979.028	50.69
979.2	-96.77
979.371	583.16
979.542	292.35
979.713	179.71
979.884	-344.57
980.055	54.78
980.226	157.18
980.397	-43.52
980.568	-16.9
980.739	445.95
980.91	177.66
981.081	136.7
981.252	-61.95
981.423	341.5
981.594	472.57
981.765	-129.53
981.936	132.61
982.106	249.34
982.277	486.9
982.448	-59.9
982.619	40.45
982.79	112.13
982.96	402.94
983.131	93.69
983.302	-252.41
983.472	60.93
983.643	282.11
983.814	50.69
983.984	7.68
984.155	175.61
984.326	329.21
984.496	60.93
984.667	-47.62
984.837	81.41
985.008	495.1
985.178	75.26
985.349	-47.62
985.519	204.28
985.69	108.03
985.86	-16.9
986.031	-55.81
986.201	343.55
986.371	349.69
986.542	-64
986.712	-123.39
986.882	269.82
987.053	357.88
987.223	-168.45
987.393	83.45
987.563	87.55
987.734	278.01
987.904	282.11
988.074	-59.9
988.244	310.78
988.414	189.95
988.585	-84.48
988.755	46.59
988.925	181.76
989.095	505.34
989.265	-127.49
989.435	-2.56
989.605	343.55
989.775	355.83
989.945	263.68
990.115	-158.21
990.285	108.03
990.455	173.57
990.625	87.55
990.795	-14.85
990.965	542.2
991.134	-80.38
991.304	-55.81
991.474	-84.48
991.644	175.61
991.814	648.69
991.984	-164.35
992.153	-96.77
992.323	175.61
992.493	175.61
992.662	-313.85
992.832	126.46
993.002	181.76
993.171	288.25
993.341	-223.74
993.511	69.12
993.68	75.26
993.85	364.03
994.019	-279.04
994.189	-207.36
994.358	259.58
994.528	32.26
994.697	-313.85
994.867	-215.55
995.036	421.37
995.206	132.61
995.375	-104.96
995.544	83.45
995.714	136.7
995.883	-6.66
996.052	-2.56
996.222	-330.23
996.391	665.08
996.56	296.44
996.73	-236.03
996.899	-248.32
997.068	468.47
997.237	235
997.406	-104.96
997.576	-217.6
997.745	218.62
997.914	282.11
998.083	-281.08
998.252	-174.59
998.421	83.45
998.59	67.07
998.759	-229.88
998.928	-242.17
999.097	486.9
999.266	251.39
999.435	-23.04
999.604	-207.36
999.773	581.11
999.942	130.56
1000.111	-254.46
1000.28	-246.27
1000.448	-61.95
1000.617	-68.09
1000.786	-6.66
1000.955	-287.23
1001.124	228.86
1001.292	759.28
1001.461	-168.45
1001.63	-195.07
1001.798	585.21
1001.967	398.84
1002.136	-227.84
1002.304	-227.84
1002.473	177.66
1002.642	212.48
1002.81	-121.34
1002.979	-211.45
1003.147	253.44
1003.316	716.28
1003.484	-190.97
1003.653	-150.01
1003.821	439.8
1003.99	167.42
1004.158	11.78
1004.327	-129.53
1004.495	312.83
1004.663	46.59
1004.832	-47.62
1005	-291.32
1005.168	237.05
1005.337	239.1
1005.505	-285.18
1005.673	83.45
1005.842	339.45
1006.01	210.43
1006.178	-264.7
1006.346	-182.78
1006.514	288.25
1006.683	456.19
1006.851	-150.01
1007.019	-317.95
1007.187	-64
1007.355	-279.04
1007.523	-403.96
1007.691	-354.81
1007.859	-121.34
1008.027	419.32
1008.195	-195.07
1008.363	-242.17
1008.531	390.65
1008.699	77.31
1008.867	-244.22
1009.035	-188.93
1009.203	400.89
1009.37	200.19
1009.538	-96.77
1009.706	267.77
1009.874	202.24
1010.042	95.74
1010.209	-301.56
1010.377	-225.79
1010.545	404.99
1010.713	122.37
1010.88	-217.6
1011.048	-176.64
1011.216	13.82
1011.383	452.09
1011.551	-256.51
1011.718	-244.22
1011.886	349.69
1012.054	17.92
1012.221	-233.98
1012.389	-291.32
1012.556	36.35
1012.724	509.43
1012.891	-123.39
1013.058	-334.33
1013.226	196.09
1013.393	318.97
1013.561	-285.18
1013.728	-270.84
1013.895	296.44
1014.063	222.72
1014.23	-348.67
1014.397	-170.49
1014.565	357.88
1014.732	17.92
1014.899	-211.45
1015.066	-260.6
1015.233	183.81
1015.401	257.53
1015.568	-133.63
1015.735	-14.85
1015.902	44.54
1016.069	280.06
1016.236	-268.8
1016.403	-272.89
1016.57	-102.91
1016.737	333.31
1016.904	-170.49
1017.071	-283.13
1017.238	-27.14
1017.405	302.59
1017.572	-158.21
1017.739	50.69
1017.906	216.57
1018.073	298.49
1018.24	-301.56
1018.407	-207.36
1018.573	333.31
1018.74	-8.7
1018.907	-182.78
1019.074	-342.52
1019.241	345.59
1019.407	161.28
1019.574	-246.27
1019.741	-363
1019.907	187.9
1020.074	296.44
1020.241	-414.2
1020.407	-303.61
1020.574	243.2
1020.74	271.87
1020.907	-203.26
1021.073	-315.9
1021.24	595.45
1021.406	474.62
1021.573	-236.03
1021.739	-227.84
1021.906	366.07
1022.072	-45.57
1022.239	-195.07
1022.405	-193.02
1022.571	144.89
1022.738	-129.53
1022.904	-203.26
1023.07	-193.02
1023.237	132.61
1023.403	460.28
1023.569	-193.02
1023.735	-190.97
1023.902	239.1
1024.068	177.66
1024.234	-291.32
1024.4	-158.21
1024.566	159.23
1024.732	353.79
1024.898	-233.98
1025.065	-408.06
1025.231	321.02
1025.397	-23.04
1025.563	-162.3
1025.729	-348.67
1025.895	-342.52
1026.061	-76.29
1026.227	-330.23
1026.392	-225.79
1026.558	337.4
1026.724	261.63
1026.89	-299.52
1027.056	-186.88
1027.222	230.91
1027.388	58.88
1027.553	-233.98
1027.719	-301.56
1027.885	527.86
1028.051	337.4
1028.216	-444.92
1028.382	-231.93
1028.548	341.5
1028.713	48.64
1028.879	-242.17
1029.045	-12.8
1029.21	564.73
1029.376	466.42
1029.541	-193.02
1029.707	-195.07
1029.873	222.72
1030.038	333.31
1030.204	-219.64
1030.369	-141.82
1030.534	294.4
1030.7	19.97
1030.865	-201.21
1031.031	-289.28
1031.196	194.05
1031.361	267.77
1031.527	-297.47
1031.692	-367.1
1031.857	-180.73
1032.023	177.66
1032.188	-350.71
1032.353	-117.25
1032.518	507.38
1032.684	192
1032.849	-326.14
1033.014	-121.34
1033.179	306.68
1033.344	280.06
1033.509	-61.95
1033.674	-211.45
1033.839	390.65
1034.004	292.35
1034.17	-301.56
1034.335	-246.27
1034.5	77.31
1034.664	48.64
1034.829	-299.52
1034.994	-168.45
1035.159	228.86
1035.324	183.81
1035.489	-266.75
1035.654	-258.56
1035.819	523.77
1035.984	253.44
1036.148	-176.64
1036.313	-154.11
1036.478	284.16
1036.643	148.99
1036.807	-274.94
1036.972	-221.69
1037.137	470.52
1037.301	148.99
1037.466	-391.67
1037.631	-125.44
1037.795	400.89
1037.96	300.54
1038.124	-80.38
1038.289	-281.08
1038.454	316.92
1038.618	224.76
1038.783	-156.16
1038.947	-76.29
1039.111	253.44
1039.276	130.56
1039.44	-248.32
1039.605	226.81
1039.769	151.04
1039.933	241.15
1040.098	-104.96
1040.262	-70.14
1040.426	386.55
1040.591	275.96
1040.755	-274.94
1040.919	-221.69
1041.083	325.12
1041.248	110.08
1041.412	-332.28
1041.576	-221.69
1041.74	126.46
1041.904	282.11
1042.068	-250.36
1042.232	-162.3
1042.397	374.27
1042.561	216.57
1042.725	-487.93
1042.889	-25.09
1043.053	386.55
1043.217	331.26
1043.381	-74.24
1043.544	-342.52
1043.708	413.18
1043.872	-129.53
1044.036	-416.25
1044.2	-240.12
1044.364	484.86
1044.528	468.47
1044.691	2977.23
1044.855	-276.99
1045.019	343.55
1045.183	257.53
1045.346	-162.3
1045.51	-279.04
1045.674	249.34
1045.837	237.05
1046.001	-113.15
1046.165	-281.08
1046.328	681.46
1046.492	259.58
1046.655	-41.47
1046.819	-133.63
1046.983	62.98
1047.146	304.64
1047.31	-219.64
1047.473	-360.95
1047.636	206.33
1047.8	17.92
1047.963	-107.01
1048.127	-199.16
1048.29	-53.76
