Data from Ink_Intensity_USB4F045381__35__00035.txt Node

Date: Mon Jul 17 09:49:11 EDT 2023
User: mmckonesweet
Spectrometer: USB4F04538
Trigger mode: 4
Integration Time (sec): 9.000000E-1
Scans to average: 1
Electric dark correction enabled: true
Nonlinearity correction enabled: false
Boxcar width: 0
XAxis mode: Wavelengths
Number of Pixels in Spectrum: 3648
>>>>>Begin Spectral Data<<<<<
345.52	-961.35
345.736	-961.35
345.952	-961.35
346.168	-994.12
346.384	-924.49
346.6	-109.4
346.816	-219.99
347.032	-244.56
347.248	249
347.464	-209.75
347.68	-164.69
347.896	144.55
348.112	384.16
348.328	-101.2
348.544	-68.44
348.76	76.97
348.975	263.33
349.191	-213.84
349.407	-97.11
349.623	-72.53
349.839	-43.86
350.055	-72.53
350.27	21.67
350.486	193.7
350.702	390.31
350.918	228.52
351.133	-105.3
351.349	132.26
351.565	390.31
351.781	-150.36
351.996	81.07
352.212	347.3
352.428	-174.93
352.644	-58.2
352.859	-205.65
353.075	259.24
353.291	-86.87
353.506	-25.43
353.722	-185.17
353.938	-76.63
354.153	375.97
354.369	36.01
354.584	-195.41
354.8	234.66
355.016	-330.58
355.231	-129.88
355.447	-52.05
355.662	72.87
355.878	865.44
356.093	-324.43
356.309	62.63
356.524	-277.33
356.74	226.47
356.955	-93.01
357.171	40.11
357.386	148.65
357.602	-269.14
357.817	-72.53
358.033	-258.9
358.248	382.12
358.464	109.74
358.679	-93.01
358.895	-250.71
359.11	-47.96
359.325	361.64
359.541	300.2
359.756	-56.15
359.972	-375.63
360.187	107.69
360.402	-224.08
360.618	-123.73
360.833	935.07
361.048	181.42
361.264	-133.97
361.479	-29.52
361.694	-4.95
361.909	214.18
362.125	-146.26
362.34	-160.59
362.555	222.38
362.77	15.53
362.986	-267.09
363.201	-193.36
363.416	226.47
363.631	60.59
363.847	-144.21
364.062	-148.31
364.277	167.08
364.492	113.83
364.707	-70.48
364.922	-295.76
365.138	214.18
365.353	269.48
365.568	-205.65
365.783	-183.12
365.998	107.69
366.213	537.76
366.428	-215.89
366.643	23.72
366.858	345.25
367.073	226.47
367.288	-99.16
367.503	-219.99
367.718	99.5
367.933	326.82
368.148	-279.38
368.363	-117.59
368.578	-33.62
368.793	488.61
369.008	-121.68
369.223	-150.36
369.438	122.02
369.653	335.01
369.868	-183.12
370.083	-234.32
370.298	89.26
370.513	390.31
370.728	128.17
370.943	-140.12
371.157	-138.07
371.372	408.74
371.587	-312.14
371.802	-158.55
372.017	9.39
372.232	380.07
372.446	1.19
372.661	-256.85
372.876	259.24
373.091	167.08
373.306	-70.48
373.52	-236.37
373.735	-187.22
373.95	310.44
374.165	-45.91
374.379	-166.74
374.594	-133.97
374.809	-0.85
375.023	9.39
375.238	-256.85
375.453	152.74
375.667	-260.95
375.882	-150.36
376.097	-158.55
376.311	25.77
376.526	21.67
376.741	-121.68
376.955	29.87
377.17	537.76
377.384	451.75
377.599	-123.73
377.813	-115.54
378.028	545.95
378.242	117.93
378.457	-119.64
378.672	-385.87
378.886	23.72
379.101	-39.76
379.315	-265.04
379.53	-158.55
379.744	181.42
379.958	167.08
380.173	-123.73
380.387	-160.59
380.602	128.17
380.816	-156.5
381.031	-187.22
381.245	-84.82
381.459	205.99
381.674	2409.61
381.888	-109.4
382.103	111.78
382.317	-144.21
382.531	529.57
382.746	-113.49
382.96	-160.59
383.174	-174.93
383.388	433.32
383.603	146.6
383.817	-342.86
384.031	113.83
384.246	418.98
384.46	-2.9
384.674	357.54
384.888	29.87
385.103	36.01
385.317	-281.43
385.531	-113.49
385.745	304.29
385.959	289.96
386.174	-111.44
386.388	-170.83
386.602	13.48
386.816	-191.31
387.03	-64.34
387.244	-97.11
387.458	-7
387.672	367.78
387.887	-191.31
388.101	-222.03
388.315	349.35
388.529	15.53
388.743	-76.63
388.957	-217.94
389.171	289.96
389.385	-168.79
389.599	-86.87
389.813	50.35
390.027	218.28
390.241	597.15
390.455	-211.79
390.669	-80.72
390.883	-179.03
391.097	388.26
391.311	-17.24
391.525	-158.55
391.738	74.92
391.952	150.7
392.166	-101.2
392.38	-238.42
392.594	234.66
392.808	343.21
393.022	-144.21
393.236	-129.88
393.449	179.37
393.663	68.78
393.877	-260.95
394.091	-52.05
394.305	-41.81
394.518	-187.22
394.732	-207.7
394.946	-142.16
395.16	492.71
395.373	85.16
395.587	-269.14
395.801	-129.88
396.015	246.95
396.228	185.51
396.442	-306
396.656	-308.05
396.869	328.87
397.083	369.83
397.297	-121.68
397.51	-66.39
397.724	304.29
397.938	70.83
398.151	-277.33
398.365	-222.03
398.578	169.13
398.792	337.06
399.005	-43.86
399.219	-109.4
399.433	42.15
399.646	210.09
399.86	42.15
400.073	36.01
400.287	175.27
400.5	-15.19
400.714	-11.09
400.927	-111.44
401.141	183.46
401.354	1062.04
401.567	148.65
401.781	-197.46
401.994	341.16
402.208	556.19
402.421	-35.67
402.635	-27.48
402.848	15.53
403.061	355.49
403.275	-68.44
403.488	-185.17
403.701	418.98
403.915	179.37
404.128	-4.95
404.341	-105.3
404.555	40.11
404.768	-2.9
404.981	-50
405.195	-152.4
405.408	566.43
405.621	306.34
405.834	-37.72
406.048	-187.22
406.261	439.46
406.474	418.98
406.687	-166.74
406.9	1.19
407.114	-9.05
407.327	58.54
407.54	-211.79
407.753	-236.37
407.966	-86.87
408.179	177.32
408.392	-219.99
408.605	-250.71
408.819	103.59
409.032	150.7
409.245	-228.18
409.458	-23.38
409.671	183.46
409.884	298.15
410.097	-267.09
410.31	-0.85
410.523	134.31
410.736	-52.05
410.949	-88.92
411.162	-158.55
411.375	392.36
411.588	246.95
411.801	101.55
412.014	-174.93
412.227	46.25
412.44	-127.83
412.653	-232.27
412.865	-58.2
413.078	177.32
413.291	201.9
413.504	-142.16
413.717	-172.88
413.93	150.7
414.143	-109.4
414.356	-56.15
414.568	-293.71
414.781	242.85
414.994	95.4
415.207	-68.44
415.42	-27.48
415.632	220.33
415.845	545.95
416.058	-287.57
416.271	-219.99
416.483	-17.24
416.696	404.64
416.909	-109.4
417.121	-271.19
417.334	191.66
417.547	486.56
417.759	-170.83
417.972	-256.85
418.185	-127.83
418.397	175.27
418.61	-162.64
418.823	-138.07
419.035	353.45
419.248	21.67
419.46	-11.09
419.673	-43.86
419.885	208.04
420.098	21.67
420.311	-185.17
420.523	-361.3
420.736	208.04
420.948	-23.38
421.161	-164.69
421.373	-346.96
421.586	156.84
421.798	-121.68
422.01	-277.33
422.223	-23.38
422.435	-99.16
422.648	111.78
422.86	-189.27
423.073	-236.37
423.285	259.24
423.497	-201.55
423.71	-150.36
423.922	-226.13
424.134	97.45
424.347	316.58
424.559	54.44
424.771	91.31
424.984	-23.38
425.196	17.58
425.408	-334.67
425.621	-277.33
425.833	353.45
426.045	289.96
426.257	-248.66
426.47	-181.07
426.682	150.7
426.894	136.36
427.106	-115.54
427.318	-95.06
427.531	-144.21
427.743	162.98
427.955	-195.41
428.167	292.01
428.379	220.33
428.591	7.34
428.804	-62.29
429.016	-234.32
429.228	-41.81
429.44	79.02
429.652	115.88
429.864	-308.05
430.076	-19.29
430.288	-86.87
430.5	-121.68
430.712	-152.4
430.924	318.63
431.136	109.74
431.348	-262.99
431.56	-222.03
431.772	25.77
431.984	-68.44
432.196	-138.07
432.408	-142.16
432.62	29.87
432.832	177.32
433.044	40.11
433.256	-4.95
433.468	193.7
433.679	-269.14
433.891	-183.12
434.103	3.24
434.315	326.82
434.527	261.29
434.739	-140.12
434.95	-127.83
435.162	203.94
435.374	-52.05
435.586	-166.74
435.798	-107.35
436.009	-207.7
436.221	-27.48
436.433	-179.03
436.645	-170.83
436.856	-99.16
437.068	308.39
437.28	-256.85
437.491	128.17
437.703	177.32
437.915	136.36
438.126	-115.54
438.338	17.58
438.55	15.53
438.761	160.94
438.973	-156.5
439.184	-179.03
439.396	83.11
439.608	179.37
439.819	-244.56
440.031	-54.1
440.242	210.09
440.454	173.22
440.665	-72.53
440.877	-15.19
441.088	85.16
441.3	-54.1
441.511	-289.62
441.723	-217.94
441.934	87.21
442.146	13.48
442.357	17.58
442.569	99.5
442.78	-21.33
442.991	437.41
443.203	169.13
443.414	-228.18
443.626	345.25
443.837	-219.99
444.048	-265.04
444.26	-375.63
444.471	95.4
444.682	238.76
444.894	-269.14
445.105	-293.71
445.316	203.94
445.528	97.45
445.739	-115.54
445.95	-125.78
446.161	85.16
446.373	226.47
446.584	-107.35
446.795	-109.4
447.006	242.85
447.217	494.76
447.429	-338.77
447.64	-250.71
447.851	246.95
448.062	167.08
448.273	-412.5
448.484	-240.47
448.695	95.4
448.907	-90.96
449.118	-25.43
449.329	-39.76
449.54	-103.25
449.751	-203.6
449.962	-144.21
450.173	-201.55
450.384	193.7
450.595	341.16
450.806	-195.41
451.017	-146.26
451.228	431.27
451.439	201.9
451.65	-131.92
451.861	-260.95
452.072	-166.74
452.283	36.01
452.494	40.11
452.705	-207.7
452.915	314.53
453.126	52.39
453.337	-207.7
453.548	-230.23
453.759	273.57
453.97	504.99
454.181	66.73
454.391	-138.07
454.602	15.53
454.813	85.16
455.024	-121.68
455.235	-215.89
455.445	23.72
455.656	169.13
455.867	40.11
456.078	-217.94
456.288	-52.05
456.499	91.31
456.71	-183.12
456.921	-27.48
457.131	103.59
457.342	62.63
457.553	-88.92
457.763	-193.36
457.974	222.38
458.184	193.7
458.395	-269.14
458.606	-222.03
458.816	392.36
459.027	414.88
459.237	-47.96
459.448	-346.96
459.659	251.05
459.869	406.69
460.08	-353.1
460.29	-58.2
460.501	496.8
460.711	-45.91
460.922	-324.43
461.132	-181.07
461.343	629.92
461.553	-213.84
461.764	-191.31
461.974	-199.51
462.184	246.95
462.395	115.88
462.605	-78.68
462.816	-207.7
463.026	85.16
463.236	300.2
463.447	-254.8
463.657	-133.97
463.867	236.71
464.078	-52.05
464.288	-88.92
464.498	-244.56
464.709	-52.05
464.919	-56.15
465.129	-164.69
465.339	-265.04
465.55	64.68
465.76	226.47
465.97	-136.02
466.18	-306
466.391	265.38
466.601	103.59
466.811	-140.12
467.021	-242.51
467.231	128.17
467.441	332.97
467.651	-72.53
467.862	-408.4
468.072	40.11
468.282	418.98
468.492	-133.97
468.702	-103.25
468.912	124.07
469.122	527.52
469.332	38.06
469.542	-273.23
469.752	119.98
469.962	74.92
470.172	-260.95
470.382	-187.22
470.592	210.09
470.802	255.14
471.012	-88.92
471.222	-262.99
471.432	244.9
471.642	173.22
471.852	-70.48
472.062	-209.75
472.272	-74.58
472.482	-150.36
472.691	-226.13
472.901	-199.51
473.111	132.26
473.321	582.82
473.531	-287.57
473.741	-78.68
473.95	-9.05
474.16	224.42
474.37	-78.68
474.58	-207.7
474.79	406.69
474.999	220.33
475.209	-254.8
475.419	-68.44
475.628	-50
475.838	304.29
476.048	-181.07
476.258	-312.14
476.467	339.11
476.677	-172.88
476.886	-0.85
477.096	-64.34
477.306	-105.3
477.515	386.21
477.725	-56.15
477.935	-119.64
478.144	312.49
478.354	-111.44
478.563	-152.4
478.773	-240.47
478.982	261.29
479.192	308.39
479.401	-66.39
479.611	-273.23
479.82	-121.68
480.03	72.87
480.239	-226.13
480.449	-326.48
480.658	404.64
480.868	-109.4
481.077	-107.35
481.287	-121.68
481.496	70.83
481.705	367.78
481.915	-2.9
482.124	107.69
482.333	105.64
482.543	412.84
482.752	-76.63
482.961	-125.78
483.171	205.99
483.38	111.78
483.589	-127.83
483.799	-275.28
484.008	-15.19
484.217	285.86
484.426	-95.06
484.636	-283.47
484.845	162.98
485.054	-236.37
485.263	142.5
485.472	-152.4
485.682	449.7
485.891	109.74
486.1	-269.14
486.309	-125.78
486.518	199.85
486.727	308.39
486.936	-154.45
487.146	-45.91
487.355	431.27
487.564	-174.93
487.773	-152.4
487.982	-201.55
488.191	-17.24
488.4	93.35
488.609	-125.78
488.818	-146.26
489.027	621.73
489.236	373.92
489.445	-133.97
489.654	-219.99
489.863	332.97
490.072	42.15
490.281	158.89
490.49	-150.36
490.698	349.35
490.907	304.29
491.116	-123.73
491.325	-306
491.534	363.69
491.743	107.69
491.952	-97.11
492.16	-127.83
492.369	269.48
492.578	246.95
492.787	-90.96
492.996	-101.2
493.204	-97.11
493.413	478.37
493.622	-383.82
493.831	-248.66
494.039	357.54
494.248	-119.64
494.457	-185.17
494.665	-301.9
494.874	228.52
495.083	519.33
495.291	-125.78
495.5	-265.04
495.709	181.42
495.917	181.42
496.126	-23.38
496.335	-250.71
496.543	-21.33
496.752	144.55
496.96	11.43
497.169	-314.19
497.377	5.29
497.586	314.53
497.794	-4.95
498.003	-365.39
498.211	23.72
498.42	421.03
498.628	-62.29
498.837	-222.03
499.045	122.02
499.254	132.26
499.462	-228.18
499.671	-193.36
499.879	468.13
500.087	238.76
500.296	-160.59
500.504	-109.4
500.713	152.74
500.921	580.77
501.129	-183.12
501.338	-172.88
501.546	150.7
501.754	122.02
501.962	-146.26
502.171	-306
502.379	185.51
502.587	410.79
502.795	-140.12
503.004	-129.88
503.212	74.92
503.42	359.59
503.628	-109.4
503.837	-80.72
504.045	230.57
504.253	437.41
504.461	-156.5
504.669	-291.66
504.877	224.42
505.085	478.37
505.294	-273.23
505.502	42.15
505.71	62.63
505.918	300.2
506.126	-197.46
506.334	-146.26
506.542	128.17
506.75	167.08
506.958	-90.96
507.166	-58.2
507.374	-39.76
507.582	513.19
507.79	-2.9
507.998	-211.79
508.206	144.55
508.414	205.99
508.622	-138.07
508.83	-119.64
509.037	408.74
509.245	-2.9
509.453	-148.31
509.661	-240.47
509.869	193.7
510.077	54.44
510.285	-27.48
510.492	-441.17
510.7	701.6
510.908	3.24
511.116	-164.69
511.324	-144.21
511.531	-52.05
511.739	130.22
511.947	-31.57
512.155	117.93
512.362	179.37
512.57	-154.45
512.778	-189.27
512.985	-303.95
513.193	324.77
513.401	502.95
513.608	-80.72
513.816	-168.79
514.024	232.62
514.231	353.45
514.439	-117.59
514.646	-197.46
514.854	253.09
515.061	468.13
515.269	-162.64
515.477	-150.36
515.684	-144.21
515.892	261.29
516.099	-287.57
516.307	-277.33
516.514	218.28
516.722	584.87
516.929	-121.68
517.136	-226.13
517.344	455.84
517.551	214.18
517.759	-154.45
517.966	-117.59
518.173	5.29
518.381	50.35
518.588	-72.53
518.796	-193.36
519.003	226.47
519.21	36.01
519.418	-95.06
519.625	136.36
519.832	138.41
520.039	179.37
520.247	-301.9
520.454	-74.58
520.661	306.34
520.868	183.46
521.076	-133.97
521.283	-168.79
521.49	568.48
521.697	187.56
521.904	-54.1
522.112	-88.92
522.319	349.35
522.526	253.09
522.733	-152.4
522.94	-195.41
523.147	132.26
523.354	349.35
523.561	-340.82
523.768	-52.05
523.975	361.64
524.183	171.18
524.39	-66.39
524.597	-244.56
524.804	134.31
525.011	-133.97
525.218	-170.83
525.425	-136.02
525.632	421.03
525.838	19.63
526.045	-115.54
526.252	-217.94
526.459	1135.77
526.666	869.53
526.873	-166.74
527.08	-127.83
527.287	525.47
527.494	222.38
527.701	-195.41
527.907	-183.12
528.114	271.53
528.321	85.16
528.528	-15.19
528.735	-121.68
528.941	-7
529.148	33.96
529.355	-13.14
529.562	-78.68
529.768	486.56
529.975	81.07
530.182	-11.09
530.388	-154.45
530.595	347.3
530.802	-109.4
531.008	42.15
531.215	-35.67
531.422	767.13
531.628	801.95
531.835	-95.06
532.042	7.34
532.248	-17.24
532.455	232.62
532.661	-148.31
532.868	-148.31
533.074	175.27
533.281	296.1
533.487	-86.87
533.694	-197.46
533.9	-66.39
534.107	265.38
534.313	-164.69
534.52	-201.55
534.726	404.64
534.933	545.95
535.139	-176.98
535.345	-215.89
535.552	140.46
535.758	134.31
535.965	-117.59
536.171	-111.44
536.377	339.11
536.584	394.4
536.79	-58.2
536.996	-21.33
537.203	158.89
537.409	152.74
537.615	-31.57
537.821	23.72
538.028	326.82
538.234	343.21
538.44	-105.3
538.646	-0.85
538.853	316.58
539.059	66.73
539.265	320.68
539.471	-260.95
539.677	332.97
539.883	3.24
540.09	-60.24
540.296	349.35
540.502	113.83
540.708	17.58
540.914	68.78
541.12	-125.78
541.326	271.53
541.532	150.7
541.738	-11.09
541.944	-68.44
542.15	382.12
542.356	210.09
542.562	-117.59
542.768	-25.43
542.974	752.8
543.18	621.73
543.386	-115.54
543.592	-228.18
543.798	416.93
544.004	418.98
544.21	-199.51
544.415	42.15
544.621	234.66
544.827	394.4
545.033	-199.51
545.239	68.78
545.445	-119.64
545.651	246.95
545.856	-78.68
546.062	-41.81
546.268	68.78
546.474	156.84
546.679	-35.67
546.885	44.2
547.091	25.77
547.297	548
547.502	-11.09
547.708	-242.51
547.914	17.58
548.119	296.1
548.325	-144.21
548.531	-148.31
548.736	601.25
548.942	-25.43
549.147	-133.97
549.353	208.04
549.559	416.93
549.764	257.19
549.97	-133.97
550.175	-2.9
550.381	265.38
550.586	89.26
550.792	-27.48
550.997	-7
551.203	240.81
551.408	445.6
551.614	-133.97
551.819	-144.21
552.025	593.06
552.23	654.5
552.435	-240.47
552.641	103.59
552.846	25.77
553.052	453.8
553.257	79.02
553.462	9.39
553.668	-9.05
553.873	402.6
554.078	-23.38
554.283	-179.03
554.489	289.96
554.694	167.08
554.899	-117.59
555.105	97.45
555.31	335.01
555.515	375.97
555.72	62.63
555.925	-121.68
556.131	341.16
556.336	115.88
556.541	-107.35
556.746	-103.25
556.951	474.28
557.156	593.06
557.361	17.58
557.567	31.91
557.772	685.22
557.977	310.44
558.182	-70.48
558.387	-7
558.592	17.58
558.797	582.82
559.002	31.91
559.207	107.69
559.412	193.7
559.617	586.91
559.822	-115.54
560.027	-103.25
560.232	271.53
560.437	390.31
560.642	-133.97
560.847	-78.68
561.051	183.46
561.256	228.52
561.461	7.34
561.666	-138.07
561.871	230.57
562.076	394.4
562.281	58.54
562.485	-95.06
562.69	314.53
562.895	435.36
563.1	44.2
563.305	-60.24
563.509	537.76
563.714	814.24
563.919	-66.39
564.123	-66.39
564.328	171.18
564.533	449.7
564.737	46.25
564.942	-39.76
565.147	644.26
565.351	797.85
565.556	95.4
565.761	101.55
565.965	244.9
566.17	111.78
566.374	40.11
566.579	-195.41
566.784	304.29
566.988	113.83
567.193	-144.21
567.397	-2.9
567.602	-68.44
567.806	226.47
568.011	-41.81
568.215	1.19
568.42	117.93
568.624	124.07
568.828	-15.19
569.033	111.78
569.237	337.06
569.442	320.68
569.646	-68.44
569.85	48.3
570.055	208.04
570.259	400.55
570.463	218.28
570.668	70.83
570.872	191.66
571.076	226.47
571.281	109.74
571.485	64.68
571.689	275.62
571.893	406.69
572.098	142.5
572.302	13.48
572.506	410.79
572.71	375.97
572.914	17.58
573.119	-9.05
573.323	670.88
573.527	480.42
573.731	21.67
573.935	-43.86
574.139	349.35
574.343	91.31
574.547	52.39
574.751	-4.95
574.955	654.5
575.159	447.65
575.364	-19.29
575.568	-133.97
575.772	158.89
575.976	525.47
576.18	-23.38
576.383	-109.4
576.587	552.1
576.791	435.36
576.995	-168.79
577.199	-181.07
577.403	459.94
577.607	470.18
577.811	-60.24
578.015	128.17
578.219	339.11
578.422	482.47
578.626	140.46
578.83	208.04
579.034	515.23
579.238	373.92
579.442	13.48
579.645	390.31
579.849	242.85
580.053	349.35
580.257	91.31
580.46	130.22
580.664	595.11
580.868	439.46
581.071	230.57
581.275	208.04
581.479	-4.95
581.682	472.23
581.886	68.78
582.09	156.84
582.293	373.92
582.497	527.52
582.7	197.8
582.904	97.45
583.107	320.68
583.311	283.81
583.515	195.75
583.718	60.59
583.922	404.64
584.125	844.96
584.329	23.72
584.532	132.26
584.735	580.77
584.939	398.5
585.142	-39.76
585.346	21.67
585.549	421.03
585.753	187.56
585.956	185.51
586.159	181.42
586.363	695.46
586.566	443.56
586.769	-23.38
586.973	21.67
587.176	537.76
587.379	591.01
587.582	447.65
587.786	332.97
587.989	292.01
588.192	1033.37
588.395	167.08
588.599	328.87
588.802	345.25
589.005	543.91
589.208	115.88
589.411	87.21
589.615	591.01
589.818	658.59
590.021	285.86
590.224	187.56
590.427	566.43
590.63	500.9
590.833	19.63
591.036	68.78
591.239	269.48
591.442	240.81
591.645	316.58
591.848	122.02
592.051	472.23
592.254	531.62
592.457	240.81
592.66	115.88
592.863	302.25
593.066	425.12
593.269	93.35
593.472	210.09
593.675	115.88
593.878	519.33
594.081	216.23
594.284	79.02
594.486	449.7
594.689	392.36
594.892	214.18
595.095	201.9
595.298	441.51
595.5	271.53
595.703	263.33
595.906	283.81
596.109	685.22
596.311	597.15
596.514	-127.83
596.717	271.53
596.92	572.58
597.122	470.18
597.325	-60.24
597.528	177.32
597.73	771.23
597.933	480.42
598.136	95.4
598.338	-64.34
598.541	492.71
598.743	699.55
598.946	183.46
599.148	144.55
599.351	636.06
599.554	625.83
599.756	287.91
599.959	138.41
600.161	584.87
600.363	933.02
600.566	435.36
600.768	148.65
600.971	836.77
601.173	683.17
601.376	134.31
601.578	167.08
601.78	504.99
601.983	875.68
602.185	199.85
602.388	326.82
602.59	541.86
602.792	212.14
602.995	449.7
603.197	113.83
603.399	623.78
603.601	545.95
603.804	152.74
604.006	142.5
604.208	339.11
604.41	-2.9
604.613	416.93
604.815	95.4
605.017	918.68
605.219	226.47
605.421	535.71
605.623	107.69
605.826	742.56
606.028	787.61
606.23	128.17
606.432	218.28
606.634	902.3
606.836	715.94
607.038	52.39
607.24	388.26
607.442	423.08
607.644	566.43
607.846	300.2
608.048	136.36
608.25	765.09
608.452	359.59
608.654	271.53
608.856	54.44
609.058	328.87
609.26	625.83
609.462	244.9
609.664	212.14
609.866	861.34
610.067	683.17
610.269	429.22
610.471	279.72
610.673	425.12
610.875	511.14
611.077	27.82
611.278	361.64
611.48	492.71
611.682	902.3
611.884	308.39
612.085	300.2
612.287	283.81
612.489	611.49
612.69	31.91
612.892	326.82
613.094	638.11
613.295	576.67
613.497	128.17
613.699	203.94
613.9	828.57
614.102	775.33
614.304	316.58
614.505	64.68
614.707	527.52
614.908	386.21
615.11	42.15
615.311	306.34
615.513	629.92
615.714	631.97
615.916	162.98
616.117	332.97
616.319	474.28
616.52	687.26
616.722	269.48
616.923	275.62
617.124	783.52
617.326	738.46
617.527	306.34
617.729	466.08
617.93	611.49
618.131	709.79
618.333	165.03
618.534	363.69
618.735	314.53
618.937	855.2
619.138	83.11
619.339	228.52
619.54	664.74
619.742	369.83
619.943	480.42
620.144	324.77
620.345	734.37
620.546	677.02
620.748	185.51
620.949	287.91
621.15	500.9
621.351	543.91
621.552	283.81
621.753	101.55
621.954	154.79
622.155	943.26
622.356	167.08
622.558	476.32
622.759	597.15
622.96	892.06
623.161	234.66
623.362	343.21
623.563	439.46
623.764	631.97
623.965	312.49
624.166	486.56
624.366	451.75
624.567	609.44
624.768	-19.29
624.969	287.91
625.17	445.6
625.371	613.54
625.572	382.12
625.773	113.83
625.973	742.56
626.174	760.99
626.375	384.16
626.576	414.88
626.777	687.26
626.977	1049.75
627.178	281.77
627.379	375.97
627.58	513.19
627.78	480.42
627.981	461.99
628.182	386.21
628.382	816.29
628.583	316.58
628.784	267.43
628.984	504.99
629.185	806.05
629.386	767.13
629.586	461.99
629.787	222.38
629.987	785.57
630.188	519.33
630.388	347.3
630.589	234.66
630.79	1135.77
630.99	615.59
631.191	414.88
631.391	337.06
631.591	791.71
631.792	947.36
631.992	521.38
632.193	351.4
632.393	955.55
632.594	482.47
632.794	365.73
632.994	496.8
633.195	650.4
633.395	609.44
633.595	351.4
633.796	570.53
633.996	386.21
634.196	816.29
634.397	175.27
634.597	484.52
634.797	384.16
634.997	883.87
635.198	552.1
635.398	208.04
635.598	550.05
635.798	906.4
635.998	797.85
636.199	289.96
636.399	529.57
636.599	390.31
636.799	353.45
636.999	584.87
637.199	683.17
637.399	699.55
637.599	353.45
637.799	464.04
637.999	461.99
638.199	896.16
638.399	357.54
638.599	363.69
638.799	767.13
638.999	1053.85
639.199	603.3
639.399	498.85
639.599	949.4
639.799	398.5
639.999	330.92
640.199	308.39
640.399	625.83
640.599	582.82
640.799	451.75
640.998	560.29
641.198	922.78
641.398	593.06
641.598	498.85
641.798	412.84
641.997	1412.25
642.197	621.73
642.397	525.47
642.597	388.26
642.796	828.57
642.996	1021.08
643.196	529.57
643.395	349.35
643.595	681.12
643.795	169.13
643.994	451.75
644.194	548
644.394	832.67
644.593	677.02
644.793	228.52
644.992	513.19
645.192	736.42
645.392	335.01
645.591	474.28
645.791	421.03
645.99	787.61
646.19	566.43
646.389	521.38
646.589	488.61
646.788	832.67
646.987	791.71
647.187	621.73
647.386	672.93
647.586	660.64
647.785	867.49
647.984	445.6
648.184	507.04
648.383	615.59
648.582	558.24
648.782	449.7
648.981	572.58
649.18	433.32
649.38	679.07
649.579	457.89
649.778	392.36
649.977	750.75
650.177	732.32
650.376	486.56
650.575	357.54
650.774	1039.51
650.973	421.03
651.173	275.62
651.372	529.57
651.571	668.83
651.77	906.4
651.969	457.89
652.168	570.53
652.367	431.27
652.566	777.37
652.765	435.36
652.964	728.22
653.163	1180.82
653.362	591.01
653.561	466.08
653.76	545.95
653.959	631.97
654.158	793.76
654.357	691.36
654.556	404.64
654.755	750.75
654.954	818.33
655.153	517.28
655.352	509.09
655.551	916.64
655.749	519.33
655.948	531.62
656.147	492.71
656.346	652.45
656.545	722.08
656.743	595.11
656.942	492.71
657.141	777.37
657.34	472.23
657.538	525.47
657.737	482.47
657.936	486.56
658.135	799.9
658.333	521.38
658.532	607.39
658.731	1070.23
658.929	851.1
659.128	818.33
659.326	511.14
659.525	1031.32
659.724	691.36
659.922	289.96
660.121	416.93
660.319	662.69
660.518	550.05
660.716	388.26
660.915	453.8
661.113	1033.37
661.312	484.52
661.51	699.55
661.709	545.95
661.907	810.14
662.105	1170.58
662.304	566.43
662.502	496.8
662.701	1033.37
662.899	681.12
663.097	738.46
663.296	382.12
663.494	933.02
663.692	1168.54
663.891	455.84
664.089	421.03
664.287	744.61
664.485	1146.01
664.684	431.27
664.882	765.09
665.08	707.74
665.278	717.98
665.476	459.94
665.675	746.66
665.873	1250.46
666.071	1027.23
666.269	466.08
666.467	715.94
666.665	771.23
666.863	660.64
667.061	580.77
667.259	435.36
667.457	691.36
667.655	963.74
667.853	371.88
668.051	615.59
668.249	574.63
668.447	820.38
668.645	449.7
668.843	617.63
669.041	849.05
669.239	648.35
669.437	631.97
669.635	662.69
669.833	627.87
670.031	928.92
670.229	677.02
670.426	668.83
670.624	668.83
670.822	525.47
671.02	455.84
671.218	715.94
671.415	521.38
671.613	781.47
671.811	615.59
672.009	611.49
672.206	920.73
672.404	765.09
672.602	748.7
672.799	625.83
672.997	797.85
673.195	1070.23
673.392	756.9
673.59	429.22
673.788	838.81
673.985	371.88
674.183	640.16
674.38	572.58
674.578	996.51
674.775	595.11
674.973	498.85
675.17	355.49
675.368	1129.63
675.565	896.16
675.763	511.14
675.96	556.19
676.158	1074.33
676.355	709.79
676.553	548
676.75	513.19
676.947	791.71
677.145	658.59
677.342	644.26
677.539	691.36
677.737	801.95
677.934	1328.28
678.131	736.42
678.329	488.61
678.526	1082.52
678.723	1049.75
678.92	685.22
679.118	570.53
679.315	480.42
679.512	1260.7
679.709	693.41
679.906	644.26
680.104	1066.14
680.301	992.41
680.498	461.99
680.695	490.66
680.892	572.58
681.089	681.12
681.286	720.03
681.483	468.13
681.68	963.74
681.877	1000.6
682.075	644.26
682.272	838.81
682.469	781.47
682.665	742.56
682.862	504.99
683.059	361.64
683.256	943.26
683.453	857.25
683.65	709.79
683.847	586.91
684.044	732.32
684.241	652.45
684.438	754.85
684.635	472.23
684.831	1248.41
685.028	1293.46
685.225	668.83
685.422	746.66
685.619	728.22
685.815	808.09
686.012	756.9
686.209	646.3
686.405	574.63
686.602	1033.37
686.799	486.56
686.996	535.71
687.192	548
687.389	1166.49
687.586	580.77
687.782	570.53
687.979	1221.78
688.175	1070.23
688.372	699.55
688.568	591.01
688.765	677.02
688.962	1201.3
689.158	695.46
689.355	468.13
689.551	980.12
689.748	658.59
689.944	742.56
690.14	431.27
690.337	973.98
690.533	652.45
690.73	855.2
690.926	699.55
691.123	963.74
691.319	758.94
691.515	482.47
691.712	806.05
691.908	965.79
692.104	861.34
692.301	763.04
692.497	529.57
692.693	1066.14
692.889	1057.95
693.086	720.03
693.282	404.64
693.478	879.77
693.674	1201.3
693.87	664.74
694.067	480.42
694.263	863.39
694.459	738.46
694.655	808.09
694.851	711.84
695.047	945.31
695.243	1072.28
695.439	738.46
695.635	523.43
695.831	1000.6
696.027	804
696.224	580.77
696.42	973.98
696.615	1197.21
696.811	881.82
697.007	476.32
697.203	679.07
697.399	930.97
697.595	1160.34
697.791	674.98
697.987	777.37
698.183	660.64
698.379	662.69
698.575	767.13
698.77	728.22
698.966	1019.04
699.162	1103
699.358	668.83
699.554	709.79
699.749	978.08
699.945	1045.66
700.141	693.41
700.337	773.28
700.532	818.33
700.728	668.83
700.924	570.53
701.119	478.37
701.315	969.88
701.511	697.5
701.706	734.37
701.902	498.85
702.097	804
702.293	988.32
702.489	783.52
702.684	668.83
702.88	732.32
703.075	781.47
703.271	695.46
703.466	529.57
703.662	824.48
703.857	994.46
704.053	560.29
704.248	715.94
704.443	1059.99
704.639	967.84
704.834	660.64
705.03	605.35
705.225	1094.81
705.42	1117.34
705.616	730.27
705.811	502.95
706.006	771.23
706.202	926.88
706.397	670.88
706.592	619.68
706.787	933.02
706.983	914.59
707.178	879.77
707.373	629.92
707.568	1186.97
707.763	1201.3
707.959	601.25
708.154	695.46
708.349	922.78
708.544	902.3
708.739	849.05
708.934	636.06
709.129	1055.9
709.324	992.41
709.519	701.6
709.714	615.59
709.909	1123.48
710.104	953.5
710.299	668.83
710.494	713.89
710.689	1006.75
710.884	879.77
711.079	797.85
711.274	867.49
711.469	926.88
711.664	1000.6
711.859	574.63
712.054	713.89
712.249	1051.8
712.443	1203.35
712.638	574.63
712.833	640.16
713.028	914.59
713.223	822.43
713.417	955.55
713.612	621.73
713.807	988.32
714.002	1377.43
714.196	881.82
714.391	656.54
714.586	1152.15
714.78	804
714.975	726.18
715.17	586.91
715.364	818.33
715.559	1057.95
715.754	418.98
715.948	689.31
716.143	1377.43
716.337	951.45
716.532	916.64
716.726	539.81
716.921	1019.04
717.115	1330.33
717.31	523.43
717.504	1078.43
717.699	838.81
717.893	1098.91
718.088	599.2
718.282	578.72
718.476	916.64
718.671	980.12
718.865	599.2
719.059	773.28
719.254	910.49
719.448	1186.97
719.642	1952.91
719.837	480.42
720.031	1121.43
720.225	1209.5
720.419	779.42
720.614	617.63
720.808	1164.44
721.002	861.34
721.196	713.89
721.39	660.64
721.585	1277.08
721.779	916.64
721.973	777.37
722.167	513.19
722.361	959.64
722.555	1107.1
722.749	631.97
722.943	787.61
723.137	611.49
723.331	996.51
723.525	715.94
723.719	656.54
723.913	978.08
724.107	1180.82
724.301	625.83
724.495	683.17
724.689	1250.46
724.883	1326.23
725.077	709.79
725.271	664.74
725.465	1170.58
725.659	885.92
725.853	836.77
726.046	513.19
726.24	851.1
726.434	1201.3
726.628	636.06
726.822	709.79
727.015	1213.59
727.209	1152.15
727.403	652.45
727.596	545.95
727.79	1123.48
727.984	1096.86
728.177	677.02
728.371	783.52
728.565	1170.58
728.758	619.68
728.952	642.21
729.146	693.41
729.339	1084.57
729.533	781.47
729.726	763.04
729.92	642.21
730.113	1186.97
730.307	832.67
730.5	654.5
730.694	648.35
730.887	851.1
731.081	969.88
731.274	566.43
731.468	722.08
731.661	900.25
731.854	810.14
732.048	701.6
732.241	631.97
732.435	738.46
732.628	957.6
732.821	760.99
733.014	629.92
733.208	746.66
733.401	1047.71
733.594	783.52
733.788	709.79
733.981	1272.98
734.174	969.88
734.367	738.46
734.56	783.52
734.754	1000.6
734.947	949.4
735.14	713.89
735.333	705.7
735.526	1008.8
735.719	709.79
735.912	703.65
736.105	627.87
736.298	881.82
736.491	767.13
736.684	746.66
736.877	697.5
737.07	978.08
737.263	1244.31
737.456	654.5
737.649	584.87
737.842	758.94
738.035	965.79
738.228	814.24
738.421	820.38
738.614	1213.59
738.807	1084.57
739	576.67
739.192	668.83
739.385	1059.99
739.578	1166.49
739.771	892.06
739.964	754.85
740.156	996.51
740.349	890.01
740.542	898.2
740.735	615.59
740.927	650.4
741.12	699.55
741.313	681.12
741.505	890.01
741.698	992.41
741.891	1021.08
742.083	875.68
742.276	758.94
742.468	863.39
742.661	781.47
742.854	791.71
743.046	552.1
743.239	1336.47
743.431	758.94
743.624	834.72
743.816	646.3
744.009	945.31
744.201	971.93
744.393	924.83
744.586	593.06
744.778	1186.97
744.971	887.97
745.163	672.93
745.355	885.92
745.548	890.01
745.74	935.07
745.932	818.33
746.125	701.6
746.317	1500.31
746.509	918.68
746.702	771.23
746.894	887.97
747.086	1045.66
747.278	1238.17
747.471	865.44
747.663	810.14
747.855	922.78
748.047	1279.13
748.239	763.04
748.431	812.19
748.623	1381.53
748.815	1293.46
749.008	650.4
749.2	638.11
749.392	1100.95
749.584	1002.65
749.776	736.42
749.968	724.13
750.16	1420.44
750.352	826.53
750.544	822.43
750.736	613.54
750.928	996.51
751.12	953.5
751.311	857.25
751.503	801.95
751.695	1053.85
751.887	896.16
752.079	486.56
752.271	734.37
752.463	1627.28
752.654	1094.81
752.846	738.46
753.038	775.33
753.23	754.85
753.421	1047.71
753.613	801.95
753.805	914.59
753.997	1158.3
754.188	1152.15
754.38	548
754.572	818.33
754.763	883.87
754.955	1086.62
755.146	832.67
755.338	724.13
755.53	1109.15
755.721	992.41
755.913	713.89
756.104	677.02
756.296	881.82
756.487	1107.1
756.679	556.19
756.87	736.42
757.062	810.14
757.253	1176.73
757.445	705.7
757.636	926.88
757.827	1008.8
758.019	1418.39
758.21	685.22
758.401	744.61
758.593	1377.43
758.784	1223.83
758.975	570.53
759.167	623.78
759.358	971.93
759.549	1225.88
759.74	705.7
759.932	758.94
760.123	1254.55
760.314	709.79
760.505	877.73
760.696	781.47
760.888	1387.67
761.079	844.96
761.27	687.26
761.461	572.58
761.652	1240.22
761.843	863.39
762.034	652.45
762.225	890.01
762.416	914.59
762.607	1008.8
762.798	769.18
762.989	689.31
763.18	1535.12
763.371	795.81
763.562	738.46
763.753	662.69
763.944	1195.16
764.135	1100.95
764.326	902.3
764.517	744.61
764.708	988.32
764.899	1059.99
765.089	627.87
765.28	550.05
765.471	1002.65
765.662	1115.29
765.853	711.84
766.043	588.96
766.234	1178.78
766.425	1215.64
766.615	736.42
766.806	644.26
766.997	1178.78
767.187	1055.9
767.378	664.74
767.569	636.06
767.759	1072.28
767.95	1010.84
768.141	832.67
768.331	631.97
768.522	894.11
768.712	1043.61
768.903	623.78
769.093	609.44
769.284	1303.7
769.474	973.98
769.665	492.71
769.855	500.9
770.046	1025.18
770.236	787.61
770.426	879.77
770.617	615.59
770.807	1055.9
770.998	832.67
771.188	859.29
771.378	689.31
771.569	1170.58
771.759	1086.62
771.949	636.06
772.139	500.9
772.33	922.78
772.52	1299.61
772.71	709.79
772.9	629.92
773.09	1330.33
773.281	1313.94
773.471	619.68
773.661	623.78
773.851	1180.82
774.041	840.86
774.231	670.88
774.421	804
774.611	1346.71
774.802	976.03
774.992	703.65
775.182	597.15
775.372	973.98
775.562	1109.15
775.752	660.64
775.942	642.21
776.131	1164.44
776.321	1035.42
776.511	693.41
776.701	578.72
776.891	1123.48
777.081	578.72
777.271	844.96
777.461	711.84
777.651	1029.27
777.84	1180.82
778.03	849.05
778.22	697.5
778.41	1262.74
778.599	717.98
778.789	689.31
778.979	572.58
779.169	1029.27
779.358	918.68
779.548	980.12
779.738	586.91
779.927	957.6
780.117	713.89
780.307	687.26
780.496	441.51
780.686	939.16
780.875	1227.93
781.065	582.82
781.254	717.98
781.444	918.68
781.633	859.29
781.823	593.06
782.012	586.91
782.202	818.33
782.391	838.81
782.581	623.78
782.77	834.72
782.96	1059.99
783.149	937.12
783.338	599.2
783.528	500.9
783.717	1105.05
783.906	1131.67
784.096	795.81
784.285	611.49
784.474	857.25
784.663	746.66
784.853	734.37
785.042	738.46
785.231	734.37
785.42	1100.95
785.61	656.54
785.799	527.52
785.988	824.48
786.177	779.42
786.366	754.85
786.555	816.29
786.744	1113.24
786.933	871.58
787.122	660.64
787.312	482.47
787.501	756.9
787.69	894.11
787.879	652.45
788.068	568.48
788.257	588.96
788.445	758.94
788.634	717.98
788.823	509.09
789.012	1408.15
789.201	1201.3
789.39	795.81
789.579	556.19
789.768	844.96
789.957	838.81
790.145	683.17
790.334	382.12
790.523	748.7
790.712	818.33
790.9	763.04
791.089	521.38
791.278	998.56
791.467	754.85
791.655	976.03
791.844	1209.5
792.033	736.42
792.221	754.85
792.41	746.66
792.599	414.88
792.787	947.36
792.976	1016.99
793.164	511.14
793.353	601.25
793.541	1000.6
793.73	1006.75
793.918	722.08
794.107	670.88
794.295	767.13
794.484	883.87
794.672	697.5
794.861	638.11
795.049	957.6
795.238	1305.75
795.426	617.63
795.614	767.13
795.803	1002.65
795.991	1223.83
796.179	672.93
796.368	668.83
796.556	1041.56
796.744	527.52
796.932	593.06
797.121	572.58
797.309	885.92
797.497	1037.47
797.685	783.52
797.874	496.8
798.062	785.57
798.25	1205.4
798.438	562.34
798.626	591.01
798.814	961.69
799.002	1488.02
799.19	740.51
799.378	699.55
799.566	1082.52
799.755	1170.58
799.943	926.88
800.131	588.96
800.318	830.62
800.506	1031.32
800.694	607.39
800.882	818.33
801.07	1135.77
801.258	855.2
801.446	588.96
801.634	539.81
801.822	885.92
802.01	820.38
802.197	492.71
802.385	689.31
802.573	826.53
802.761	617.63
802.949	711.84
803.136	576.67
803.324	1074.33
803.512	918.68
803.699	677.02
803.887	494.76
804.075	1197.21
804.262	758.94
804.45	545.95
804.638	701.6
804.825	529.57
805.013	711.84
805.201	605.35
805.388	595.11
805.576	847.01
805.763	1285.27
805.951	662.69
806.138	894.11
806.326	1236.12
806.513	986.27
806.701	767.13
806.888	539.81
807.075	922.78
807.263	1240.22
807.45	599.2
807.638	914.59
807.825	1287.32
808.012	1064.09
808.2	758.94
808.387	914.59
808.574	1041.56
808.761	1258.65
808.949	660.64
809.136	842.91
809.323	855.2
809.51	840.86
809.698	963.74
809.885	754.85
810.072	1051.8
810.259	1135.77
810.446	765.09
810.633	707.74
810.82	1137.82
811.008	1156.25
811.195	855.2
811.382	734.37
811.569	892.06
811.756	615.59
811.943	789.66
812.13	693.41
812.317	783.52
812.504	795.81
812.691	756.9
812.878	783.52
813.064	1117.34
813.251	998.56
813.438	623.78
813.625	756.9
813.812	869.53
813.999	879.77
814.186	689.31
814.372	736.42
814.559	935.07
814.746	1277.08
814.933	799.9
815.12	933.02
815.306	777.37
815.493	652.45
815.68	634.02
815.866	750.75
816.053	1182.87
816.24	1461.4
816.426	894.11
816.613	496.8
816.799	1186.97
816.986	1184.92
817.173	742.56
817.359	785.57
817.546	1043.61
817.732	631.97
817.919	457.89
818.105	851.1
818.292	816.29
818.478	976.03
818.665	859.29
818.851	636.06
819.037	1483.92
819.224	945.31
819.41	492.71
819.597	658.59
819.783	1336.47
819.969	939.16
820.156	810.14
820.342	601.25
820.528	1658
820.714	935.07
820.901	885.92
821.087	644.26
821.273	1332.37
821.459	806.05
821.646	601.25
821.832	623.78
822.018	996.51
822.204	971.93
822.39	812.19
822.576	556.19
822.762	1129.63
822.948	982.17
823.134	875.68
823.32	728.22
823.507	662.69
823.693	969.88
823.879	1037.47
824.065	711.84
824.25	902.3
824.436	672.93
824.622	730.27
824.808	595.11
824.994	804
825.18	717.98
825.366	685.22
825.552	638.11
825.738	890.01
825.923	1287.32
826.109	926.88
826.295	664.74
826.481	847.01
826.667	758.94
826.852	734.37
827.038	582.82
827.224	1193.11
827.409	1281.18
827.595	586.91
827.781	812.19
827.966	1055.9
828.152	1182.87
828.338	713.89
828.523	562.34
828.709	830.62
828.894	1146.01
829.08	853.15
829.266	638.11
829.451	722.08
829.637	1092.76
829.822	709.79
830.008	720.03
830.193	1115.29
830.378	1246.36
830.564	744.61
830.749	509.09
830.935	990.36
831.12	994.46
831.305	578.72
831.491	765.09
831.676	660.64
831.861	1094.81
832.047	795.81
832.232	580.77
832.417	1139.87
832.602	890.01
832.788	629.92
832.973	580.77
833.158	939.16
833.343	906.4
833.528	840.86
833.714	785.57
833.899	1004.7
834.084	1371.29
834.269	926.88
834.454	834.72
834.639	1125.53
834.824	961.69
835.009	783.52
835.194	865.44
835.379	1031.32
835.564	1166.49
835.749	820.38
835.934	605.35
836.119	1051.8
836.304	847.01
836.489	644.26
836.674	902.3
836.859	763.04
837.044	1090.71
837.228	713.89
837.413	597.15
837.598	949.4
837.783	1189.02
837.968	783.52
838.152	578.72
838.337	527.52
838.522	1207.45
838.707	1070.23
838.891	861.34
839.076	990.36
839.261	1191.06
839.445	707.74
839.63	713.89
839.815	1293.46
839.999	808.09
840.184	609.44
840.368	742.56
840.553	957.6
840.737	1078.43
840.922	697.5
841.106	646.3
841.291	619.68
841.475	1000.6
841.66	625.83
841.844	611.49
842.029	1492.12
842.213	533.67
842.397	695.46
842.582	543.91
842.766	1156.25
842.951	1049.75
843.135	711.84
843.319	705.7
843.504	885.92
843.688	1070.23
843.872	550.05
844.056	593.06
844.241	1019.04
844.425	885.92
844.609	859.29
844.793	449.7
844.977	1123.48
845.161	945.31
845.346	519.33
845.53	591.01
845.714	881.82
845.898	1301.65
846.082	406.69
846.266	631.97
846.45	855.2
846.634	951.45
846.818	654.5
847.002	894.11
847.186	1064.09
847.37	760.99
847.554	515.23
847.738	783.52
847.922	1049.75
848.106	933.02
848.29	556.19
848.473	677.02
848.657	1029.27
848.841	869.53
849.025	724.13
849.209	404.64
849.392	1033.37
849.576	816.29
849.76	457.89
849.944	709.79
850.127	1170.58
850.311	720.03
850.495	568.48
850.678	578.72
850.862	1158.3
851.046	1143.96
851.229	918.68
851.413	552.1
851.596	840.86
851.78	826.53
851.964	728.22
852.147	578.72
852.331	1551.51
852.514	1125.53
852.698	660.64
852.881	591.01
853.065	1103
853.248	758.94
853.431	677.02
853.615	717.98
853.798	1488.02
853.982	918.68
854.165	793.76
854.348	650.4
854.532	623.78
854.715	773.28
854.898	627.87
855.081	642.21
855.265	1135.77
855.448	1266.84
855.631	570.53
855.814	699.55
855.997	1021.08
856.181	863.39
856.364	662.69
856.547	539.81
856.73	1004.7
856.913	935.07
857.096	443.56
857.279	656.54
857.462	672.93
857.645	1127.58
857.828	787.61
858.011	674.98
858.194	713.89
858.377	1066.14
858.56	513.19
858.743	631.97
858.926	703.65
859.109	947.36
859.292	586.91
859.475	472.23
859.658	1139.87
859.841	965.79
860.023	545.95
860.206	580.77
860.389	851.1
860.572	1139.87
860.755	687.26
860.937	593.06
861.12	902.3
861.303	924.83
861.486	613.54
861.668	570.53
861.851	959.64
862.034	818.33
862.216	820.38
862.399	459.94
862.581	988.32
862.764	1252.5
862.947	584.87
863.129	545.95
863.312	568.48
863.494	1160.34
863.677	916.64
863.859	449.7
864.042	1191.06
864.224	1279.13
864.406	763.04
864.589	416.93
864.771	969.88
864.954	636.06
865.136	607.39
865.318	464.04
865.501	945.31
865.683	455.84
865.865	603.3
866.048	558.24
866.23	836.77
866.412	779.42
866.594	439.46
866.777	748.7
866.959	990.36
867.141	619.68
867.323	988.32
867.505	738.46
867.687	844.96
867.869	830.62
868.052	654.5
868.234	437.41
868.416	740.51
868.598	1019.04
868.78	605.35
868.962	371.88
869.144	1031.32
869.326	980.12
869.508	517.28
869.69	494.76
869.872	625.83
870.054	1027.23
870.236	521.38
870.417	601.25
870.599	730.27
870.781	1146.01
870.963	709.79
871.145	513.19
871.327	597.15
871.508	1086.62
871.69	664.74
871.872	586.91
872.054	756.9
872.235	863.39
872.417	701.6
872.599	433.32
872.78	1193.11
872.962	902.3
873.144	478.37
873.325	640.16
873.507	1150.11
873.689	879.77
873.87	406.69
874.052	732.32
874.233	814.24
874.415	998.56
874.596	660.64
874.778	502.95
874.959	740.51
875.141	1014.94
875.322	668.83
875.503	402.6
875.685	933.02
875.866	425.12
876.048	476.32
876.229	550.05
876.41	822.43
876.592	804
876.773	582.82
876.954	527.52
877.136	1135.77
877.317	705.7
877.498	429.22
877.679	660.64
877.86	1002.65
878.042	742.56
878.223	517.28
878.404	824.48
878.585	980.12
878.766	1178.78
878.947	742.56
879.128	683.17
879.309	1008.8
879.49	984.22
879.672	746.66
879.853	695.46
880.034	636.06
880.215	728.22
880.396	703.65
880.576	607.39
880.757	634.02
880.938	1156.25
881.119	439.46
881.3	574.63
881.481	670.88
881.662	1555.6
881.843	550.05
882.023	378.02
882.204	908.44
882.385	818.33
882.566	576.67
882.747	593.06
882.927	939.16
883.108	928.92
883.289	550.05
883.469	853.15
883.65	629.92
883.831	787.61
884.011	758.94
884.192	613.54
884.373	963.74
884.553	912.54
884.734	806.05
884.914	971.93
885.095	1389.72
885.275	1191.06
885.456	859.29
885.636	578.72
885.817	808.09
885.997	709.79
886.178	582.82
886.358	603.3
886.538	820.38
886.719	1698.96
886.899	599.2
887.08	662.69
887.26	1176.73
887.44	627.87
887.621	568.48
887.801	754.85
887.981	1379.48
888.161	1031.32
888.342	720.03
888.522	543.91
888.702	959.64
888.882	1057.95
889.062	697.5
889.242	398.5
889.423	1252.5
889.603	1041.56
889.783	672.93
889.963	558.24
890.143	986.27
890.323	1148.06
890.503	627.87
890.683	715.94
890.863	941.21
891.043	922.78
891.223	767.13
891.403	834.72
891.583	930.97
891.763	881.82
891.943	763.04
892.122	595.11
892.302	885.92
892.482	851.1
892.662	834.72
892.842	640.16
893.022	957.6
893.201	756.9
893.381	754.85
893.561	609.44
893.741	1088.67
893.92	924.83
894.1	756.9
894.28	717.98
894.459	1096.86
894.639	986.27
894.819	672.93
894.998	859.29
895.178	1119.39
895.357	1004.7
895.537	627.87
895.716	582.82
895.896	785.57
896.075	1279.13
896.255	693.41
896.434	472.23
896.614	1123.48
896.793	1303.7
896.973	851.1
897.152	924.83
897.331	898.2
897.511	1184.92
897.69	588.96
897.87	783.52
898.049	1033.37
898.228	894.11
898.407	779.42
898.587	785.57
898.766	744.61
898.945	1068.19
899.124	926.88
899.304	783.52
899.483	988.32
899.662	1336.47
899.841	566.43
900.02	578.72
900.199	1158.3
900.378	1025.18
900.557	672.93
900.737	562.34
900.916	1123.48
901.095	1045.66
901.274	906.4
901.453	511.14
901.632	775.33
901.811	648.35
901.989	636.06
902.168	713.89
902.347	1082.52
902.526	763.04
902.705	623.78
902.884	699.55
903.063	1186.97
903.242	1272.98
903.42	615.59
903.599	928.92
903.778	1078.43
903.957	1252.5
904.135	791.71
904.314	699.55
904.493	963.74
904.672	1043.61
904.85	722.08
905.029	672.93
905.207	1109.15
905.386	1623.19
905.565	582.82
905.743	623.78
905.922	795.81
906.1	1111.19
906.279	615.59
906.457	582.82
906.636	791.71
906.814	900.25
906.993	742.56
907.171	660.64
907.35	1027.23
907.528	1080.47
907.707	849.05
907.885	586.91
908.063	1340.57
908.242	695.46
908.42	679.07
908.598	457.89
908.777	1016.99
908.955	695.46
909.133	830.62
909.311	451.75
909.49	832.67
909.668	867.49
909.846	701.6
910.024	375.97
910.202	890.01
910.38	1051.8
910.559	545.95
910.737	517.28
910.915	990.36
911.093	951.45
911.271	670.88
911.449	857.25
911.627	939.16
911.805	1270.94
911.983	677.02
912.161	644.26
912.339	967.84
912.517	1229.98
912.695	758.94
912.872	767.13
913.05	707.74
913.228	959.64
913.406	709.79
913.584	615.59
913.762	1033.37
913.939	672.93
914.117	601.25
914.295	529.57
914.473	976.03
914.65	828.57
914.828	674.98
915.006	648.35
915.184	619.68
915.361	912.54
915.539	828.57
915.716	804
915.894	1012.89
916.072	1008.8
916.249	801.95
916.427	806.05
916.604	717.98
916.782	986.27
916.959	502.95
917.137	648.35
917.314	832.67
917.492	1080.47
917.669	783.52
917.847	703.65
918.024	973.98
918.201	728.22
918.379	650.4
918.556	658.59
918.733	1090.71
918.911	720.03
919.088	842.91
919.265	599.2
919.442	824.48
919.62	697.5
919.797	539.81
919.974	548
920.151	937.12
920.328	812.19
920.506	550.05
920.683	779.42
920.86	603.3
921.037	607.39
921.214	681.12
921.391	529.57
921.568	1062.04
921.745	677.02
921.922	605.35
922.099	507.04
922.276	1000.6
922.453	906.4
922.63	560.29
922.807	949.4
922.984	967.84
923.161	672.93
923.338	558.24
923.514	476.32
923.691	775.33
923.868	887.97
924.045	482.47
924.222	445.6
924.399	785.57
924.575	1029.27
924.752	615.59
924.929	711.84
925.105	869.53
925.282	541.86
925.459	529.57
925.635	613.54
925.812	738.46
925.989	662.69
926.165	674.98
926.342	361.64
926.518	560.29
926.695	654.5
926.871	490.66
927.048	365.73
927.224	996.51
927.401	707.74
927.577	720.03
927.754	400.55
927.93	924.83
928.107	902.3
928.283	482.47
928.459	668.83
928.636	928.92
928.812	574.63
928.988	478.37
929.165	404.64
929.341	703.65
929.517	754.85
929.693	797.85
929.87	310.44
930.046	849.05
930.222	605.35
930.398	445.6
930.574	504.99
930.751	726.18
930.927	672.93
931.103	521.38
931.279	494.76
931.455	509.09
931.631	742.56
931.807	314.53
931.983	431.27
932.159	373.92
932.335	715.94
932.511	539.81
932.687	521.38
932.863	752.8
933.039	677.02
933.215	328.87
933.391	255.14
933.566	556.19
933.742	683.17
933.918	361.64
934.094	269.48
934.27	693.41
934.445	515.23
934.621	511.14
934.797	388.26
934.973	867.49
935.148	722.08
935.324	324.77
935.5	228.52
935.675	853.15
935.851	742.56
936.027	414.88
936.202	382.12
936.378	699.55
936.553	453.8
936.729	775.33
936.904	271.53
937.08	277.67
937.255	431.27
937.431	316.58
937.606	238.76
937.782	435.36
937.957	523.43
938.133	320.68
938.308	201.9
938.483	470.18
938.659	285.86
938.834	310.44
939.009	294.05
939.185	400.55
939.36	312.49
939.535	-31.57
939.71	476.32
939.886	683.17
940.061	568.48
940.236	433.32
940.411	244.9
940.586	507.04
940.761	568.48
940.937	294.05
941.112	195.75
941.287	418.98
941.462	474.28
941.637	117.93
941.812	216.23
941.987	488.61
942.162	451.75
942.337	386.21
942.512	324.77
942.687	656.54
942.862	513.19
943.037	91.31
943.212	-119.64
943.386	322.73
943.561	486.56
943.736	281.77
943.911	441.51
944.086	455.84
944.26	416.93
944.435	273.57
944.61	242.85
944.785	783.52
944.959	844.96
945.134	218.28
945.309	173.22
945.483	181.42
945.658	552.1
945.833	-50
946.007	13.48
946.182	783.52
946.357	134.31
946.531	160.94
946.706	33.96
946.88	-21.33
947.055	363.69
947.229	115.88
947.404	70.83
947.578	634.02
947.752	304.29
947.927	15.53
948.101	111.78
948.276	375.97
948.45	363.69
948.624	318.63
948.799	76.97
948.973	451.75
949.147	142.5
949.321	187.56
949.496	195.75
949.67	511.14
949.844	232.62
950.018	107.69
950.193	218.28
950.367	918.68
950.541	183.46
950.715	275.62
950.889	318.63
951.063	316.58
951.237	472.23
951.411	-33.62
951.585	42.15
951.759	537.76
951.933	466.08
952.107	191.66
952.281	371.88
952.455	816.29
952.629	646.3
952.803	72.87
952.977	36.01
953.151	531.62
953.325	552.1
953.499	306.34
953.672	58.54
953.846	179.37
954.02	249
954.194	160.94
954.368	93.35
954.541	486.56
954.715	259.24
954.889	251.05
955.062	44.2
955.236	357.54
955.41	292.01
955.583	197.8
955.757	-27.48
955.93	253.09
956.104	44.2
956.278	171.18
956.451	144.55
956.625	433.32
956.798	763.04
956.972	390.31
957.145	89.26
957.319	320.68
957.492	265.38
957.665	287.91
957.839	138.41
958.012	449.7
958.185	244.9
958.359	160.94
958.532	289.96
958.705	531.62
958.879	355.49
959.052	249
959.225	-93.01
959.398	337.06
959.572	457.89
959.745	101.55
959.918	203.94
960.091	246.95
960.264	437.41
960.438	62.63
960.611	87.21
960.784	529.57
960.957	132.26
961.13	521.38
961.303	140.46
961.476	353.45
961.649	502.95
961.822	7.34
961.995	228.52
962.168	539.81
962.341	367.78
962.514	144.55
962.686	-37.72
962.859	271.53
963.032	400.55
963.205	156.84
963.378	-13.14
963.551	515.23
963.723	355.49
963.896	322.73
964.069	251.05
964.242	404.64
964.414	468.13
964.587	177.32
964.76	283.81
964.932	367.78
965.105	177.32
965.278	81.07
965.45	138.41
965.623	185.51
965.795	455.84
965.968	249
966.14	79.02
966.313	113.83
966.485	418.98
966.658	91.31
966.83	64.68
967.003	529.57
967.175	476.32
967.348	122.02
967.52	197.8
967.692	681.12
967.865	552.1
968.037	109.74
968.209	412.84
968.382	349.35
968.554	568.48
968.726	165.03
968.898	27.82
969.071	433.32
969.243	369.83
969.415	128.17
969.587	242.85
969.759	767.13
969.932	550.05
970.104	210.09
970.276	-127.83
970.448	197.8
970.62	193.7
970.792	275.62
970.964	193.7
971.136	734.37
971.308	435.36
971.48	99.5
971.652	138.41
971.824	631.97
971.996	249
972.168	181.42
972.339	177.32
972.511	613.54
972.683	337.06
972.855	345.25
973.027	218.28
973.199	265.38
973.37	453.8
973.542	226.47
973.714	300.2
973.886	302.25
974.057	603.3
974.229	42.15
974.401	60.59
974.572	109.74
974.744	-23.38
974.915	58.54
975.087	11.43
975.259	672.93
975.43	128.17
975.602	134.31
975.773	40.11
975.945	58.54
976.116	527.52
976.288	33.96
976.459	353.45
976.63	197.8
976.802	414.88
976.973	93.35
977.145	302.25
977.316	720.03
977.487	638.11
977.659	255.14
977.83	119.98
978.001	701.6
978.172	423.08
978.344	23.72
978.515	103.59
978.686	195.75
978.857	654.5
979.028	146.6
979.2	58.54
979.371	535.71
979.542	351.4
979.713	255.14
979.884	-140.12
980.055	169.13
980.226	287.91
980.397	109.74
980.568	5.29
980.739	537.76
980.91	308.39
981.081	212.14
981.252	50.35
981.423	457.89
981.594	545.95
981.765	-101.2
981.936	128.17
982.106	306.34
982.277	533.67
982.448	83.11
982.619	257.19
982.79	205.99
982.96	521.38
983.131	95.4
983.302	23.72
983.472	244.9
983.643	292.01
983.814	144.55
983.984	52.39
984.155	240.81
984.326	498.85
984.496	185.51
984.667	62.63
984.837	142.5
985.008	570.53
985.178	205.99
985.349	93.35
985.519	287.91
985.69	226.47
985.86	115.88
986.031	87.21
986.201	314.53
986.371	478.37
986.542	-82.77
986.712	-37.72
986.882	435.36
987.053	414.88
987.223	-9.05
987.393	201.9
987.563	140.46
987.734	378.02
987.904	330.92
988.074	48.3
988.244	326.82
988.414	101.55
988.585	17.58
988.755	119.98
988.925	234.66
989.095	595.11
989.265	89.26
989.435	173.22
989.605	443.56
989.775	398.5
989.945	314.53
990.115	-27.48
990.285	404.64
990.455	359.59
990.625	144.55
990.795	66.73
990.965	597.15
991.134	109.74
991.304	38.06
991.474	31.91
991.644	378.02
991.814	623.78
991.984	-4.95
992.153	-7
992.323	228.52
992.493	267.43
992.662	-160.59
992.832	212.14
993.002	332.97
993.171	371.88
993.341	-17.24
993.511	185.51
993.68	122.02
993.85	490.66
994.019	-21.33
994.189	-58.2
994.358	369.83
994.528	169.13
994.697	-224.08
994.867	-138.07
995.036	408.74
995.206	154.79
995.375	-64.34
995.544	142.5
995.714	341.16
995.883	154.79
996.052	152.74
996.222	-119.64
996.391	797.85
996.56	355.49
996.73	-107.35
996.899	-133.97
997.068	582.82
997.237	203.94
997.406	-35.67
997.576	-97.11
997.745	253.09
997.914	267.43
998.083	-160.59
998.252	-54.1
998.421	183.46
998.59	44.2
998.759	-93.01
998.928	-150.36
999.097	492.71
999.266	314.53
999.435	95.4
999.604	-160.59
999.773	789.66
999.942	169.13
1000.111	-131.92
1000.28	-224.08
1000.448	-19.29
1000.617	70.83
1000.786	124.07
1000.955	-133.97
1001.124	212.14
1001.292	849.05
1001.461	-90.96
1001.63	-58.2
1001.798	527.52
1001.967	564.39
1002.136	-205.65
1002.304	-95.06
1002.473	369.83
1002.642	285.86
1002.81	-54.1
1002.979	-107.35
1003.147	332.97
1003.316	773.28
1003.484	-39.76
1003.653	-107.35
1003.821	445.6
1003.99	109.74
1004.158	85.16
1004.327	29.87
1004.495	261.29
1004.663	66.73
1004.832	9.39
1005	-154.45
1005.168	339.11
1005.337	232.62
1005.505	-279.38
1005.673	132.26
1005.842	292.01
1006.01	304.29
1006.178	-105.3
1006.346	-99.16
1006.514	423.08
1006.683	496.8
1006.851	-125.78
1007.019	-174.93
1007.187	-80.72
1007.355	-254.8
1007.523	-326.48
1007.691	-285.52
1007.859	-29.52
1008.027	455.84
1008.195	-119.64
1008.363	-183.12
1008.531	384.16
1008.699	31.91
1008.867	-250.71
1009.035	-187.22
1009.203	531.62
1009.37	117.93
1009.538	-52.05
1009.706	230.57
1009.874	224.42
1010.042	76.97
1010.209	-154.45
1010.377	-111.44
1010.545	294.05
1010.713	189.61
1010.88	-113.49
1011.048	-60.24
1011.216	117.93
1011.383	492.71
1011.551	-189.27
1011.718	-176.98
1011.886	416.93
1012.054	136.36
1012.221	-215.89
1012.389	-158.55
1012.556	179.37
1012.724	613.54
1012.891	-68.44
1013.058	-267.09
1013.226	339.11
1013.393	359.59
1013.561	-242.51
1013.728	-224.08
1013.895	279.72
1014.063	193.7
1014.23	-250.71
1014.397	-138.07
1014.565	339.11
1014.732	87.21
1014.899	-191.31
1015.066	-265.04
1015.233	218.28
1015.401	304.29
1015.568	-21.33
1015.735	119.98
1015.902	140.46
1016.069	246.95
1016.236	-144.21
1016.403	-93.01
1016.57	11.43
1016.737	306.34
1016.904	-93.01
1017.071	-228.18
1017.238	56.49
1017.405	353.45
1017.572	-111.44
1017.739	25.77
1017.906	328.87
1018.073	402.6
1018.24	-277.33
1018.407	-15.19
1018.573	416.93
1018.74	193.7
1018.907	-115.54
1019.074	-256.85
1019.241	478.37
1019.407	222.38
1019.574	-86.87
1019.741	-242.51
1019.907	244.9
1020.074	294.05
1020.241	-330.58
1020.407	-234.32
1020.574	421.03
1020.74	308.39
1020.907	-35.67
1021.073	-176.98
1021.24	681.12
1021.406	570.53
1021.573	-64.34
1021.739	-99.16
1021.906	390.31
1022.072	68.78
1022.239	-144.21
1022.405	-113.49
1022.571	195.75
1022.738	-86.87
1022.904	-138.07
1023.07	-84.82
1023.237	169.13
1023.403	425.12
1023.569	-107.35
1023.735	-56.15
1023.902	242.85
1024.068	339.11
1024.234	-201.55
1024.4	-142.16
1024.566	279.72
1024.732	378.02
1024.898	-174.93
1025.065	-240.47
1025.231	396.45
1025.397	148.65
1025.563	-111.44
1025.729	-172.88
1025.895	-197.46
1026.061	-27.48
1026.227	-338.77
1026.392	-105.3
1026.558	461.99
1026.724	277.67
1026.89	-129.88
1027.056	-88.92
1027.222	234.66
1027.388	46.25
1027.553	-172.88
1027.719	-254.8
1027.885	572.58
1028.051	308.39
1028.216	-369.49
1028.382	-80.72
1028.548	394.4
1028.713	60.59
1028.879	-252.75
1029.045	-39.76
1029.21	447.65
1029.376	429.22
1029.541	-78.68
1029.707	-52.05
1029.873	312.49
1030.038	357.54
1030.204	-138.07
1030.369	-121.68
1030.534	371.88
1030.7	142.5
1030.865	-170.83
1031.031	-248.66
1031.196	189.61
1031.361	201.9
1031.527	-193.36
1031.692	-242.51
1031.857	-193.36
1032.023	259.24
1032.188	-207.7
1032.353	-154.45
1032.518	523.43
1032.684	216.23
1032.849	-232.27
1033.014	-146.26
1033.179	349.35
1033.344	277.67
1033.509	-95.06
1033.674	-193.36
1033.839	314.53
1034.004	345.25
1034.17	-150.36
1034.335	-187.22
1034.5	76.97
1034.664	74.92
1034.829	-191.31
1034.994	-144.21
1035.159	357.54
1035.324	214.18
1035.489	-84.82
1035.654	-224.08
1035.819	431.27
1035.984	220.33
1036.148	-74.58
1036.313	-158.55
1036.478	373.92
1036.643	134.31
1036.807	-217.94
1036.972	-295.76
1037.137	502.95
1037.301	230.57
1037.466	-371.54
1037.631	-86.87
1037.795	457.89
1037.96	281.77
1038.124	3.24
1038.289	-172.88
1038.454	337.06
1038.618	257.19
1038.783	-154.45
1038.947	-129.88
1039.111	201.9
1039.276	95.4
1039.44	-203.6
1039.605	302.25
1039.769	167.08
1039.933	181.42
1040.098	-70.48
1040.262	38.06
1040.426	378.02
1040.591	361.64
1040.755	-224.08
1040.919	-232.27
1041.083	283.81
1041.248	144.55
1041.412	-238.42
1041.576	-205.65
1041.74	93.35
1041.904	402.6
1042.068	-168.79
1042.232	-41.81
1042.397	369.83
1042.561	279.72
1042.725	-265.04
1042.889	17.58
1043.053	345.25
1043.217	425.12
1043.381	-11.09
1043.544	-269.14
1043.708	515.23
1043.872	-43.86
1044.036	-457.55
1044.2	-224.08
1044.364	498.85
1044.528	509.09
1044.691	4238.44
1044.855	-285.52
1045.019	386.21
1045.183	337.06
1045.346	-2.9
1045.51	-238.42
1045.674	292.01
1045.837	373.92
1046.001	-195.41
1046.165	-262.99
1046.328	728.22
1046.492	337.06
1046.655	54.44
1046.819	-56.15
1046.983	79.02
1047.146	287.91
1047.31	-88.92
1047.473	-236.37
1047.636	226.47
1047.8	25.77
1047.963	-99.16
1048.127	-170.83
1048.29	66.73
