Data from Ink_Intensity_USB4F045381__90__00090.txt Node

Date: Mon Jul 17 11:01:46 EDT 2023
User: mmckonesweet
Spectrometer: USB4F04538
Trigger mode: 4
Integration Time (sec): 9.000000E-1
Scans to average: 1
Electric dark correction enabled: true
Nonlinearity correction enabled: false
Boxcar width: 0
XAxis mode: Wavelengths
Number of Pixels in Spectrum: 3648
>>>>>Begin Spectral Data<<<<<
345.52	-1007.77
345.736	-1007.77
345.952	-1007.77
346.168	-1034.39
346.384	-1046.68
346.6	-141.48
346.816	-262.31
347.032	-182.44
347.248	300.88
347.464	-184.49
347.68	-96.43
347.896	40.79
348.112	395.09
348.328	-59.56
348.544	-67.75
348.76	12.12
348.975	245.59
349.191	-229.54
349.407	-217.26
349.623	85.84
349.839	-4.27
350.055	-67.75
350.27	83.8
350.486	118.61
350.702	319.31
350.918	307.02
351.133	-157.86
351.349	132.95
351.565	411.47
351.781	-225.45
351.996	18.26
352.212	274.26
352.428	-145.58
352.644	-209.06
352.859	-254.12
353.075	237.39
353.291	57.17
353.506	-168.1
353.722	-227.5
353.938	-53.42
354.153	411.47
354.369	143.19
354.584	-260.26
354.8	317.26
355.016	-268.45
355.231	-254.12
355.447	-45.23
355.662	139.09
355.878	794.44
356.093	-284.84
356.309	32.6
356.524	-184.49
356.74	323.41
356.955	-184.49
357.171	24.4
357.386	143.19
357.602	-237.74
357.817	-86.19
358.033	-106.67
358.248	399.18
358.464	208.72
358.679	-143.53
358.895	-323.75
359.11	-0.17
359.325	409.42
359.541	3.93
359.756	46.93
359.972	-293.03
360.187	120.66
360.402	-123.05
360.618	-184.49
360.833	970.57
361.048	96.08
361.264	-114.86
361.479	-65.71
361.694	79.7
361.909	243.54
362.125	-123.05
362.34	28.5
362.555	292.69
362.77	108.37
362.986	-250.02
363.201	-143.53
363.416	87.89
363.631	55.12
363.847	-184.49
364.062	-127.14
364.277	218.96
364.492	85.84
364.707	-166.06
364.922	-311.46
365.138	239.44
365.353	376.66
365.568	-276.65
365.783	-116.9
365.998	139.09
366.213	526.16
366.428	-180.39
366.643	51.03
366.858	186.19
367.073	245.59
367.288	-147.62
367.503	-219.3
367.718	110.42
367.933	202.58
368.148	-307.37
368.363	-39.08
368.578	32.6
368.793	397.14
369.008	-182.44
369.223	-178.34
369.438	161.62
369.653	456.53
369.868	-215.21
370.083	-217.26
370.298	135
370.513	462.67
370.728	69.46
370.943	-147.62
371.157	-121
371.372	505.68
371.587	-243.88
371.802	-200.87
372.017	63.32
372.232	409.42
372.446	-20.65
372.661	-223.4
372.876	249.68
373.091	214.87
373.306	-98.47
373.52	-176.3
373.735	-213.16
373.95	409.42
374.165	-51.37
374.379	-77.99
374.594	-184.49
374.809	104.28
375.023	63.32
375.238	-215.21
375.453	257.87
375.667	-213.16
375.882	-67.75
376.097	-196.78
376.311	10.07
376.526	55.12
376.741	-131.24
376.955	102.23
377.17	634.7
377.384	560.97
377.599	-61.61
377.813	-309.41
378.028	620.36
378.242	208.72
378.457	-90.28
378.672	-395.43
378.886	175.95
379.101	53.08
379.315	-362.66
379.53	-131.24
379.744	278.35
379.958	221.01
380.173	-135.34
380.387	-94.38
380.602	143.19
380.816	-110.76
381.031	-229.54
381.245	-145.58
381.459	204.63
381.674	2922.28
381.888	-143.53
382.103	112.47
382.317	-63.66
382.531	544.59
382.746	-20.65
382.96	-84.14
383.174	-45.23
383.388	542.54
383.603	36.69
383.817	-192.68
384.031	184.15
384.246	511.82
384.46	-24.75
384.674	345.94
384.888	44.88
385.103	159.57
385.317	-247.97
385.531	30.55
385.745	448.33
385.959	366.42
386.174	-188.58
386.388	-194.73
386.602	67.41
386.816	-75.95
387.03	-51.37
387.244	-73.9
387.458	151.38
387.672	397.14
387.887	-286.89
388.101	-211.11
388.315	370.51
388.529	137.04
388.743	-98.47
388.957	-168.1
389.171	390.99
389.385	-86.19
389.599	-118.95
389.813	120.66
390.027	171.86
390.241	726.86
390.455	-100.52
390.669	-73.9
390.883	-24.75
391.097	423.76
391.311	124.76
391.525	-123.05
391.738	237.39
391.952	221.01
392.166	-4.27
392.38	-213.16
392.594	390.99
392.808	350.03
393.022	16.21
393.236	-55.47
393.449	284.5
393.663	245.59
393.877	-147.62
394.091	-39.08
394.305	-82.09
394.518	-69.8
394.732	-141.48
394.946	-92.33
395.16	526.16
395.373	192.34
395.587	-182.44
395.801	-127.14
396.015	337.74
396.228	284.5
396.442	-252.07
396.656	-290.98
396.869	399.18
397.083	511.82
397.297	-8.36
397.51	-59.56
397.724	405.33
397.938	307.02
398.151	-247.97
398.365	-233.64
398.578	358.22
398.792	495.44
399.005	159.57
399.219	-82.09
399.433	276.31
399.646	341.84
399.86	155.47
400.073	59.22
400.287	319.31
400.5	118.61
400.714	67.41
400.927	12.12
401.141	364.37
401.354	1113.92
401.567	249.68
401.781	-196.78
401.994	376.66
402.208	724.81
402.421	-45.23
402.635	8.02
402.848	130.9
403.061	438.09
403.275	83.8
403.488	-192.68
403.701	642.89
403.915	390.99
404.128	208.72
404.341	-69.8
404.555	290.64
404.768	89.94
404.981	153.43
405.195	-92.33
405.408	614.22
405.621	413.52
405.834	165.71
406.048	-108.71
406.261	520.01
406.474	608.08
406.687	-153.77
406.9	216.91
407.114	194.39
407.327	337.74
407.54	-209.06
407.753	-139.43
407.966	-67.75
408.179	448.33
408.392	-75.95
408.605	-139.43
408.819	280.4
409.032	307.02
409.245	-63.66
409.458	216.91
409.671	327.5
409.884	382.8
410.097	-135.34
410.31	151.38
410.523	378.7
410.736	214.87
410.949	36.69
411.162	51.03
411.375	616.27
411.588	388.94
411.801	286.54
412.014	-69.8
412.227	210.77
412.44	108.37
412.653	73.56
412.865	182.1
413.078	434
413.291	327.5
413.504	94.04
413.717	-12.46
413.93	450.38
414.143	3.93
414.356	124.76
414.568	-114.86
414.781	466.77
414.994	290.64
415.207	104.28
415.42	112.47
415.632	507.73
415.845	831.3
416.058	104.28
416.271	-135.34
416.483	343.89
416.696	685.9
416.909	-20.65
417.121	-4.27
417.334	356.18
417.547	739.15
417.759	-12.46
417.972	85.84
418.185	106.32
418.397	456.53
418.61	151.38
418.823	55.12
419.035	724.81
419.248	292.69
419.46	159.57
419.673	202.58
419.885	513.87
420.098	237.39
420.311	46.93
420.523	-135.34
420.736	522.06
420.948	298.83
421.161	30.55
421.373	-43.18
421.586	372.56
421.798	108.37
422.01	-170.15
422.223	194.39
422.435	67.41
422.648	567.12
422.86	98.13
423.073	73.56
423.285	534.35
423.497	-16.55
423.71	42.84
423.922	65.36
424.134	356.18
424.347	700.23
424.559	286.54
424.771	366.42
424.984	354.13
425.196	403.28
425.408	-125.1
425.621	-6.31
425.833	603.98
426.045	673.61
426.257	-2.22
426.47	204.63
426.682	485.2
426.894	495.44
427.106	163.67
427.318	245.59
427.531	274.26
427.743	503.63
427.955	85.84
428.167	548.68
428.379	462.67
428.591	304.98
428.804	257.87
429.016	34.64
429.228	360.27
429.44	530.25
429.652	417.61
429.864	42.84
430.076	376.66
430.288	384.85
430.5	161.62
430.712	309.07
430.924	634.7
431.136	505.68
431.348	-30.89
431.56	210.77
431.772	444.24
431.984	309.07
432.196	171.86
432.408	190.29
432.62	309.07
432.832	538.45
433.044	393.04
433.256	356.18
433.468	675.66
433.679	182.1
433.891	120.66
434.103	485.2
434.315	849.74
434.527	585.55
434.739	364.37
434.95	335.7
435.162	698.19
435.374	350.03
435.586	317.26
435.798	231.25
436.009	233.3
436.221	364.37
436.433	315.22
436.645	311.12
436.856	356.18
437.068	896.84
437.28	323.41
437.491	618.32
437.703	634.7
437.915	677.71
438.126	327.5
438.338	593.74
438.55	446.29
438.761	745.29
438.973	382.8
439.184	311.12
439.396	646.99
439.608	794.44
439.819	243.54
440.031	431.95
440.242	800.59
440.454	765.77
440.665	407.38
440.877	413.52
441.088	761.67
441.3	532.3
441.511	196.43
441.723	409.42
441.934	751.43
442.146	671.56
442.357	470.86
442.569	720.71
442.78	573.26
442.991	1062.73
443.203	761.67
443.414	319.31
443.626	997.19
443.837	538.45
444.048	327.5
444.26	302.93
444.471	708.43
444.682	880.46
444.894	288.59
445.105	249.68
445.316	886.6
445.528	839.5
445.739	528.21
445.95	444.24
446.161	853.83
446.373	919.37
446.584	571.21
446.795	479.05
447.006	909.13
447.217	1138.5
447.429	290.64
447.64	388.94
447.851	1021.77
448.062	790.35
448.273	331.6
448.484	409.42
448.695	923.46
448.907	603.98
449.118	628.56
449.329	767.82
449.54	622.41
449.751	462.67
449.962	542.54
450.173	397.14
450.384	1034.05
450.595	1109.83
450.806	538.45
451.017	589.64
451.228	1115.97
451.439	952.13
451.65	626.51
451.861	300.88
452.072	667.47
452.283	743.24
452.494	773.96
452.705	530.25
452.915	1169.22
453.126	993.09
453.337	634.7
453.548	552.78
453.759	1097.54
453.97	1324.87
454.181	843.59
454.391	755.53
454.602	993.09
454.813	954.18
455.024	819.02
455.235	708.43
455.445	1017.67
455.656	1032.01
455.867	876.36
456.078	710.47
456.288	956.23
456.499	972.61
456.71	751.43
456.921	1025.86
457.131	999.24
457.342	972.61
457.553	859.98
457.763	819.02
457.974	1171.27
458.184	1150.79
458.395	702.28
458.606	714.57
458.816	1322.82
459.027	1519.42
459.237	1005.38
459.448	702.28
459.659	1435.46
459.869	1769.27
460.08	726.86
460.29	1003.33
460.501	1529.66
460.711	1060.68
460.922	712.52
461.132	978.76
461.343	1890.1
461.553	968.52
461.764	855.88
461.974	964.42
462.184	1359.68
462.395	1236.8
462.605	1177.41
462.816	880.46
463.026	1320.77
463.236	1537.85
463.447	972.61
463.657	982.85
463.867	1472.32
464.078	1238.85
464.288	1089.35
464.498	978.76
464.709	1337.15
464.919	1331.01
465.129	1201.99
465.339	1199.94
465.55	1445.7
465.76	1584.96
465.97	1185.6
466.18	1124.16
466.391	1613.63
466.601	1400.64
466.811	1328.96
467.021	1161.03
467.231	1630.01
467.441	1691.45
467.651	1419.07
467.862	1142.6
468.072	1533.76
468.282	1830.71
468.492	1361.73
468.702	1394.5
468.912	1697.6
469.122	2318.13
469.332	1648.44
469.542	1396.54
469.752	1820.47
469.962	1744.7
470.172	1519.42
470.382	1472.32
470.592	1965.88
470.802	2178.87
471.012	1726.27
471.222	1668.92
471.432	2092.85
471.642	2123.57
471.852	1765.18
472.062	1541.95
472.272	1867.58
472.482	1627.96
472.691	1752.89
472.901	1623.87
473.111	1957.69
473.321	2615.09
473.531	1677.12
473.741	2027.32
473.95	2410.29
474.16	2354.99
474.37	1998.65
474.58	1990.45
474.79	2676.52
474.999	2418.48
475.209	1929.02
475.419	1990.45
475.628	2258.74
475.838	2672.43
476.048	2205.49
476.258	2055.99
476.467	3008.3
476.677	2332.47
476.886	2504.5
477.096	2408.24
477.306	2475.82
477.515	2826.03
477.725	2500.4
477.935	2531.12
478.144	2936.62
478.354	2641.71
478.563	2592.56
478.773	2402.1
478.982	2977.58
479.192	3073.83
479.401	2643.76
479.611	2604.85
479.82	2819.88
480.03	3147.56
480.239	2535.21
480.449	2719.53
480.658	3354.4
480.868	3010.34
481.077	2989.86
481.287	2918.18
481.496	3161.89
481.705	3493.66
481.915	3182.37
482.124	3223.33
482.333	3303.2
482.543	3663.65
482.752	3075.88
482.961	3129.13
483.171	3503.9
483.38	3362.59
483.589	3292.96
483.799	3163.94
484.008	3577.63
484.217	3749.66
484.426	3305.25
484.636	3174.18
484.845	3706.65
485.054	3389.22
485.263	3798.81
485.472	3387.17
485.682	4054.81
485.891	3759.9
486.1	3206.95
486.309	3551.01
486.518	3991.32
486.727	4089.62
486.936	3591.97
487.146	3815.2
487.355	4415.25
487.564	3956.5
487.773	3819.29
487.982	3940.12
488.191	3989.27
488.4	4136.73
488.609	3983.13
488.818	3798.81
489.027	4732.69
489.236	4595.47
489.445	4003.61
489.654	3987.22
489.863	4566.8
490.072	4380.43
490.281	4337.43
490.49	4327.19
490.698	4841.23
490.907	4730.64
491.116	4284.18
491.325	4056.86
491.534	4972.3
491.743	4640.53
491.952	4562.7
492.16	4396.82
492.369	4714.25
492.578	5017.35
492.787	4661.01
492.996	4394.77
493.204	4572.94
493.413	5256.97
493.622	4488.98
493.831	4405.01
494.039	5283.59
494.248	4812.56
494.457	4667.15
494.665	4527.89
494.874	5183.24
495.083	5560.06
495.291	4935.43
495.5	4845.32
495.709	5289.73
495.917	5283.59
496.126	5091.08
496.335	4927.24
496.543	5091.08
496.752	5265.16
496.96	5273.35
497.169	4830.99
497.377	5568.26
497.586	5713.66
497.794	5306.12
498.003	5013.26
498.211	5486.34
498.42	5979.9
498.628	5342.98
498.837	5031.69
499.045	5744.38
499.254	5598.98
499.462	5287.68
499.671	5353.22
499.879	6004.47
500.087	5967.61
500.296	5560.06
500.504	5553.92
500.713	5934.84
500.921	6377.2
501.129	5641.98
501.338	5545.73
501.546	5818.11
501.754	6098.68
501.962	5678.85
502.171	5875.45
502.379	6199.03
502.587	6477.55
502.795	5701.37
503.004	5891.84
503.212	6319.86
503.42	6512.37
503.628	5840.64
503.837	6092.54
504.045	6436.6
504.253	6582
504.461	5908.22
504.669	5891.84
504.877	6608.62
505.085	6586.1
505.294	6135.54
505.502	6168.31
505.71	6477.55
505.918	6782.7
506.126	6369.01
506.334	6061.82
506.542	6647.54
506.75	6463.22
506.958	6436.6
507.166	6375.16
507.374	6598.38
507.582	7044.84
507.79	6520.56
507.998	6491.89
508.206	6915.82
508.414	6852.33
508.622	6360.82
508.83	6522.61
509.037	7315.17
509.245	6655.73
509.453	6655.73
509.661	6500.08
509.869	7085.8
510.077	6827.76
510.285	6844.14
510.492	6471.41
510.7	7612.13
510.908	7003.88
511.116	6799.09
511.324	6905.58
511.531	6999.79
511.739	7167.72
511.947	6942.44
512.155	7089.9
512.362	7343.85
512.57	6989.55
512.778	6858.48
512.985	6758.13
513.193	7579.36
513.401	7634.66
513.608	7098.09
513.816	7093.99
514.024	7468.77
514.231	7620.32
514.439	7132.9
514.646	7380.71
514.854	7696.1
515.061	7751.39
515.269	7161.58
515.477	7556.83
515.684	7491.3
515.892	7950.04
516.099	7356.13
516.307	7370.47
516.514	8083.16
516.722	8144.6
516.929	7470.82
517.136	7483.11
517.344	8183.51
517.551	7884.51
517.759	7507.68
517.966	7743.2
518.173	7724.77
518.381	7915.23
518.588	7735.01
518.796	7728.86
519.003	8214.23
519.21	7982.81
519.418	7696.1
519.625	8097.5
519.832	8085.21
520.039	8273.62
520.247	7411.43
520.454	7948
520.661	8492.76
520.868	8492.76
521.076	8109.79
521.283	8165.08
521.49	8838.86
521.697	8294.1
521.904	8189.66
522.112	8064.73
522.319	8670.93
522.526	8455.89
522.733	8042.2
522.94	8029.91
523.147	8414.93
523.354	8498.9
523.561	8298.2
523.768	8347.35
523.975	8908.49
524.183	8625.87
524.39	8660.69
524.597	8433.36
524.804	8777.42
525.011	8586.96
525.218	8589.01
525.425	8394.45
525.632	9162.44
525.838	8785.62
526.045	8597.2
526.252	8586.96
526.459	10120.89
526.666	9782.98
526.873	8732.37
527.08	8943.31
527.287	9402.05
527.494	9158.35
527.701	8797.9
527.907	8820.43
528.114	9410.25
528.321	9156.3
528.528	8818.38
528.735	8922.83
528.941	9195.21
529.148	9236.17
529.355	9193.16
529.562	9156.3
529.768	9871.04
529.975	9375.43
530.182	9176.78
530.388	9273.03
530.595	9846.46
530.802	9287.37
531.008	9713.35
531.215	9504.45
531.422	10114.75
531.628	10247.86
531.835	9649.86
532.042	9641.67
532.248	9801.41
532.455	9766.59
532.661	9633.47
532.868	9647.81
533.074	10196.67
533.281	10178.23
533.487	9885.37
533.694	9809.6
533.9	9758.4
534.107	10024.64
534.313	9688.77
534.52	9674.43
534.726	10477.24
534.933	10729.14
535.139	9899.71
535.345	9838.27
535.552	10389.17
535.758	10440.37
535.965	9793.22
536.171	9842.37
536.377	10555.06
536.584	10755.76
536.79	10208.95
536.996	10483.38
537.203	10792.62
537.409	10831.54
537.615	10417.85
537.821	10624.69
538.028	10948.27
538.234	10827.44
538.44	10467
538.646	10317.5
538.853	11013.81
539.059	10667.7
539.265	11144.88
539.471	10278.58
539.677	10927.79
539.883	10895.02
540.09	10620.6
540.296	11202.22
540.502	11077.29
540.708	10868.4
540.914	10913.45
541.12	10897.07
541.326	11349.67
541.532	11126.44
541.738	11065
541.944	11198.12
542.15	11699.87
542.356	11296.42
542.562	10989.23
542.768	11103.92
542.974	11861.66
543.18	11972.25
543.386	11202.22
543.592	11263.66
543.798	12074.65
544.004	11943.58
544.21	11302.57
544.415	11366.06
544.621	11894.43
544.827	11984.54
545.033	11525.8
545.239	11636.39
545.445	11810.47
545.651	12000.93
545.856	11642.53
546.062	11624.1
546.268	11931.3
546.474	11914.91
546.679	11624.1
546.885	11886.24
547.091	11779.75
547.297	12248.73
547.502	11720.35
547.708	11628.2
547.914	12013.21
548.119	12275.35
548.325	11816.61
548.531	11628.2
548.736	12598.93
548.942	11994.78
549.147	11777.7
549.353	12254.87
549.559	12603.03
549.764	12244.63
549.97	11902.62
550.175	11914.91
550.381	12682.9
550.586	12127.9
550.792	12156.57
550.997	12201.63
551.203	12533.4
551.408	12754.58
551.614	12242.59
551.819	12369.56
552.025	13160.08
552.23	13448.84
552.435	12433.05
552.641	12953.23
552.846	12789.39
553.052	13194.89
553.257	12822.16
553.462	12732.05
553.668	12881.55
553.873	13227.66
554.078	12643.99
554.283	12834.45
554.489	13340.3
554.694	13213.32
554.899	12557.97
555.105	13188.75
555.31	13459.08
555.515	13475.46
555.72	13254.28
555.925	13049.49
556.131	13536.9
556.336	13401.74
556.541	13172.36
556.746	12990.1
556.951	13760.13
557.156	13850.24
557.361	13168.27
557.567	13524.61
557.772	14083.71
557.977	13506.18
558.182	13149.84
558.387	13235.85
558.592	13541
558.797	13958.78
559.002	13485.7
559.207	13530.76
559.412	13866.63
559.617	14212.73
559.822	13555.33
560.027	13338.25
560.232	13702.79
560.437	13883.01
560.642	13393.54
560.847	13561.48
561.051	13899.39
561.256	14184.06
561.461	13743.75
561.666	13768.32
561.871	14032.51
562.076	14255.74
562.281	13837.95
562.485	13880.96
562.69	14524.02
562.895	14327.42
563.1	13741.7
563.305	13962.88
563.509	14442.1
563.714	14632.57
563.919	14077.57
564.123	13831.81
564.328	14409.34
564.533	14708.34
564.737	13897.35
564.942	14069.37
565.147	14939.76
565.351	14900.85
565.556	14098.05
565.761	14560.89
565.965	14573.17
566.17	14517.88
566.374	14319.23
566.579	14296.7
566.784	14468.73
566.988	14466.68
567.193	14372.47
567.397	14433.91
567.602	14399.1
567.806	14812.79
568.011	14491.26
568.215	14483.06
568.42	14790.26
568.624	15017.58
568.828	14749.3
569.033	14900.85
569.237	15287.92
569.442	15140.46
569.646	14356.09
569.85	14966.38
570.055	14956.15
570.259	15306.35
570.463	15095.41
570.668	14904.95
570.872	15122.03
571.076	15433.32
571.281	14950
571.485	15181.42
571.689	15451.75
571.893	15410.79
572.098	15453.8
572.302	14919.28
572.506	15373.93
572.71	15349.36
572.914	15380.07
573.119	15169.13
573.323	15926.88
573.527	15826.53
573.731	15167.09
573.935	15210.09
574.139	15441.51
574.343	15570.54
574.547	15515.24
574.751	15724.13
574.955	16023.14
575.159	15650.41
575.364	15191.66
575.568	15474.28
575.772	15720.04
575.976	16238.17
576.18	15351.4
576.383	15470.19
576.587	16264.8
576.791	16180.83
576.995	15461.99
577.199	15744.61
577.403	16359
577.607	16346.72
577.811	15697.51
578.015	15976.03
578.219	16445.02
578.422	16385.63
578.626	15937.12
578.83	16041.57
579.034	16647.77
579.238	16137.82
579.442	16137.82
579.645	16608.86
579.849	16508.51
580.053	16569.94
580.257	16178.78
580.46	16281.18
580.664	16838.23
580.868	16895.57
581.071	16471.64
581.275	16483.93
581.479	16205.41
581.682	16778.84
581.886	16442.97
582.09	16617.05
582.293	17022.55
582.497	17059.41
582.7	16721.49
582.904	16371.29
583.107	17016.4
583.311	16666.2
583.515	16674.39
583.718	16813.65
583.922	17069.65
584.125	17610.31
584.329	16586.33
584.532	16842.32
584.735	17452.62
584.939	17096.27
585.142	16539.22
585.346	16686.68
585.549	17428.04
585.753	17307.21
585.956	17155.66
586.159	17382.99
586.363	17890.88
586.566	17598.02
586.769	16850.52
586.973	16963.15
587.176	17526.35
587.379	17960.52
587.582	17866.31
587.786	17653.32
587.989	17614.41
588.192	18140.74
588.395	17452.62
588.599	17878.6
588.802	17845.83
589.005	17860.16
589.208	17518.15
589.411	17847.88
589.615	18103.87
589.818	18421.31
590.021	18218.56
590.224	18032.19
590.427	18300.48
590.63	18036.29
590.833	17579.59
591.036	17731.14
591.239	18064.96
591.442	17995.33
591.645	18099.78
591.848	18075.2
592.051	18339.39
592.254	18607.67
592.457	18181.7
592.66	18161.22
592.863	18452.03
593.066	18488.89
593.269	17980.99
593.472	18267.71
593.675	18251.33
593.878	18900.53
594.081	18452.03
594.284	18042.43
594.486	18798.13
594.689	18923.06
594.892	18353.73
595.095	18525.75
595.298	19199.54
595.5	18806.33
595.703	19140.15
595.906	18638.39
596.109	19691.05
596.311	19213.87
596.514	18398.78
596.717	18947.64
596.92	19084.85
597.122	19361.33
597.325	18386.49
597.528	18787.89
597.73	19529.26
597.933	19426.86
598.136	18974.26
598.338	18675.26
598.541	19273.26
598.743	19811.88
598.946	19002.93
599.148	19320.37
599.351	19764.78
599.554	19951.14
599.756	19410.48
599.959	19353.13
600.161	19772.97
600.363	20391.45
600.566	19279.41
600.768	19383.85
600.971	20231.71
601.173	20028.96
601.376	19250.74
601.578	19453.48
601.78	20141.6
601.983	20487.71
602.185	19328.56
602.388	19576.36
602.59	19965.48
602.792	19375.66
602.995	19723.82
603.197	19652.14
603.399	20143.65
603.601	19899.94
603.804	19435.05
604.006	19756.58
604.208	19856.93
604.41	19535.4
604.613	19926.57
604.815	19807.78
605.017	20672.03
605.219	19648.04
605.421	19967.52
605.623	19910.18
605.826	20653.59
606.028	20520.48
606.23	19715.62
606.432	19848.74
606.634	20811.29
606.836	20764.18
607.038	19992.1
607.24	20362.78
607.442	20549.15
607.644	20436.51
607.846	20504.09
608.048	20129.31
608.25	20678.17
608.452	20581.92
608.654	20168.23
608.856	19977.76
609.058	20526.62
609.26	20755.99
609.462	20446.75
609.664	20282.91
609.866	20985.37
610.067	21157.39
610.269	20491.8
610.471	20274.72
610.673	20739.61
610.875	20731.42
611.077	20309.54
611.278	20475.42
611.48	20768.28
611.682	21005.84
611.884	20809.24
612.085	20475.42
612.287	20543
612.489	21075.48
612.69	20487.71
612.892	20674.07
613.094	21147.15
613.295	20786.71
613.497	20426.27
613.699	20837.91
613.9	21478.93
614.102	21173.78
614.304	20821.53
614.505	20721.18
614.707	20678.17
614.908	20956.69
615.11	20846.1
615.311	20991.51
615.513	21143.06
615.714	21366.29
615.916	20543
616.117	20862.49
616.319	21104.15
616.52	21280.27
616.722	20907.54
616.923	20999.7
617.124	21448.21
617.326	21190.16
617.527	21007.89
617.729	21227.03
617.93	21503.5
618.131	21663.24
618.333	21034.52
618.534	21253.65
618.735	20876.82
618.937	21827.08
619.138	20885.01
619.339	20803.1
619.54	21663.24
619.742	21364.24
619.943	21284.37
620.144	21315.09
620.345	21960.2
620.546	21661.19
620.748	21245.46
620.949	21157.39
621.15	21523.98
621.351	21614.09
621.552	21280.27
621.753	21280.27
621.954	21329.42
622.155	21829.13
622.356	21390.86
622.558	21573.13
622.759	21360.14
622.96	21999.11
623.161	21220.88
623.362	21419.53
623.563	21915.14
623.764	21800.46
623.965	21523.98
624.166	21947.91
624.366	21753.35
624.567	21788.17
624.768	21476.88
624.969	21528.08
625.17	21992.97
625.371	22359.55
625.572	21745.16
625.773	21255.7
625.973	22230.53
626.174	22418.94
626.375	21917.19
626.576	21859.85
626.777	22251.01
626.977	22304.26
627.178	22070.79
627.379	22019.59
627.58	22269.44
627.78	22152.71
627.981	21960.2
628.182	22101.51
628.382	22283.78
628.583	21722.63
628.784	22078.98
628.984	22085.12
629.185	22324.74
629.386	22179.33
629.586	22257.15
629.787	22019.59
629.987	22496.77
630.188	22375.94
630.388	22289.92
630.589	21917.19
630.79	22875.64
630.99	22842.87
631.191	22459.9
631.391	22453.76
631.591	22656.51
631.792	22580.73
631.992	22552.06
632.193	22765.05
632.393	23174.64
632.594	22617.6
632.794	22275.59
632.994	22732.28
633.195	22683.13
633.395	22410.75
633.595	22380.03
633.796	22464
633.996	22664.7
634.196	23053.81
634.397	22623.74
634.597	22754.81
634.797	22636.03
634.997	23186.93
635.198	22859.26
635.398	22445.57
635.598	23014.9
635.798	23219.7
635.998	22478.33
636.199	22595.07
636.399	22945.27
636.599	22892.02
636.799	22834.68
636.999	22779.39
637.199	22967.8
637.399	23430.64
637.599	22797.82
637.799	22834.68
637.999	23188.98
638.199	23649.77
638.399	22758.91
638.599	22808.06
638.799	23401.97
638.999	23840.23
639.199	23019
639.399	22855.16
639.599	23645.68
639.799	22799.87
639.999	22769.15
640.199	22836.73
640.399	23418.35
640.599	22799.87
640.799	23508.46
640.998	23154.16
641.198	23545.33
641.398	23176.69
641.598	23434.74
641.798	23227.89
641.997	24311.27
642.197	23301.62
642.397	23432.69
642.597	23432.69
642.796	24014.31
642.996	24116.71
643.196	23461.36
643.395	23184.88
643.595	23721.45
643.795	23113.2
643.994	23584.24
644.194	23696.88
644.394	23766.51
644.593	23997.93
644.793	23502.32
644.992	23485.93
645.192	23885.29
645.392	23496.17
645.591	23846.38
645.791	23920.1
645.99	23911.91
646.19	23799.27
646.389	23858.67
646.589	23772.65
646.788	24143.33
646.987	24348.13
647.187	24464.86
647.386	23997.93
647.586	23901.67
647.785	24468.96
647.984	23829.99
648.184	24229.35
648.383	24223.2
648.582	23897.58
648.782	24034.79
648.981	24022.5
649.18	24042.98
649.38	24411.62
649.579	24262.12
649.778	24184.29
649.977	24733.15
650.177	24399.33
650.376	23967.21
650.575	24057.32
650.774	24604.13
650.973	24118.76
651.173	23780.84
651.372	24083.94
651.571	24575.45
651.77	24432.1
651.969	24444.38
652.168	24294.88
652.367	24202.72
652.566	24585.69
652.765	24313.31
652.964	24790.49
653.163	25175.51
653.362	24831.45
653.561	24241.64
653.76	24341.99
653.959	24442.34
654.158	25136.6
654.357	24581.6
654.556	24425.95
654.755	25066.97
654.954	25071.06
655.153	24444.38
655.352	24923.61
655.551	25241.04
655.749	24774.11
655.948	24595.93
656.147	24950.23
656.346	24944.09
656.545	24907.23
656.743	24499.68
656.942	24624.61
657.141	25021.91
657.34	24774.11
657.538	24825.31
657.737	24950.23
657.936	24933.85
658.135	25177.56
658.333	24663.52
658.532	25071.06
658.731	25497.04
658.929	25599.44
659.128	25435.6
659.326	24862.17
659.525	25773.52
659.724	24806.87
659.922	24829.4
660.121	24833.5
660.319	25392.59
660.518	24978.9
660.716	24860.12
660.915	25109.97
661.113	25667.02
661.312	25075.16
661.51	25058.77
661.709	25077.21
661.907	25224.66
662.105	25863.63
662.304	25107.93
662.502	25157.08
662.701	25642.45
662.899	25286.1
663.097	25677.26
663.296	25079.25
663.494	26080.71
663.692	25679.31
663.891	25296.34
664.089	24694.24
664.287	25693.65
664.485	25615.82
664.684	25085.4
664.882	25325.01
665.08	25746.89
665.278	25998.79
665.476	25546.19
665.675	25419.22
665.873	26006.98
666.071	25730.51
666.269	25460.18
666.467	25560.53
666.665	25593.29
666.863	25478.61
667.061	25841.1
667.259	25413.07
667.457	25865.67
667.655	25902.54
667.853	25251.28
668.051	25187.8
668.249	25267.67
668.447	25669.07
668.645	25249.24
668.843	25617.87
669.041	26035.66
669.239	25609.68
669.437	25718.22
669.635	25642.45
669.833	25548.24
670.031	25730.51
670.229	25673.17
670.426	25646.54
670.624	25544.14
670.822	25728.46
671.02	25548.24
671.218	25685.45
671.415	25529.81
671.613	25595.34
671.811	25759.18
672.009	25839.05
672.206	26402.24
672.404	25683.41
672.602	25757.13
672.799	25429.46
672.997	25925.07
673.195	26095.05
673.392	25644.49
673.59	25638.35
673.788	25660.88
673.985	25101.78
674.183	25646.54
674.38	25695.69
674.578	26222.02
674.775	25716.17
674.973	25288.15
675.17	25499.09
675.368	26193.35
675.565	25728.46
675.763	25402.83
675.96	25091.54
676.158	25869.77
676.355	25435.6
676.553	25449.94
676.75	25578.96
676.947	25595.34
677.145	25617.87
677.342	25787.85
677.539	25435.6
677.737	25759.18
677.934	25884.11
678.131	25581.01
678.329	25499.09
678.526	25968.07
678.723	25789.9
678.92	25902.54
679.118	25351.63
679.315	25232.85
679.512	25994.7
679.709	25593.29
679.906	25198.04
680.104	26103.24
680.301	25894.35
680.498	25060.82
680.695	25282
680.892	25318.87
681.089	25730.51
681.286	25337.3
681.483	25161.17
681.68	25740.75
681.877	25789.9
682.075	25464.27
682.272	25687.5
682.469	25742.8
682.665	25415.12
682.862	25138.65
683.059	25105.88
683.256	25834.96
683.453	25585.1
683.65	25581.01
683.847	25552.34
684.044	25589.2
684.241	25599.44
684.438	25802.19
684.635	25384.4
684.831	26033.61
685.028	25996.74
685.225	25155.03
685.422	25353.68
685.619	25497.04
685.815	25759.18
686.012	25331.15
686.209	25308.63
686.405	25406.93
686.602	25744.84
686.799	24665.56
686.996	25527.76
687.192	25398.74
687.389	25601.49
687.586	25011.67
687.782	25261.52
687.979	26072.52
688.175	25570.77
688.372	25306.58
688.568	25253.33
688.765	25337.3
688.962	25648.59
689.158	25308.63
689.355	25011.67
689.551	25310.68
689.748	25392.59
689.944	25306.58
690.14	24847.83
690.337	25673.17
690.533	25206.23
690.73	25105.88
690.926	25503.18
691.123	25341.39
691.319	25269.72
691.515	25402.83
691.712	25275.86
691.908	25167.32
692.104	25396.69
692.301	24966.62
692.497	24913.37
692.693	25681.36
692.889	25599.44
693.086	25249.24
693.282	25021.91
693.478	25378.26
693.674	25746.89
693.87	24794.59
694.067	24761.82
694.263	25265.62
694.459	25296.34
694.655	25335.25
694.851	25286.1
695.047	25341.39
695.243	25447.89
695.439	25095.64
695.635	25220.56
695.831	25472.46
696.027	24972.76
696.224	24798.68
696.42	25443.79
696.615	25783.76
696.811	25492.94
697.007	25007.58
697.203	24956.38
697.399	25587.15
697.595	25675.21
697.791	24550.88
697.987	24735.2
698.183	24843.74
698.379	25081.3
698.575	25122.26
698.77	25204.18
698.966	25021.91
699.162	25116.12
699.358	24933.85
699.554	24958.42
699.749	25370.07
699.945	25152.98
700.141	24776.16
700.337	24784.35
700.532	24675.8
700.728	25212.37
700.924	24776.16
701.119	24651.23
701.315	25249.24
701.511	24669.66
701.706	24913.37
701.902	24933.85
702.097	24989.14
702.293	25261.52
702.489	24821.21
702.684	24815.07
702.88	25019.86
703.075	25181.65
703.271	24643.04
703.466	24759.77
703.662	24813.02
703.857	25382.35
704.053	24757.72
704.248	25095.64
704.443	25378.26
704.639	25347.54
704.834	24860.12
705.03	24423.9
705.225	25239
705.42	25558.48
705.616	24794.59
705.811	24712.67
706.006	25054.68
706.202	24853.98
706.397	24810.97
706.592	24587.74
706.787	24829.4
706.983	24817.11
707.178	25011.67
707.373	24712.67
707.568	25212.37
707.763	25077.21
707.959	24741.34
708.154	24737.24
708.349	24864.22
708.544	25378.26
708.739	24911.32
708.934	24546.78
709.129	24905.18
709.324	25136.6
709.519	24585.69
709.714	24604.13
709.909	25646.54
710.104	24774.11
710.299	24452.58
710.494	24792.54
710.689	24909.27
710.884	24962.52
711.079	24608.22
711.274	24884.7
711.469	25126.36
711.664	25046.49
711.859	24489.44
712.054	24841.69
712.249	24743.39
712.443	25003.48
712.638	24444.38
712.833	24534.49
713.028	24747.48
713.223	24800.73
713.417	24720.86
713.612	24815.07
713.807	25023.96
714.002	25552.34
714.196	24991.19
714.391	24344.03
714.586	24888.79
714.78	24749.53
714.975	24219.11
715.17	24122.85
715.364	24774.11
715.559	24915.42
715.754	24022.5
715.948	24444.38
716.143	24653.28
716.337	24557.02
716.532	24346.08
716.726	24415.71
716.921	24616.41
717.115	24948.18
717.31	24219.11
717.504	25044.44
717.699	24395.23
717.893	24538.59
718.088	24229.35
718.282	24075.75
718.476	24514.02
718.671	24362.47
718.865	24114.66
719.059	24206.82
719.254	24368.61
719.448	24421.86
719.642	25370.07
719.837	23879.14
720.031	24704.48
720.225	24583.65
720.419	23881.19
720.614	23922.15
720.808	24735.2
721.002	23926.25
721.196	23743.98
721.39	23608.81
721.585	24516.06
721.779	24473.06
721.973	23823.85
722.167	23760.36
722.361	23969.26
722.555	24442.34
722.749	23930.34
722.943	23954.92
723.137	23817.71
723.331	24059.37
723.525	24073.7
723.719	23576.05
723.913	24258.02
724.107	24241.64
724.301	23825.9
724.495	23780.84
724.689	24851.93
724.883	24118.76
725.077	23469.55
725.271	23885.29
725.465	24100.33
725.659	23985.64
725.853	23596.53
726.046	23866.86
726.24	23660.01
726.434	24024.55
726.628	23723.5
726.822	23463.41
727.015	24094.18
727.209	24370.66
727.403	24045.03
727.596	23825.9
727.79	24151.52
727.984	24106.47
728.177	24040.93
728.371	24102.37
728.565	24305.12
728.758	23305.71
728.952	23741.93
729.146	23770.6
729.339	24489.44
729.533	24047.08
729.726	23905.77
729.92	23567.85
730.113	24108.52
730.307	24098.28
730.5	23522.8
730.694	24018.41
730.887	23926.25
731.081	24014.31
731.274	23584.24
731.468	23647.72
731.661	23723.5
731.854	23825.9
732.048	23721.45
732.241	23621.1
732.435	23760.36
732.628	24159.72
732.821	23520.75
733.014	23508.46
733.208	23918.06
733.401	24397.28
733.594	23762.41
733.788	23832.04
733.981	24190.44
734.174	24116.71
734.367	23700.97
734.56	23829.99
734.754	24292.83
734.947	23918.06
735.14	23492.08
735.333	23760.36
735.526	24090.09
735.719	23842.28
735.912	23535.09
736.105	23533.04
736.298	24055.27
736.491	23842.28
736.684	23766.51
736.877	23772.65
737.07	23606.77
737.263	23926.25
737.456	23750.12
737.649	23401.97
737.842	23928.3
738.035	24002.02
738.228	23795.18
738.421	23956.97
738.614	24077.8
738.807	24055.27
739	23338.48
739.192	23383.54
739.385	23729.64
739.578	23969.26
739.771	23825.9
739.964	23442.93
740.156	24077.8
740.349	23813.61
740.542	23883.24
740.735	23217.65
740.927	23574
741.12	23850.47
741.313	23338.48
741.505	23846.38
741.698	23862.76
741.891	24225.25
742.083	24081.89
742.276	23668.2
742.468	23653.87
742.661	23805.42
742.854	23606.77
743.046	23240.18
743.239	23991.78
743.431	23924.2
743.624	23596.53
743.816	23248.37
744.009	23725.55
744.201	23969.26
744.393	23727.6
744.586	23490.03
744.778	23868.91
744.971	23811.56
745.163	23590.38
745.355	23559.66
745.548	23494.13
745.74	23289.33
745.932	23629.29
746.125	23121.4
746.317	24090.09
746.509	23526.89
746.702	23444.98
746.894	23322.1
747.086	23547.37
747.278	24030.69
747.471	23436.78
747.663	23463.41
747.855	23246.32
748.047	24401.38
748.239	23369.2
748.431	23334.39
748.623	23905.77
748.815	23889.38
749.008	22994.42
749.2	23266.8
749.392	23606.77
749.584	23156.21
749.776	23469.55
749.968	23191.03
750.16	23725.55
750.352	23535.09
750.544	23195.12
750.736	22830.58
750.928	23528.94
751.12	23264.75
751.311	22871.54
751.503	23195.12
751.695	23410.16
751.887	23215.6
752.079	22865.4
752.271	22908.41
752.463	24227.3
752.654	23201.27
752.846	23199.22
753.038	23059.96
753.23	23236.08
753.421	23545.33
753.613	23053.81
753.805	23258.61
753.997	23424.5
754.188	23137.78
754.38	22705.66
754.572	23043.57
754.763	23371.25
754.955	23113.2
755.146	22859.26
755.338	22777.34
755.53	22937.08
755.721	23205.36
755.913	22707.71
756.104	22343.17
756.296	22826.49
756.487	23010.81
756.679	22773.24
756.87	22658.56
757.062	22777.34
757.253	23131.64
757.445	22724.09
757.636	22679.04
757.827	22746.62
758.019	23559.66
758.21	22390.27
758.401	22246.91
758.593	23133.68
758.784	22914.55
758.975	22259.2
759.167	22191.62
759.358	22744.57
759.549	23117.3
759.74	22345.22
759.932	22298.11
760.123	22971.89
760.314	22599.16
760.505	22394.37
760.696	22103.56
760.888	22898.17
761.079	22519.29
761.27	22017.54
761.461	21872.14
761.652	23004.66
761.843	22294.02
762.034	22521.34
762.225	22437.37
762.416	22523.39
762.607	22316.54
762.798	22011.4
762.989	22103.56
763.18	22826.49
763.371	21884.42
763.562	21937.67
763.753	21884.42
763.944	22425.09
764.135	22099.46
764.326	21904.9
764.517	21564.94
764.708	22187.52
764.899	22312.45
765.089	21798.41
765.28	21343.76
765.471	22138.37
765.662	22459.9
765.853	21759.5
766.043	21313.04
766.234	22183.43
766.425	21827.08
766.615	21747.21
766.806	21771.79
766.997	22035.97
767.187	21847.56
767.378	21610
767.569	21532.17
767.759	21720.59
767.95	21782.02
768.141	21691.91
768.331	21132.82
768.522	21722.63
768.712	22029.83
768.903	21798.41
769.093	21411.34
769.284	21818.89
769.474	21583.37
769.665	20975.13
769.855	21114.39
770.046	21630.48
770.236	21739.02
770.426	21435.92
770.617	21237.27
770.807	21599.76
770.998	21521.93
771.188	21374.48
771.378	20885.01
771.569	21335.57
771.759	21360.14
771.949	20770.33
772.139	21216.79
772.33	21163.54
772.52	21659.15
772.71	20966.93
772.9	20852.25
773.09	21661.19
773.281	21769.74
773.471	21089.81
773.661	20893.21
773.851	21343.76
774.041	20895.25
774.231	20792.86
774.421	20932.12
774.611	21530.12
774.802	21073.43
774.992	21134.87
775.182	20729.37
775.372	21055
775.562	21435.92
775.752	20762.14
775.942	20553.24
776.131	21392.91
776.321	21001.75
776.511	20862.49
776.701	20538.91
776.891	20895.25
777.081	20676.12
777.271	20723.23
777.461	20510.24
777.651	20989.46
777.84	20946.45
778.03	20704.79
778.22	20620.83
778.41	20958.74
778.599	20504.09
778.789	20192.8
778.979	20395.55
779.169	20778.52
779.358	20565.53
779.548	20573.72
779.738	19899.94
779.927	20426.27
780.117	20287.01
780.307	20125.22
780.496	20026.92
780.686	20557.34
780.875	20708.89
781.065	20192.8
781.254	20246.05
781.444	20147.75
781.633	20342.3
781.823	19893.8
782.012	19904.04
782.202	20114.98
782.391	20309.54
782.581	19713.58
782.77	19965.48
782.96	20430.37
783.149	19877.41
783.338	19719.72
783.528	19602.99
783.717	20211.23
783.906	20465.18
784.096	19684.9
784.285	19836.45
784.474	19742.25
784.663	19934.76
784.853	19592.75
785.042	19926.57
785.231	19717.67
785.42	20176.42
785.61	19672.62
785.799	19238.45
785.988	20127.27
786.177	19844.65
786.366	19375.66
786.555	19762.73
786.744	19924.52
786.933	19867.17
787.122	19658.28
787.312	19387.95
787.501	19426.86
787.69	19768.87
787.879	19465.77
788.068	19365.42
788.257	19316.27
788.445	19336.75
788.634	19508.78
788.823	19152.43
789.012	20237.86
789.201	19904.04
789.39	19301.93
789.579	19041.84
789.768	19308.08
789.957	19584.55
790.145	19213.87
790.334	18929.2
790.523	19320.37
790.712	19306.03
790.9	19222.06
791.089	19205.68
791.278	19822.12
791.467	19455.53
791.655	19523.12
791.844	19691.05
792.033	18910.77
792.221	19174.96
792.41	18939.44
792.599	18673.21
792.787	19617.32
792.976	19572.27
793.164	19029.55
793.353	19078.71
793.541	19346.99
793.73	19174.96
793.918	18886.2
794.107	18683.45
794.295	18771.51
794.484	19246.64
794.672	18630.2
794.861	18916.92
795.049	19033.65
795.238	19428.91
795.426	18916.92
795.614	18667.06
795.803	19207.73
795.991	19361.33
796.179	18497.08
796.368	18589.24
796.556	19433
796.744	18798.13
796.932	18669.11
797.121	18519.61
797.309	18802.23
797.497	19021.36
797.685	18619.96
797.874	18507.32
798.062	18964.02
798.25	18748.98
798.438	18673.21
798.626	18535.99
798.814	19082.8
799.002	19215.92
799.19	18728.5
799.378	18878.01
799.566	19099.19
799.755	19117.62
799.943	18943.54
800.131	18654.78
800.318	18892.34
800.506	19211.82
800.694	18437.69
800.882	18548.28
801.07	19134
801.258	18873.91
801.446	18773.56
801.634	18546.23
801.822	18765.37
802.01	18800.18
802.197	18646.58
802.385	18665.02
802.573	19090.99
802.761	18832.95
802.949	18837.05
803.136	18482.75
803.324	19346.99
803.512	19062.32
803.699	19031.6
803.887	18372.16
804.075	19191.34
804.262	19033.65
804.45	18566.71
804.638	18843.19
804.825	18761.27
805.013	18878.01
805.201	18916.92
805.388	18388.54
805.576	19052.08
805.763	19693.1
805.951	18925.11
806.138	18718.26
806.326	19584.55
806.513	19224.11
806.701	19045.94
806.888	18970.16
807.075	19600.94
807.263	19484.2
807.45	18804.28
807.638	18880.05
807.825	19799.59
808.012	19682.86
808.2	18679.35
808.387	19181.1
808.574	19355.18
808.761	19850.79
808.949	19009.08
809.136	19322.41
809.323	19144.24
809.51	19430.96
809.698	19316.27
809.885	19078.71
810.072	19420.72
810.259	19834.41
810.446	19095.09
810.633	18941.49
810.82	19918.37
811.008	20067.88
811.195	19572.27
811.382	19318.32
811.569	19355.18
811.756	19111.47
811.943	19287.6
812.13	19322.41
812.317	19353.13
812.504	19641.9
812.691	19256.88
812.878	19508.78
813.064	20022.82
813.251	19449.39
813.438	19338.8
813.625	19107.38
813.812	19658.28
813.999	19709.48
814.186	19115.57
814.372	19308.08
814.559	19549.74
814.746	19729.96
814.933	19342.89
815.12	19689
815.306	19134
815.493	19359.28
815.68	19334.7
815.866	19379.76
816.053	19684.9
816.24	19787.3
816.426	19177.01
816.613	19340.85
816.799	19901.99
816.986	19856.93
817.173	19211.82
817.359	19099.19
817.546	19680.81
817.732	18980.4
817.919	19344.94
818.105	19236.4
818.292	19211.82
818.478	19584.55
818.665	19689
818.851	18976.31
819.037	19908.13
819.224	19340.85
819.41	19027.51
819.597	18873.91
819.783	19416.62
819.969	19381.81
820.156	19156.53
820.342	19103.28
820.528	20059.68
820.714	19248.69
820.901	19148.34
821.087	19113.52
821.273	19815.97
821.459	19418.67
821.646	19031.6
821.832	18710.07
822.018	19054.13
822.204	19254.83
822.39	18972.21
822.576	18601.53
822.762	19365.42
822.948	18812.47
823.134	19308.08
823.32	18611.77
823.507	18787.89
823.693	19019.32
823.879	19011.12
824.065	18732.6
824.25	19072.56
824.436	18640.44
824.622	18890.29
824.808	18830.9
824.994	19004.98
825.18	18656.82
825.366	18589.24
825.552	18607.67
825.738	19013.17
825.923	18902.58
826.109	18712.12
826.295	18449.98
826.481	18505.27
826.667	18622.01
826.852	18476.6
827.038	18275.9
827.224	19127.86
827.409	19050.03
827.595	18312.77
827.781	18230.85
827.966	18931.25
828.152	18785.85
828.338	18535.99
828.523	18298.43
828.709	18435.64
828.894	19021.36
829.08	18189.89
829.266	18095.68
829.451	18294.33
829.637	18402.88
829.822	18036.29
830.008	18116.16
830.193	18740.79
830.378	18783.8
830.564	18140.74
830.749	18001.47
830.935	18331.2
831.12	18433.6
831.305	18097.73
831.491	18046.53
831.676	17788.49
831.861	18568.76
832.047	18206.27
832.232	17897.03
832.417	18382.4
832.602	18120.26
832.788	17700.42
832.973	17665.61
833.158	17917.51
833.343	18165.31
833.528	17819.21
833.714	17702.47
833.899	18044.48
834.084	18245.18
834.269	17782.34
834.454	17688.14
834.639	18411.07
834.824	18067.01
835.009	17792.58
835.194	17849.92
835.379	17985.09
835.564	18169.41
835.749	17700.42
835.934	17481.29
836.119	17884.74
836.304	17819.21
836.489	17509.96
836.674	17663.56
836.859	17514.06
837.044	18136.64
837.228	17378.89
837.413	17339.98
837.598	17915.46
837.783	18058.82
837.968	17598.02
838.152	17364.56
838.337	17514.06
838.522	17651.27
838.707	17540.68
838.891	17634.89
839.076	17485.39
839.261	17751.62
839.445	17165.9
839.63	17409.61
839.815	17860.16
839.999	17534.54
840.184	17139.28
840.368	17153.62
840.553	17645.13
840.737	17733.19
840.922	17014.35
841.106	17043.03
841.291	17270.35
841.475	17294.93
841.66	16768.6
841.844	16936.53
842.029	18040.39
842.213	16950.87
842.397	16723.54
842.582	16895.57
842.766	17598.02
842.951	17376.84
843.135	16615
843.319	16811.6
843.504	16844.37
843.688	17438.28
843.872	16543.32
844.056	17108.56
844.241	17157.71
844.425	16830.04
844.609	16774.74
844.793	16481.88
844.977	17053.27
845.161	16713.3
845.346	16455.26
845.53	16459.35
845.714	16909.91
845.898	17397.32
846.082	16352.86
846.266	16561.75
846.45	16707.16
846.634	16698.97
846.818	16537.18
847.002	16625.24
847.186	16791.13
847.37	16868.95
847.554	16471.64
847.738	16508.51
847.922	16481.88
848.106	16688.73
848.29	16064.1
848.473	16184.93
848.657	16442.97
848.841	16588.38
849.025	16342.62
849.209	15842.92
849.392	16619.1
849.576	16547.42
849.76	16037.47
849.944	16424.54
850.127	16858.71
850.311	16158.3
850.495	16057.95
850.678	15896.16
850.862	16660.06
851.046	16631.38
851.229	16248.41
851.413	15795.81
851.596	16451.16
851.78	16266.85
851.964	16213.6
852.147	15896.16
852.331	16660.06
852.514	16543.32
852.698	15740.52
852.881	15480.43
853.065	16354.91
853.248	16119.39
853.431	16092.77
853.615	15781.48
853.798	16557.66
853.982	16318.04
854.165	15717.99
854.348	15736.42
854.532	15773.28
854.715	15623.78
854.898	15685.22
855.081	15533.67
855.265	16002.66
855.448	16455.26
855.631	15328.88
855.814	15644.26
855.997	15963.75
856.181	15613.54
856.364	15535.72
856.547	15224.43
856.73	15654.5
856.913	15748.71
857.096	15019.63
857.279	15375.98
857.462	15203.95
857.645	15830.63
857.828	15398.51
858.011	15289.96
858.194	15255.15
858.377	15625.83
858.56	15062.64
858.743	15087.22
858.926	15496.81
859.109	15556.2
859.292	14968.43
859.475	15062.64
859.658	15535.72
859.841	15556.2
860.023	14831.22
860.206	15132.27
860.389	15484.52
860.572	15490.66
860.755	14851.7
860.937	14878.32
861.12	15103.6
861.303	15124.08
861.486	14982.77
861.668	14747.25
861.851	15347.31
862.034	15136.37
862.216	14827.12
862.399	14478.97
862.581	14712.44
862.764	15324.78
862.947	14638.71
863.129	14573.17
863.312	14642.81
863.494	15126.13
863.677	14780.02
863.859	14149.25
864.042	14782.07
864.224	14882.42
864.406	14571.13
864.589	14225.02
864.771	14651
864.954	14616.18
865.136	14507.64
865.318	14128.77
865.501	14474.87
865.683	14061.18
865.865	14274.17
866.048	14372.47
866.23	14407.29
866.412	14325.37
866.594	13923.97
866.777	14253.69
866.959	14612.09
867.141	14163.58
867.323	14382.71
867.505	14036.61
867.687	14327.42
867.869	14536.31
868.052	14145.15
868.234	13954.69
868.416	14249.6
868.598	14712.44
868.78	14196.35
868.962	13776.52
869.144	14648.95
869.326	14548.6
869.508	13809.28
869.69	13944.45
869.872	14093.95
870.054	14511.74
870.236	13889.15
870.417	13960.83
870.599	14055.04
870.781	14562.94
870.963	14167.68
871.145	13696.64
871.327	13975.17
871.508	14345.85
871.69	14048.89
871.872	13815.43
872.054	14255.74
872.235	14212.73
872.417	13981.31
872.599	13672.07
872.78	14694.01
872.962	14265.98
873.144	13786.75
873.325	14026.37
873.507	14702.2
873.689	14274.17
873.87	13702.79
874.052	13942.4
874.233	13919.87
874.415	14407.29
874.596	13999.74
874.778	13743.75
874.959	14378.62
875.141	14784.12
875.322	13960.83
875.503	13680.26
875.685	14106.24
875.866	13672.07
876.048	13731.46
876.229	13790.85
876.41	14179.96
876.592	14177.92
876.773	13772.42
876.954	13686.4
877.136	14247.55
877.317	14100.09
877.498	13684.36
877.679	14065.28
877.86	14044.8
878.042	14087.81
878.223	13827.71
878.404	14063.23
878.585	14206.59
878.766	14577.27
878.947	14055.04
879.128	14151.29
879.309	14337.66
879.49	14626.42
879.672	14001.79
879.853	14020.22
880.034	13909.63
880.215	14313.08
880.396	14208.64
880.576	14132.86
880.757	14560.89
880.938	14784.12
881.119	14061.18
881.3	14096
881.481	14392.95
881.662	15328.88
881.843	14153.34
882.023	14225.02
882.204	14632.57
882.385	14737.01
882.566	14595.7
882.747	14419.58
882.927	14550.65
883.108	14644.85
883.289	14411.39
883.469	14585.46
883.65	14499.45
883.831	14900.85
884.011	14863.99
884.192	14364.28
884.373	14855.79
884.553	14954.1
884.734	14534.26
884.914	15038.06
885.095	15408.75
885.275	15271.53
885.456	14884.47
885.636	14454.39
885.817	14857.84
885.997	14950
886.178	14863.99
886.358	14769.78
886.538	14872.18
886.719	16049.76
886.899	14581.37
887.08	15015.54
887.26	15345.26
887.44	14816.88
887.621	14483.06
887.801	14730.87
887.981	15371.88
888.161	15117.93
888.342	14823.03
888.522	14796.4
888.702	15371.88
888.882	15453.8
889.062	14892.66
889.242	14677.62
889.423	15507.05
889.603	15486.57
889.783	15199.85
889.963	14950
890.143	15472.23
890.323	15316.59
890.503	15085.17
890.683	15062.64
890.863	15351.4
891.043	15275.63
891.223	15199.85
891.403	15062.64
891.583	15251.05
891.763	15232.62
891.943	15038.06
892.122	14739.06
892.302	15416.94
892.482	15375.98
892.662	15085.17
892.842	15095.41
893.022	15091.31
893.201	15322.73
893.381	15070.83
893.561	14900.85
893.741	15572.58
893.92	15257.2
894.1	15105.65
894.28	15158.89
894.459	15539.82
894.639	15537.77
894.819	14960.24
894.998	15351.4
895.178	15298.16
895.357	15484.52
895.537	15167.09
895.716	14767.73
895.896	15287.92
896.075	15810.15
896.255	14872.18
896.434	14872.18
896.614	15396.46
896.793	15799.91
896.973	14943.86
897.152	14884.47
897.331	15332.97
897.511	15595.11
897.69	14945.91
897.87	15230.57
898.049	15515.24
898.228	15142.51
898.407	15054.45
898.587	14863.99
898.766	15005.3
898.945	15242.86
899.124	14972.53
899.304	14839.41
899.483	15193.71
899.662	15410.79
899.841	14820.98
900.02	14777.97
900.199	15470.19
900.378	15351.4
900.557	14771.83
900.737	14777.97
900.916	14976.62
901.095	15298.16
901.274	15054.45
901.453	14601.85
901.632	14597.75
901.811	14638.71
901.989	14720.63
902.168	14593.65
902.347	15216.24
902.526	14771.83
902.705	14542.46
902.884	14749.3
903.063	15218.29
903.242	15076.98
903.42	14610.04
903.599	14509.69
903.778	14734.96
903.957	15199.85
904.135	14634.61
904.314	14458.49
904.493	14923.38
904.672	14855.79
904.85	14505.59
905.029	14438.01
905.207	14569.08
905.386	15232.62
905.565	14132.86
905.743	14464.63
905.922	14337.66
906.1	14618.23
906.279	14157.44
906.457	14347.9
906.636	14536.31
906.814	14564.98
906.993	14081.66
907.171	14175.87
907.35	14696.05
907.528	14573.17
907.707	14302.84
907.885	13868.67
908.063	14562.94
908.242	14028.42
908.42	13911.68
908.598	13637.25
908.777	14438.01
908.955	13991.55
909.133	13878.91
909.311	13774.47
909.49	13803.14
909.668	14108.29
909.846	13645.45
910.024	13680.26
910.202	13926.02
910.38	14147.2
910.559	13332.11
910.737	13690.5
910.915	13885.06
911.093	13801.09
911.271	13459.08
911.449	13758.08
911.627	13794.95
911.805	14200.44
911.983	13452.94
912.161	13178.51
912.339	13856.39
912.517	13813.38
912.695	13229.71
912.872	12981.9
913.05	13303.43
913.228	13485.7
913.406	13233.8
913.584	12908.18
913.762	13665.92
913.939	13350.54
914.117	12973.71
914.295	12928.66
914.473	13309.58
914.65	13364.87
914.828	12942.99
915.006	12789.39
915.184	12803.73
915.361	12967.57
915.539	12918.42
915.716	12932.75
915.894	12869.26
916.072	13119.12
916.249	12674.71
916.427	12881.55
916.604	12687
916.782	13266.57
916.959	12725.91
917.137	12656.28
917.314	13069.97
917.492	12998.29
917.669	12463.77
917.847	12723.86
918.024	12805.78
918.201	12347.03
918.379	12545.69
918.556	12299.93
918.733	12662.42
918.911	12211.87
919.088	12594.84
919.265	12312.22
919.442	12521.11
919.62	12541.59
919.797	11980.45
919.974	11816.61
920.151	12218.01
920.328	12291.74
920.506	11830.94
920.683	12152.48
920.86	11951.77
921.037	11876
921.214	11746.98
921.391	11718.31
921.568	12066.46
921.745	11716.26
921.922	11572.9
922.099	11294.38
922.276	12056.22
922.453	11980.45
922.63	11458.21
922.807	11638.44
922.984	11894.43
923.161	11536.04
923.338	11222.7
923.514	11407.02
923.691	11605.67
923.868	11579.04
924.045	11253.42
924.222	11251.37
924.399	11540.13
924.575	11488.93
924.752	11136.68
924.929	11026.09
925.105	11349.67
925.282	11067.05
925.459	10909.36
925.635	11198.12
925.812	11185.83
925.989	10940.08
926.165	10827.44
926.342	10659.51
926.518	10700.47
926.695	10882.74
926.871	10690.23
927.048	10520.24
927.224	11081.39
927.401	10690.23
927.577	10657.46
927.754	10342.07
927.93	10874.54
928.107	11030.19
928.283	10370.74
928.459	10493.62
928.636	10538.68
928.812	10276.54
928.988	10090.17
929.165	10170.04
929.341	10249.91
929.517	10350.26
929.693	10254.01
929.87	9707.2
930.046	10288.82
930.222	9873.09
930.398	9690.82
930.574	9889.47
930.751	9926.33
930.927	9770.69
931.103	9582.28
931.279	9555.65
931.455	9553.6
931.631	10000.06
931.807	9252.55
931.983	9359.05
932.159	9287.37
932.335	9445.06
932.511	9346.76
932.687	8947.4
932.863	9658.05
933.039	9283.27
933.215	8908.49
933.391	8789.71
933.566	8971.98
933.742	9010.89
933.918	8785.62
934.094	8515.28
934.27	9062.09
934.445	8767.18
934.621	8597.2
934.797	8474.32
934.973	8672.98
935.148	8720.08
935.324	8124.12
935.5	7763.68
935.675	8503
935.851	8337.11
936.027	7812.83
936.202	7786.21
936.378	8060.63
936.553	7788.25
936.729	7966.43
936.904	7411.43
937.08	7112.42
937.255	7081.71
937.431	6921.96
937.606	6850.28
937.782	6991.59
937.957	7204.58
938.133	6635.25
938.308	6397.68
938.483	6553.33
938.659	6250.23
938.834	6260.47
939.009	6153.98
939.185	6188.79
939.36	6041.34
939.535	5598.98
939.71	5979.9
939.886	6115.06
940.061	6205.17
940.236	5828.35
940.411	5648.13
940.586	5928.7
940.761	5836.54
940.937	5340.93
941.112	5263.11
941.287	5709.57
941.462	5574.4
941.637	4988.68
941.812	5074.7
941.987	5328.64
942.162	5328.64
942.337	5074.7
942.512	4867.85
942.687	5320.45
942.862	5277.44
943.037	4761.36
943.212	4513.55
943.386	4970.25
943.561	5238.53
943.736	4816.65
943.911	5007.11
944.086	5064.46
944.26	4865.8
944.435	4714.25
944.61	4589.33
944.785	5058.31
944.959	5345.03
945.134	4618
945.309	4634.38
945.483	4695.82
945.658	4980.49
945.833	4302.61
946.007	4439.83
946.182	5224.2
946.357	4407.06
946.531	4378.39
946.706	4458.26
946.88	4407.06
947.055	4865.8
947.229	4538.13
947.404	4542.22
947.578	5033.74
947.752	4701.97
947.927	4433.68
948.101	4337.43
948.276	4802.32
948.45	4787.98
948.624	4654.86
948.799	4382.48
948.973	4808.46
949.147	4566.8
949.321	4697.87
949.496	4505.36
949.67	5207.81
949.844	4632.33
950.018	4550.42
950.193	4521.74
950.367	5254.92
950.541	4755.21
950.715	4820.75
950.889	4734.73
951.063	4771.6
951.237	4857.61
951.411	4364.05
951.585	4349.71
951.759	4810.51
951.933	4708.11
952.107	4599.57
952.281	4861.71
952.455	5132.04
952.629	4871.95
952.803	4468.5
952.977	4392.72
953.151	4919.05
953.325	4943.63
953.499	4656.91
953.672	4243.22
953.846	4759.31
954.02	4658.96
954.194	4480.78
954.368	4491.02
954.541	4863.76
954.715	4751.12
954.889	4601.62
955.062	4359.95
955.236	4767.5
955.41	4529.94
955.583	4546.32
955.757	4263.7
955.93	4448.02
956.104	4316.95
956.278	4394.77
956.451	4362
956.625	4867.85
956.798	5093.13
956.972	4579.09
957.145	4368.15
957.319	4751.12
957.492	4675.34
957.665	4718.35
957.839	4380.43
958.012	4652.81
958.185	4499.22
958.359	4566.8
958.532	4521.74
958.705	4751.12
958.879	4642.57
959.052	4425.49
959.225	4106.01
959.398	4648.72
959.572	4706.06
959.745	4411.15
959.918	4402.96
960.091	4505.36
960.264	4656.91
960.438	4159.25
960.611	4134.68
960.784	4785.93
960.957	4419.35
961.13	4730.64
961.303	4095.77
961.476	4564.75
961.649	4720.4
961.822	4034.33
961.995	4364.05
962.168	4646.67
962.341	4550.42
962.514	4280.08
962.686	4257.56
962.859	4534.03
963.032	4620.05
963.205	4144.92
963.378	4048.66
963.551	4579.09
963.723	4441.87
963.896	4327.19
964.069	4331.28
964.242	4505.36
964.414	4744.97
964.587	4304.66
964.76	4341.52
964.932	4488.98
965.105	4374.29
965.278	4153.11
965.45	4128.53
965.623	4417.3
965.795	4591.38
965.968	4251.41
966.14	4189.97
966.313	4124.44
966.485	4493.07
966.658	4067.1
966.83	4022.04
967.003	4521.74
967.175	4540.18
967.348	4239.12
967.52	4030.23
967.692	4794.12
967.865	4419.35
968.037	4044.57
968.209	4419.35
968.382	4329.24
968.554	4550.42
968.726	4073.24
968.898	3864.35
969.071	4491.02
969.243	4402.96
969.415	3944.22
969.587	4189.97
969.759	4806.41
969.932	4398.87
970.104	4040.47
970.276	3837.72
970.448	4165.4
970.62	4032.28
970.792	3958.55
970.964	4095.77
971.136	4624.14
971.308	4321.04
971.48	3915.55
971.652	3985.18
971.824	4464.4
971.996	4153.11
972.168	3788.57
972.339	3946.27
972.511	4433.68
972.683	4052.76
972.855	4204.31
973.027	3976.98
973.199	4140.82
973.37	4226.84
973.542	4005.66
973.714	4038.42
973.886	3997.46
974.057	4390.67
974.229	3749.66
974.401	3774.24
974.572	3829.53
974.744	3600.16
974.915	3759.9
975.087	3663.65
975.259	4378.39
975.43	3874.59
975.602	3729.18
975.773	3729.18
975.945	3608.35
976.116	4058.9
976.288	3843.87
976.459	3899.16
976.63	3878.68
976.802	4011.8
976.973	3505.95
977.145	3872.54
977.316	4304.66
977.487	3870.49
977.659	3731.23
977.83	3782.43
978.001	4415.25
978.172	3940.12
978.344	3448.61
978.515	3671.84
978.686	3766.04
978.857	4249.36
979.028	3583.77
979.2	3430.18
979.371	4128.53
979.542	3690.27
979.713	3647.26
979.884	3108.65
980.055	3612.45
980.226	3682.08
980.397	3464.99
980.568	3376.93
980.739	4015.9
980.91	3639.07
981.081	3788.57
981.252	3518.24
981.423	3839.77
981.594	3835.67
981.765	3305.25
981.936	3577.63
982.106	3811.1
982.277	3927.83
982.448	3329.83
982.619	3526.43
982.79	3442.46
982.96	3964.7
983.131	3438.37
983.302	3157.8
983.472	3434.27
983.643	3551.01
983.814	3403.55
983.984	3272.48
984.155	3376.93
984.326	3788.57
984.496	3362.59
984.667	3239.72
984.837	3258.15
985.008	3850.01
985.178	3501.86
985.349	3288.87
985.519	3508
985.69	3311.39
985.86	3317.54
986.031	3206.95
986.201	3393.31
986.371	3614.49
986.542	3170.08
986.712	2961.19
986.882	3577.63
987.053	3575.58
987.223	3075.88
987.393	3295.01
987.563	3378.98
987.734	3551.01
987.904	3520.29
988.074	3149.61
988.244	3397.41
988.414	3215.14
988.585	3206.95
988.755	3295.01
988.925	3301.15
989.095	3907.35
989.265	3133.22
989.435	3215.14
989.605	3321.63
989.775	3317.54
989.945	3221.28
990.115	3155.75
990.285	3295.01
990.455	3378.98
990.625	3106.6
990.795	2846.51
990.965	3641.12
991.134	3071.78
991.304	2866.99
991.474	2899.75
991.644	3303.2
991.814	3616.54
991.984	2877.23
992.153	2797.35
992.323	3143.46
992.493	3215.14
992.662	2723.63
992.832	2998.06
993.002	3112.74
993.171	3278.63
993.341	2641.71
993.511	3010.34
993.68	2914.09
993.85	3401.51
994.019	2660.14
994.189	2666.28
994.358	3004.2
994.528	2850.6
994.697	2551.6
994.867	2576.17
995.036	3161.89
995.206	2889.51
995.375	2746.16
995.544	2866.99
995.714	3108.65
995.883	2985.77
996.052	2879.27
996.222	2436.91
996.391	3481.38
996.56	3053.35
996.73	2645.8
996.899	2582.32
997.068	3323.68
997.237	2848.55
997.406	2592.56
997.576	2381.62
997.745	2772.78
997.914	2957.1
998.083	2275.12
998.252	2541.36
998.421	2862.89
998.59	2660.14
998.759	2406.19
998.928	2398
999.097	3059.49
999.266	3010.34
999.435	2619.18
999.604	2328.37
999.773	3241.76
999.942	2813.74
1000.111	2457.39
1000.28	2367.28
1000.448	2613.04
1000.617	2543.41
1000.786	2709.29
1000.955	2402.1
1001.124	2957.1
1001.292	3421.99
1001.461	2453.3
1001.63	2264.88
1001.798	3014.44
1001.967	3016.49
1002.136	2223.92
1002.304	2236.21
1002.473	2789.16
1002.642	2797.35
1002.81	2318.13
1002.979	2322.23
1003.147	2633.52
1003.316	3157.8
1003.484	2244.4
1003.653	2055.99
1003.821	2807.59
1003.99	2494.26
1004.158	2389.81
1004.327	2381.62
1004.495	2733.87
1004.663	2289.46
1004.832	2363.19
1005	2088.76
1005.168	2760.49
1005.337	2590.51
1005.505	2142
1005.673	2342.71
1005.842	2596.65
1006.01	2666.28
1006.178	2043.7
1006.346	2131.76
1006.514	2709.29
1006.683	2670.38
1006.851	2064.18
1007.019	1873.72
1007.187	2223.92
1007.355	2031.41
1007.523	1978.17
1007.691	2027.32
1007.859	2066.23
1008.027	2527.02
1008.195	2103.09
1008.363	2041.65
1008.531	2584.37
1008.699	2105.14
1008.867	2015.03
1009.035	2008.89
1009.203	2719.53
1009.37	2486.06
1009.538	2164.53
1009.706	2367.28
1009.874	2389.81
1010.042	2250.55
1010.209	1802.04
1010.377	1961.78
1010.545	2504.5
1010.713	2285.36
1010.88	2002.74
1011.048	1969.98
1011.216	2121.52
1011.383	2486.06
1011.551	1890.1
1011.718	1765.18
1011.886	2365.23
1012.054	2246.45
1012.221	1888.06
1012.389	1869.62
1012.556	2021.17
1012.724	2539.31
1012.891	1812.28
1013.058	1683.26
1013.226	2391.86
1013.393	2299.7
1013.561	1558.33
1013.728	1589.05
1013.895	2387.76
1014.063	2250.55
1014.23	1613.63
1014.397	1713.98
1014.565	2316.08
1014.732	2121.52
1014.899	1681.21
1015.066	1587.01
1015.233	2037.56
1015.401	2223.92
1015.568	1724.22
1015.735	1802.04
1015.902	2125.62
1016.069	2058.04
1016.236	1656.64
1016.403	1601.34
1016.57	1804.09
1016.737	2133.81
1016.904	1595.2
1017.071	1470.27
1017.238	1867.58
1017.405	2109.24
1017.572	1681.21
1017.739	1769.27
1017.906	2142
1018.073	2258.74
1018.24	1599.29
1018.407	1580.86
1018.573	2107.19
1018.74	1871.67
1018.907	1578.81
1019.074	1490.75
1019.241	2092.85
1019.407	1922.87
1019.574	1447.74
1019.741	1425.22
1019.907	1926.97
1020.074	2076.47
1020.241	1244.99
1020.407	1412.93
1020.574	1953.59
1020.74	1937.21
1020.907	1484.61
1021.073	1275.71
1021.24	2240.31
1021.406	2187.06
1021.573	1486.65
1021.739	1388.35
1021.906	1793.85
1022.072	1867.58
1022.239	1427.26
1022.405	1367.87
1022.571	1802.04
1022.738	1595.2
1022.904	1269.57
1023.07	1322.82
1023.237	1711.93
1023.403	2121.52
1023.569	1429.31
1023.735	1376.06
1023.902	1742.65
1024.068	1750.84
1024.234	1279.81
1024.4	1343.3
1024.566	1748.79
1024.732	1797.95
1024.898	1224.51
1025.065	1175.36
1025.231	1713.98
1025.397	1496.89
1025.563	1328.96
1025.729	1191.75
1025.895	1218.37
1026.061	1345.34
1026.227	1083.2
1026.392	1193.8
1026.558	1810.23
1026.724	1662.78
1026.89	1142.6
1027.056	1290.05
1027.222	1564.48
1027.388	1498.94
1027.553	1150.79
1027.719	1169.22
1027.885	1847.1
1028.051	1570.62
1028.216	960.33
1028.382	1228.61
1028.548	1769.27
1028.713	1406.78
1028.879	984.9
1029.045	1130.31
1029.21	1896.25
1029.376	1718.08
1029.541	1212.23
1029.707	1130.31
1029.873	1595.2
1030.038	1634.11
1030.204	1064.77
1030.369	1126.21
1030.534	1648.44
1030.7	1453.89
1030.865	1046.34
1031.031	1091.4
1031.196	1539.9
1031.361	1525.57
1031.527	989
1031.692	931.66
1031.857	1085.25
1032.023	1646.4
1032.188	964.42
1032.353	1042.25
1032.518	1683.26
1032.684	1546.05
1032.849	816.97
1033.014	921.42
1033.179	1480.51
1033.344	1503.04
1033.509	1085.25
1033.674	1019.72
1033.839	1427.26
1034.004	1519.42
1034.17	923.46
1034.335	917.32
1034.5	1263.43
1034.664	1183.56
1034.829	876.36
1034.994	894.79
1035.159	1249.09
1035.324	1382.21
1035.489	923.46
1035.654	878.41
1035.819	1496.89
1035.984	1331.01
1036.148	993.09
1036.313	792.39
1036.478	1515.33
1036.643	1316.67
1036.807	794.44
1036.972	835.4
1037.137	1589.05
1037.301	1150.79
1037.466	673.61
1037.631	1005.38
1037.795	1455.94
1037.96	1216.32
1038.124	1052.49
1038.289	698.19
1038.454	1347.39
1038.618	1335.1
1038.783	810.82
1038.947	931.66
1039.111	1191.75
1039.276	1185.6
1039.44	765.77
1039.605	1175.36
1039.769	1054.53
1039.933	1081.16
1040.098	917.32
1040.262	1036.1
1040.426	1386.3
1040.591	1273.67
1040.755	823.11
1040.919	718.67
1041.083	1240.9
1041.248	1158.98
1041.412	622.41
1041.576	597.84
1041.74	1179.46
1041.904	1359.68
1042.068	657.23
1042.232	763.72
1042.397	1349.44
1042.561	1148.74
1042.725	483.15
1042.889	874.31
1043.053	1392.45
1043.217	1154.88
1043.381	769.87
1043.544	477.01
1043.708	1349.44
1043.872	773.96
1044.036	503.63
1044.2	565.07
1044.364	1402.69
1044.528	1353.54
1044.691	3985.18
1044.855	450.38
1045.019	1234.75
1045.183	1224.51
1045.346	667.47
1045.51	552.78
1045.674	1105.73
1045.837	1103.68
1046.001	616.27
1046.165	612.17
1046.328	1511.23
1046.492	1197.89
1046.655	704.33
1046.819	630.6
1046.983	827.21
1047.146	1103.68
1047.31	675.66
1047.473	388.94
1047.636	913.22
1047.8	741.19
1047.963	606.03
1048.127	503.63
1048.29	683.85
