Data from Ink_Intensity_USB4F045381__198__00198.txt Node

Date: Mon Jul 17 11:48:18 EDT 2023
User: mmckonesweet
Spectrometer: USB4F04538
Trigger mode: 4
Integration Time (sec): 9.000000E-1
Scans to average: 1
Electric dark correction enabled: true
Nonlinearity correction enabled: false
Boxcar width: 0
XAxis mode: Wavelengths
Number of Pixels in Spectrum: 3648
>>>>>Begin Spectral Data<<<<<
345.52	-1029.45
345.736	-1029.45
345.952	-1029.45
346.168	-1060.17
346.384	-1054.02
346.6	-200.02
346.816	-232.79
347.032	-257.36
347.248	389.8
347.464	-193.87
347.68	-134.48
347.896	72.36
348.112	412.32
348.328	-71
348.544	-66.9
348.76	12.97
348.975	268.97
349.191	-341.33
349.407	-232.79
349.623	-54.61
349.839	-73.04
350.055	-169.3
350.27	43.69
350.486	92.84
350.702	354.98
350.918	180.9
351.133	-183.63
351.349	185
351.565	379.56
351.781	-271.7
351.996	-32.08
352.212	258.73
352.428	-91.48
352.644	-251.22
352.859	-247.12
353.075	311.97
353.291	21.16
353.506	-202.07
353.722	-247.12
353.938	-171.35
354.153	334.5
354.369	51.88
354.584	-230.74
354.8	350.89
355.016	-247.12
355.231	-236.88
355.447	-85.33
355.662	90.79
355.878	735.9
356.093	-353.62
356.309	-32.08
356.524	-304.46
356.74	293.54
356.955	-281.94
357.171	-66.9
357.386	160.42
357.602	-210.26
357.817	-101.72
358.033	-171.35
358.248	303.78
358.464	109.23
358.679	-161.11
358.895	-386.38
359.11	-32.08
359.325	283.3
359.541	-36.18
359.756	-87.38
359.972	-236.88
360.187	203.43
360.402	-234.83
360.618	-208.21
360.833	907.93
361.048	60.07
361.264	-85.33
361.479	-95.57
361.694	-46.42
361.909	182.95
362.125	-189.78
362.34	-165.2
362.555	268.97
362.77	68.27
362.986	-374.1
363.201	-181.59
363.416	211.62
363.631	2.73
363.847	-218.45
364.062	-120.15
364.277	185
364.492	17.07
364.707	-298.32
364.922	-410.96
365.138	191.14
365.353	299.69
365.568	-224.59
365.783	-206.16
365.998	119.46
366.213	522.91
366.428	-232.79
366.643	-7.51
366.858	68.27
367.073	207.53
367.288	-140.63
367.503	-312.66
367.718	98.99
367.933	316.07
368.148	-386.38
368.363	-111.96
368.578	-5.46
368.793	395.94
369.008	-165.2
369.223	-275.79
369.438	158.38
369.653	277.16
369.868	-374.1
370.083	-277.84
370.298	76.46
370.513	379.56
370.728	12.97
370.943	-165.2
371.157	-165.2
371.372	567.97
371.587	-361.81
371.802	-306.51
372.017	33.45
372.232	344.74
372.446	-48.47
372.661	-333.14
372.876	203.43
373.091	92.84
373.306	-93.52
373.52	-302.42
373.735	-202.07
373.95	430.76
374.165	-144.72
374.379	-171.35
374.594	-216.4
374.809	66.22
375.023	35.5
375.238	-271.7
375.453	158.38
375.667	-296.27
375.882	-218.45
376.097	-224.59
376.311	10.92
376.526	-91.48
376.741	-214.35
376.955	64.17
377.17	563.87
377.384	500.39
377.599	-148.82
377.813	-288.08
378.028	615.07
378.242	78.51
378.457	-111.96
378.672	-384.34
378.886	-21.84
379.101	2.73
379.315	-357.71
379.53	-214.35
379.744	92.84
379.958	96.94
380.173	-152.91
380.387	-226.64
380.602	115.37
380.816	-206.16
381.031	-159.06
381.245	-210.26
381.459	178.86
381.674	2591.36
381.888	-236.88
382.103	21.16
382.317	-238.93
382.531	438.95
382.746	-103.76
382.96	-240.98
383.174	-128.34
383.388	477.86
383.603	6.83
383.817	-294.22
384.031	191.14
384.246	387.75
384.46	-17.75
384.674	285.35
384.888	-73.04
385.103	-9.56
385.317	-300.37
385.531	-58.71
385.745	340.65
385.959	268.97
386.174	-236.88
386.388	-316.75
386.602	23.21
386.816	-150.87
387.03	-54.61
387.244	-173.39
387.458	-21.84
387.672	344.74
387.887	-322.9
388.101	-396.62
388.315	281.25
388.529	170.66
388.743	-197.97
388.957	-349.52
389.171	320.17
389.385	-216.4
389.599	-128.34
389.813	-5.46
390.027	148.14
390.241	555.68
390.455	-128.34
390.669	-161.11
390.883	-181.59
391.097	348.84
391.311	-25.94
391.525	-214.35
391.738	127.66
391.952	125.61
392.166	-87.38
392.38	-247.12
392.594	215.72
392.808	342.69
393.022	-165.2
393.236	-214.35
393.449	164.52
393.663	98.99
393.877	-218.45
394.091	-175.44
394.305	-165.2
394.518	-126.29
394.732	-302.42
394.946	-167.25
395.16	397.99
395.373	51.88
395.587	-245.07
395.801	-220.5
396.015	201.38
396.228	217.77
396.442	-331.09
396.656	-390.48
396.869	334.5
397.083	381.6
397.297	-62.8
397.51	-200.02
397.724	297.64
397.938	-5.46
398.151	-326.99
398.365	-347.47
398.578	176.81
398.792	350.89
399.005	-46.42
399.219	-120.15
399.433	123.56
399.646	129.7
399.86	43.69
400.073	6.83
400.287	168.62
400.5	-46.42
400.714	-77.14
400.927	-62.8
401.141	260.77
401.354	1051.29
401.567	168.62
401.781	-320.85
401.994	223.91
402.208	602.79
402.421	-163.15
402.635	-101.72
402.848	-19.8
403.061	260.77
403.275	-132.44
403.488	-298.32
403.701	524.96
403.915	172.71
404.128	-42.32
404.341	-181.59
404.555	207.53
404.768	-30.04
404.981	-9.56
405.195	-191.83
405.408	377.51
405.621	193.19
405.834	-46.42
406.048	-263.51
406.261	395.94
406.474	377.51
406.687	-290.13
406.9	-111.96
407.114	-13.65
407.327	230.06
407.54	-349.52
407.753	-324.94
407.966	-167.25
408.179	215.72
408.392	-263.51
408.605	-396.62
408.819	129.7
409.032	62.12
409.245	-324.94
409.458	35.5
409.671	203.43
409.884	256.68
410.097	-275.79
410.31	-15.7
410.523	150.18
410.736	-101.72
410.949	-132.44
411.162	-169.3
411.375	383.65
411.588	246.44
411.801	-54.61
412.014	-204.11
412.227	-71
412.44	-136.53
412.653	-251.22
412.865	-64.85
413.078	266.92
413.291	172.71
413.504	-130.39
413.717	-204.11
413.93	182.95
414.143	-167.25
414.356	-169.3
414.568	-370
414.781	279.21
414.994	84.65
415.207	-157.01
415.42	-138.58
415.632	244.39
415.845	488.1
416.058	-355.66
416.271	-361.81
416.483	37.55
416.696	502.44
416.909	-251.22
417.121	-220.5
417.334	178.86
417.547	572.07
417.759	-251.22
417.972	-257.36
418.185	-107.86
418.397	182.95
418.61	-271.7
418.823	-169.3
419.035	400.04
419.248	68.27
419.46	-150.87
419.673	-134.48
419.885	146.09
420.098	-93.52
420.311	-267.6
420.523	-453.97
420.736	199.34
420.948	35.5
421.161	-193.87
421.373	-443.73
421.586	113.32
421.798	-120.15
422.01	-390.48
422.223	-75.09
422.435	-87.38
422.648	185
422.86	-210.26
423.073	-228.69
423.285	268.97
423.497	-261.46
423.71	-230.74
423.922	-271.7
424.134	105.13
424.347	328.36
424.559	-48.47
424.771	47.79
424.984	-5.46
425.196	90.79
425.408	-410.96
425.621	-312.66
425.833	287.4
426.045	316.07
426.257	-329.04
426.47	-195.92
426.682	101.03
426.894	141.99
427.106	-253.27
427.318	-185.68
427.531	-175.44
427.743	250.53
427.955	-232.79
428.167	244.39
428.379	47.79
428.591	-79.19
428.804	-177.49
429.016	-281.94
429.228	-5.46
429.44	74.41
429.652	-87.38
429.864	-439.63
430.076	-50.52
430.288	-60.76
430.5	-107.86
430.712	-116.05
430.924	211.62
431.136	90.79
431.348	-421.2
431.56	-238.93
431.772	17.07
431.984	-107.86
432.196	-257.36
432.408	-193.87
432.62	-126.29
432.832	70.31
433.044	60.07
433.256	-107.86
433.468	174.76
433.679	-365.9
433.891	-292.18
434.103	-30.04
434.315	424.61
434.527	201.38
434.739	-173.39
434.95	-232.79
435.162	172.71
435.374	-140.63
435.586	-116.05
435.798	-238.93
436.009	-261.46
436.221	-85.33
436.433	-161.11
436.645	-148.82
436.856	-191.83
437.068	256.68
437.28	-288.08
437.491	23.21
437.703	115.37
437.915	37.55
438.126	-267.6
438.338	45.74
438.55	-21.84
438.761	170.66
438.973	-171.35
439.184	-204.11
439.396	-30.04
439.608	193.19
439.819	-370
440.031	-116.05
440.242	219.82
440.454	96.94
440.665	-304.46
440.877	-99.67
441.088	178.86
441.3	-9.56
441.511	-501.07
441.723	-300.37
441.934	117.42
442.146	-23.89
442.357	-91.48
442.569	103.08
442.78	86.7
442.991	365.22
443.203	55.98
443.414	-294.22
443.626	334.5
443.837	-204.11
444.048	-222.55
444.26	-429.39
444.471	78.51
444.682	230.06
444.894	-464.21
445.105	-390.48
445.316	266.92
445.528	223.91
445.739	-54.61
445.95	-193.87
446.161	37.55
446.373	258.73
446.584	-175.44
446.795	-165.2
447.006	193.19
447.217	473.76
447.429	-394.58
447.64	-275.79
447.851	248.49
448.062	-25.94
448.273	-296.27
448.484	-288.08
448.695	174.76
448.907	-23.89
449.118	-169.3
449.329	2.73
449.54	-91.48
449.751	-210.26
449.962	-257.36
450.173	-200.02
450.384	281.25
450.595	316.07
450.806	-181.59
451.017	-163.15
451.228	318.12
451.439	223.91
451.65	-210.26
451.861	-476.49
452.072	-181.59
452.283	60.07
452.494	-58.71
452.705	-249.17
452.915	406.18
453.126	27.31
453.337	-263.51
453.548	-324.94
453.759	295.59
453.97	516.77
454.181	70.31
454.391	-247.12
454.602	12.97
454.813	60.07
455.024	-222.55
455.235	-294.22
455.445	35.5
455.656	60.07
455.867	-7.51
456.078	-175.44
456.288	-111.96
456.499	60.07
456.71	-296.27
456.921	-23.89
457.131	158.38
457.342	103.08
457.553	-161.11
457.763	-273.75
457.974	201.38
458.184	170.66
458.395	-279.89
458.606	-382.29
458.816	293.54
459.027	391.84
459.237	-152.91
459.448	-347.47
459.659	303.78
459.869	637.6
460.08	-431.44
460.29	-105.81
460.501	389.8
460.711	-120.15
460.922	-394.58
461.132	-300.37
461.343	725.66
461.553	-306.51
461.764	-306.51
461.974	-245.07
462.184	246.44
462.395	17.07
462.605	-183.63
462.816	-324.94
463.026	6.83
463.236	268.97
463.447	-324.94
463.657	-261.46
463.867	195.24
464.078	-150.87
464.288	-169.3
464.498	-316.75
464.709	27.31
464.919	6.83
465.129	-222.55
465.339	-341.33
465.55	94.89
465.76	248.49
465.97	-308.56
466.18	-304.46
466.391	129.7
466.601	101.03
466.811	-159.06
467.021	-333.14
467.231	72.36
467.441	277.16
467.651	-277.84
467.862	-521.55
468.072	-68.95
468.282	322.21
468.492	-310.61
468.702	-159.06
468.912	-46.42
469.122	555.68
469.332	27.31
469.542	-335.18
469.752	215.72
469.962	-5.46
470.172	-335.18
470.382	-322.9
470.592	185
470.802	371.37
471.012	-130.39
471.222	-306.51
471.432	223.91
471.642	205.48
471.852	-130.39
472.062	-329.04
472.272	-15.7
472.482	-296.27
472.691	-357.71
472.901	-349.52
473.111	10.92
473.321	518.82
473.531	-288.08
473.741	-140.63
473.95	105.13
474.16	191.14
474.37	-238.93
474.58	-431.44
474.79	463.52
474.999	189.1
475.209	-347.47
475.419	-228.69
475.628	-91.48
475.838	305.83
476.048	-161.11
476.258	-357.71
476.467	273.06
476.677	-107.86
476.886	-19.8
477.096	-169.3
477.306	-120.15
477.515	354.98
477.725	-208.21
477.935	-259.41
478.144	316.07
478.354	-111.96
478.563	-267.6
478.773	-320.85
478.982	180.9
479.192	252.58
479.401	-157.01
479.611	-288.08
479.82	-288.08
480.03	84.65
480.239	-255.31
480.449	-292.18
480.658	406.18
480.868	-193.87
481.077	-167.25
481.287	-265.55
481.496	172.71
481.705	307.88
481.915	-44.37
482.124	-42.32
482.333	37.55
482.543	357.03
482.752	-124.24
482.961	-273.75
483.171	176.81
483.38	-54.61
483.589	-171.35
483.799	-365.9
484.008	-40.28
484.217	187.05
484.426	-193.87
484.636	-386.38
484.845	92.84
485.054	-298.32
485.263	84.65
485.472	-290.13
485.682	395.94
485.891	2.73
486.1	-439.63
486.309	-394.58
486.518	156.33
486.727	367.27
486.936	-310.61
487.146	-128.34
487.355	346.79
487.564	-183.63
487.773	-294.22
487.982	-355.66
488.191	-111.96
488.4	-19.8
488.609	-200.02
488.818	-234.83
489.027	494.24
489.236	371.37
489.445	-265.55
489.654	-326.99
489.863	185
490.072	45.74
490.281	47.79
490.49	-294.22
490.698	346.79
490.907	365.22
491.116	-247.12
491.325	-429.39
491.534	266.92
491.743	35.5
491.952	-175.44
492.16	-185.68
492.369	160.42
492.578	230.06
492.787	-210.26
492.996	-456.01
493.204	-191.83
493.413	420.52
493.622	-533.84
493.831	-427.34
494.039	283.3
494.248	-200.02
494.457	-243.03
494.665	-406.86
494.874	148.14
495.083	441
495.291	-175.44
495.5	-382.29
495.709	131.75
495.917	29.35
496.126	-161.11
496.335	-283.98
496.543	-58.71
496.752	80.55
496.96	15.02
497.169	-433.49
497.377	15.02
497.586	326.31
497.794	-142.68
498.003	-468.3
498.211	-27.99
498.42	338.6
498.628	-169.3
498.837	-398.67
499.045	207.53
499.254	66.22
499.462	-279.89
499.671	-357.71
499.879	375.46
500.087	242.34
500.296	-238.93
500.504	-163.15
500.713	70.31
500.921	567.97
501.129	-263.51
501.338	-310.61
501.546	68.27
501.754	62.12
501.962	-206.16
502.171	-353.62
502.379	119.46
502.587	430.76
502.795	-214.35
503.004	-304.46
503.212	-1.37
503.42	223.91
503.628	-279.89
503.837	-124.24
504.045	148.14
504.253	404.13
504.461	-386.38
504.669	-408.91
504.877	111.27
505.085	365.22
505.294	-425.29
505.502	-105.81
505.71	-38.23
505.918	205.48
506.126	-333.14
506.334	-314.7
506.542	-120.15
506.75	0.68
506.958	-193.87
507.166	-243.03
507.374	-136.53
507.582	455.33
507.79	-218.45
507.998	-398.67
508.206	164.52
508.414	111.27
508.622	-296.27
508.83	-165.2
509.037	441
509.245	-111.96
509.453	-378.19
509.661	-300.37
509.869	164.52
510.077	-111.96
510.285	-173.39
510.492	-609.61
510.7	598.69
510.908	-91.48
511.116	-259.41
511.324	-318.8
511.531	12.97
511.739	76.46
511.947	-122.2
512.155	2.73
512.362	111.27
512.57	-263.51
512.778	-275.79
512.985	-427.34
513.193	193.19
513.401	324.26
513.608	-263.51
513.816	-288.08
514.024	144.04
514.231	307.88
514.439	-382.29
514.646	-247.12
514.854	268.97
515.061	250.53
515.269	-337.23
515.477	-324.94
515.684	-230.74
515.892	236.2
516.099	-349.52
516.307	-513.36
516.514	228.01
516.722	381.6
516.929	-243.03
517.136	-355.66
517.344	219.82
517.551	125.61
517.759	-288.08
517.966	-265.55
518.173	-103.76
518.381	4.78
518.588	-191.83
518.796	-365.9
519.003	125.61
519.21	23.21
519.418	-292.18
519.625	-7.51
519.832	39.59
520.039	84.65
520.247	-464.21
520.454	-271.7
520.661	150.18
520.868	105.13
521.076	-263.51
521.283	-296.27
521.49	641.7
521.697	92.84
521.904	-253.27
522.112	-218.45
522.319	193.19
522.526	119.46
522.733	-361.81
522.94	-367.95
523.147	23.21
523.354	203.43
523.561	-415.05
523.768	-210.26
523.975	182.95
524.183	90.79
524.39	-181.59
524.597	-357.71
524.804	-9.56
525.011	-144.72
525.218	-314.7
525.425	-349.52
525.632	283.3
525.838	-175.44
526.045	-288.08
526.252	-298.32
526.459	1030.81
526.666	776.86
526.873	-376.14
527.08	-286.03
527.287	320.17
527.494	219.82
527.701	-421.2
527.907	-329.04
528.114	205.48
528.321	-89.43
528.528	-324.94
528.735	-316.75
528.941	-27.99
529.148	-163.15
529.355	-251.22
529.562	-331.09
529.768	367.27
529.975	-11.61
530.182	-277.84
530.388	-306.51
530.595	266.92
530.802	-300.37
531.008	-193.87
531.215	-290.13
531.422	412.32
531.628	694.94
531.835	-222.55
532.042	-228.69
532.248	-62.8
532.455	39.59
532.661	-247.12
532.868	-253.27
533.074	60.07
533.281	258.73
533.487	-181.59
533.694	-345.42
533.9	-226.64
534.107	88.75
534.313	-314.7
534.52	-413.01
534.726	211.62
534.933	455.33
535.139	-386.38
535.345	-398.67
535.552	49.83
535.758	-68.95
535.965	-210.26
536.171	-218.45
536.377	191.14
536.584	379.56
536.79	-314.7
536.996	-185.68
537.203	33.45
537.409	199.34
537.615	-394.58
537.821	-202.07
538.028	96.94
538.234	203.43
538.44	-292.18
538.646	-193.87
538.853	119.46
539.059	-132.44
539.265	101.03
539.471	-517.45
539.677	232.1
539.883	-210.26
540.09	-300.37
540.296	152.23
540.502	35.5
540.708	-249.17
540.914	-146.77
541.12	-380.24
541.326	-9.56
541.532	-44.37
541.738	-157.01
541.944	-263.51
542.15	236.2
542.356	-42.32
542.562	-329.04
542.768	-247.12
542.974	522.91
543.18	469.67
543.386	-339.28
543.592	-517.45
543.798	334.5
544.004	236.2
544.21	-288.08
544.415	-206.16
544.621	96.94
544.827	230.06
545.033	-353.62
545.239	-44.37
545.445	-161.11
545.651	-9.56
545.856	-320.85
546.062	-357.71
546.268	-134.48
546.474	-30.04
546.679	-277.84
546.885	-273.75
547.091	-132.44
547.297	475.81
547.502	-298.32
547.708	-441.68
547.914	-294.22
548.119	98.99
548.325	-359.76
548.531	-349.52
548.736	379.56
548.942	-222.55
549.147	-326.99
549.353	15.02
549.559	293.54
549.764	121.51
549.97	-318.8
550.175	-245.07
550.381	117.42
550.586	-101.72
550.792	-361.81
550.997	-288.08
551.203	162.47
551.408	191.14
551.614	-496.97
551.819	-347.47
552.025	391.84
552.23	420.52
552.435	-353.62
552.641	-179.54
552.846	-167.25
553.052	297.64
553.257	-93.52
553.462	-294.22
553.668	-220.5
553.873	178.86
554.078	-357.71
554.283	-419.15
554.489	29.35
554.694	-54.61
554.899	-437.58
555.105	-103.76
555.31	131.75
555.515	195.24
555.72	-218.45
555.925	-392.53
556.131	221.86
556.336	-75.09
556.541	-357.71
556.746	-394.58
556.951	299.69
557.156	385.7
557.361	-183.63
557.567	-206.16
557.772	514.72
557.977	103.08
558.182	-288.08
558.387	-302.42
558.592	-161.11
558.797	268.97
559.002	-257.36
559.207	-183.63
559.412	-17.75
559.617	402.08
559.822	-357.71
560.027	-365.9
560.232	109.23
560.437	203.43
560.642	-431.44
560.847	-320.85
561.051	27.31
561.256	27.31
561.461	-216.4
561.666	-501.07
561.871	47.79
562.076	109.23
562.281	-275.79
562.485	-476.49
562.69	189.1
562.895	264.87
563.1	-267.6
563.305	-312.66
563.509	309.93
563.714	545.44
563.919	-279.89
564.123	-341.33
564.328	-3.41
564.533	232.1
564.737	-247.12
564.942	-326.99
565.147	338.6
565.351	496.29
565.556	-238.93
565.761	-146.77
565.965	31.4
566.17	-150.87
566.374	-283.98
566.579	-316.75
566.784	45.74
566.988	-101.72
567.193	-415.05
567.397	-265.55
567.602	-370
567.806	90.79
568.011	-247.12
568.215	-232.79
568.42	-54.61
568.624	-132.44
568.828	-333.14
569.033	-169.3
569.237	199.34
569.442	113.32
569.646	-427.34
569.85	-255.31
570.055	-54.61
570.259	60.07
570.463	-83.28
570.668	-273.75
570.872	-83.28
571.076	-36.18
571.281	-144.72
571.485	-275.79
571.689	2.73
571.893	125.61
572.098	-169.3
572.302	-312.66
572.506	133.8
572.71	-5.46
572.914	-263.51
573.119	-288.08
573.323	361.13
573.527	256.68
573.731	-312.66
573.935	-460.11
574.139	113.32
574.343	-232.79
574.547	-267.6
574.751	-259.41
574.955	320.17
575.159	273.06
575.364	-337.23
575.568	-449.87
575.772	-130.39
575.976	225.96
576.18	-300.37
576.383	-460.11
576.587	291.49
576.791	176.81
576.995	-523.6
577.199	-472.4
577.403	166.57
577.607	271.01
577.811	-443.73
578.015	-161.11
578.219	51.88
578.422	139.94
578.626	-306.51
578.83	-62.8
579.034	297.64
579.238	0.68
579.442	-370
579.645	35.5
579.849	-27.99
580.053	12.97
580.257	-286.03
580.46	-128.34
580.664	180.9
580.868	121.51
581.071	-52.56
581.275	-187.73
581.479	-331.09
581.682	223.91
581.886	-314.7
582.09	-257.36
582.293	189.1
582.497	182.95
582.7	-130.39
582.904	-345.42
583.107	-5.46
583.311	-103.76
583.515	-247.12
583.718	-157.01
583.922	109.23
584.125	404.13
584.329	-318.8
584.532	-103.76
584.735	365.22
584.939	51.88
585.142	-392.53
585.346	-390.48
585.549	84.65
585.753	-177.49
585.956	-298.32
586.159	-81.24
586.363	416.42
586.566	125.61
586.769	-251.22
586.973	-400.72
587.176	217.77
587.379	279.21
587.582	41.64
587.786	-21.84
587.989	-17.75
588.192	610.98
588.395	-259.41
588.599	86.7
588.802	146.09
589.005	129.7
589.208	-210.26
589.411	-288.08
589.615	256.68
589.818	365.22
590.021	19.11
590.224	-144.72
590.427	160.42
590.63	189.1
590.833	-490.83
591.036	-298.32
591.239	-44.37
591.442	-152.91
591.645	-157.01
591.848	-226.64
592.051	43.69
592.254	180.9
592.457	-191.83
592.66	-234.83
592.863	4.78
593.066	144.04
593.269	-247.12
593.472	-212.31
593.675	-206.16
593.878	240.3
594.081	-195.92
594.284	-310.61
594.486	172.71
594.689	8.87
594.892	-171.35
595.095	-245.07
595.298	70.31
595.5	-189.78
595.703	-157.01
595.906	-193.87
596.109	354.98
596.311	133.8
596.514	-544.08
596.717	-185.68
596.92	324.26
597.122	107.18
597.325	-490.83
597.528	-247.12
597.73	240.3
597.933	0.68
598.136	-318.8
598.338	-429.39
598.541	174.76
598.743	301.73
598.946	-281.94
599.148	-300.37
599.351	307.88
599.554	166.57
599.756	-107.86
599.959	-247.12
600.161	201.38
600.363	543.39
600.566	-7.51
600.768	-218.45
600.971	420.52
601.173	166.57
601.376	-263.51
601.578	-181.59
601.78	193.19
601.983	561.83
602.185	-275.79
602.388	-134.48
602.59	127.66
602.792	-109.91
602.995	-73.04
603.197	-283.98
603.399	281.25
603.601	121.51
603.804	-195.92
604.006	-308.56
604.208	4.78
604.41	-359.76
604.613	-124.24
604.815	-238.93
605.017	469.67
605.219	-109.91
605.421	101.03
605.623	-230.74
605.826	344.74
606.028	404.13
606.23	-312.66
606.432	-259.41
606.634	451.24
606.836	307.88
607.038	-363.86
607.24	-71
607.442	43.69
607.644	-75.09
607.846	-130.39
608.048	-290.13
608.25	346.79
608.452	-210.26
608.654	-286.03
608.856	-523.6
609.058	-91.48
609.26	117.42
609.462	-163.15
609.664	-265.55
609.866	457.38
610.067	225.96
610.269	-105.81
610.471	-134.48
610.673	4.78
610.875	191.14
611.077	-316.75
611.278	-38.23
611.48	64.17
611.682	477.86
611.884	-165.2
612.085	-161.11
612.287	-150.87
612.489	139.94
612.69	-367.95
612.892	-132.44
613.094	268.97
613.295	242.34
613.497	-361.81
613.699	-298.32
613.9	418.47
614.102	283.3
614.304	-261.46
614.505	-365.9
614.707	-25.94
614.908	19.11
615.11	-476.49
615.311	-169.3
615.513	162.47
615.714	187.05
615.916	-472.4
616.117	-157.01
616.319	82.6
616.52	209.58
616.722	-251.22
616.923	-193.87
617.124	248.49
617.326	193.19
617.527	-146.77
617.729	-48.47
617.93	158.38
618.131	291.49
618.333	-191.83
618.534	-150.87
618.735	-58.71
618.937	373.41
619.138	-394.58
619.339	-267.6
619.54	141.99
619.742	-21.84
619.943	-107.86
620.144	-163.15
620.345	307.88
620.546	295.59
620.748	-322.9
620.949	-218.45
621.15	68.27
621.351	125.61
621.552	-177.49
621.753	-437.58
621.954	-255.31
622.155	553.63
622.356	-378.19
622.558	-89.43
622.759	53.93
622.96	441
623.161	-275.79
623.362	-247.12
623.563	55.98
623.764	105.13
623.965	-210.26
624.166	-40.28
624.366	-52.56
624.567	78.51
624.768	-546.12
624.969	-265.55
625.17	-5.46
625.371	238.25
625.572	-189.78
625.773	-286.03
625.973	285.35
626.174	172.71
626.375	-71
626.576	-146.77
626.777	285.35
626.977	594.59
627.178	-212.31
627.379	-171.35
627.58	15.02
627.78	-42.32
627.981	-197.97
628.182	-109.91
628.382	299.69
628.583	-283.98
628.784	-341.33
628.984	-75.09
629.185	228.01
629.386	295.59
629.586	-177.49
629.787	-300.37
629.987	236.2
630.188	35.5
630.388	-169.3
630.589	-193.87
630.79	604.83
630.99	62.12
631.191	-148.82
631.391	-136.53
631.591	228.01
631.792	479.91
631.992	-46.42
632.193	-206.16
632.393	475.81
632.594	25.26
632.794	-175.44
632.994	-111.96
633.195	35.5
633.395	6.83
633.595	-243.03
633.796	4.78
633.996	-91.48
634.196	379.56
634.397	-333.14
634.597	-91.48
634.797	-21.84
634.997	402.08
635.198	39.59
635.398	-292.18
635.598	111.27
635.798	346.79
635.998	182.95
636.199	-253.27
636.399	-46.42
636.599	-191.83
636.799	-226.64
636.999	-15.7
637.199	150.18
637.399	373.41
637.599	-271.7
637.799	-75.09
637.999	-83.28
638.199	400.04
638.399	-236.88
638.599	-200.02
638.799	135.85
638.999	608.93
639.199	-38.23
639.399	-134.48
639.599	336.55
639.799	-157.01
639.999	-257.36
640.199	-292.18
640.399	51.88
640.599	92.84
640.799	-140.63
640.998	-44.37
641.198	361.13
641.398	201.38
641.598	-54.61
641.798	-210.26
641.997	1041.05
642.197	101.03
642.397	-38.23
642.597	-245.07
642.796	201.38
642.996	340.65
643.196	2.73
643.395	-302.42
643.595	158.38
643.795	-314.7
643.994	-169.3
644.194	-126.29
644.394	326.31
644.593	80.55
644.793	-372.05
644.992	-91.48
645.192	166.57
645.392	-359.76
645.591	-50.52
645.791	-154.96
645.99	234.15
646.19	109.23
646.389	-116.05
646.589	-212.31
646.788	283.3
646.987	195.24
647.187	121.51
647.386	2.73
647.586	29.35
647.785	344.74
647.984	-154.96
648.184	-109.91
648.383	-97.62
648.582	-81.24
648.782	-165.2
648.981	-13.65
649.18	-68.95
649.38	43.69
649.579	-230.74
649.778	-234.83
649.977	203.43
650.177	139.94
650.376	-177.49
650.575	-177.49
650.774	508.58
650.973	-54.61
651.173	-376.14
651.372	-114
651.571	133.8
651.77	346.79
651.969	-93.52
652.168	-116.05
652.367	-240.98
652.566	266.92
652.765	-218.45
652.964	109.23
653.163	559.78
653.362	72.36
653.561	-208.21
653.76	-206.16
653.959	-52.56
654.158	166.57
654.357	68.27
654.556	-179.54
654.755	281.25
654.954	299.69
655.153	-148.82
655.352	-157.01
655.551	473.76
655.749	-81.24
655.948	-114
656.147	-130.39
656.346	182.95
656.545	19.11
656.743	-30.04
656.942	-95.57
657.141	109.23
657.34	-126.29
657.538	-128.34
657.737	-118.1
657.936	-44.37
658.135	193.19
658.333	-165.2
658.532	4.78
658.731	522.91
658.929	334.5
659.128	170.66
659.326	-216.4
659.525	330.41
659.724	41.64
659.922	-357.71
660.121	-273.75
660.319	84.65
660.518	-122.2
660.716	-230.74
660.915	-257.36
661.113	379.56
661.312	-152.91
661.51	-32.08
661.709	-169.3
661.907	187.05
662.105	504.48
662.304	-60.76
662.502	-189.78
662.701	443.04
662.899	-21.84
663.097	178.86
663.296	-288.08
663.494	359.08
663.692	412.32
663.891	-267.6
664.089	-222.55
664.287	195.24
664.485	438.95
664.684	-226.64
664.882	21.16
665.08	107.18
665.278	195.24
665.476	-255.31
665.675	105.13
665.873	549.54
666.071	354.98
666.269	-114
666.467	55.98
666.665	164.52
666.863	-13.65
667.061	-62.8
667.259	-132.44
667.457	76.46
667.655	174.76
667.853	-279.89
668.051	-54.61
668.249	-95.57
668.447	273.06
668.645	-224.59
668.843	51.88
669.041	105.13
669.239	121.51
669.437	31.4
669.635	-13.65
669.833	96.94
670.031	268.97
670.229	-13.65
670.426	-11.61
670.624	8.87
670.822	-136.53
671.02	-167.25
671.218	-46.42
671.415	-206.16
671.613	144.04
671.811	86.7
672.009	-136.53
672.206	283.3
672.404	47.79
672.602	62.12
672.799	-136.53
672.997	158.38
673.195	297.64
673.392	-11.61
673.59	-296.27
673.788	291.49
673.985	-390.48
674.183	15.02
674.38	-116.05
674.578	281.25
674.775	-21.84
674.973	-249.17
675.17	-232.79
675.368	436.9
675.565	211.62
675.763	-128.34
675.96	-169.3
676.158	420.52
676.355	129.7
676.553	-152.91
676.75	-87.38
676.947	144.04
677.145	55.98
677.342	21.16
677.539	55.98
677.737	201.38
677.934	600.74
678.131	66.22
678.329	-148.82
678.526	623.27
678.723	311.97
678.92	15.02
679.118	-54.61
679.315	-130.39
679.512	449.19
679.709	-95.57
679.906	-54.61
680.104	387.75
680.301	205.48
680.498	-191.83
680.695	-185.68
680.892	-91.48
681.089	-17.75
681.286	-38.23
681.483	-230.74
681.68	244.39
681.877	273.06
682.075	-93.52
682.272	152.23
682.469	154.28
682.665	86.7
682.862	-159.06
683.059	-245.07
683.256	185
683.453	217.77
683.65	-13.65
683.847	-52.56
684.044	105.13
684.241	-136.53
684.438	78.51
684.635	-169.3
684.831	537.25
685.028	633.51
685.225	-87.38
685.422	23.21
685.619	41.64
685.815	119.46
686.012	53.93
686.209	-19.8
686.405	-152.91
686.602	228.01
686.799	-232.79
686.996	-197.97
687.192	-95.57
687.389	658.08
687.586	-99.67
687.782	-62.8
687.979	463.52
688.175	416.42
688.372	25.26
688.568	-64.85
688.765	43.69
688.962	479.91
689.158	121.51
689.355	-333.14
689.551	299.69
689.748	27.31
689.944	-36.18
690.14	-159.06
690.337	318.12
690.533	12.97
690.73	121.51
690.926	-50.52
691.123	273.06
691.319	96.94
691.515	-99.67
691.712	152.23
691.908	322.21
692.104	256.68
692.301	74.41
692.497	-154.96
692.693	395.94
692.889	252.58
693.086	-13.65
693.282	-269.65
693.478	182.95
693.674	567.97
693.87	-34.13
694.067	-173.39
694.263	182.95
694.459	-9.56
694.655	90.79
694.851	-23.89
695.047	258.73
695.243	322.21
695.439	88.75
695.635	-167.25
695.831	277.16
696.027	168.62
696.224	-66.9
696.42	256.68
696.615	461.48
696.811	305.83
697.007	-224.59
697.203	-46.42
697.399	230.06
697.595	473.76
697.791	-122.2
697.987	60.07
698.183	-173.39
698.379	41.64
698.575	-56.66
698.77	-52.56
698.966	359.08
699.162	469.67
699.358	-7.51
699.554	21.16
699.749	277.16
699.945	410.28
700.141	23.21
700.337	60.07
700.532	174.76
700.728	27.31
700.924	-75.09
701.119	-308.56
701.315	357.03
701.511	82.6
701.706	-11.61
701.902	-179.54
702.097	281.25
702.293	291.49
702.489	41.64
702.684	-46.42
702.88	64.17
703.075	96.94
703.271	-7.51
703.466	-163.15
703.662	166.57
703.857	293.54
704.053	-79.19
704.248	-73.04
704.443	402.08
704.639	281.25
704.834	10.92
705.03	-75.09
705.225	393.89
705.42	410.28
705.616	123.56
705.811	-89.43
706.006	103.08
706.202	111.27
706.397	60.07
706.592	-179.54
706.787	314.02
706.983	182.95
707.178	240.3
707.373	31.4
707.568	412.32
707.763	461.48
707.959	-64.85
708.154	-138.58
708.349	250.53
708.544	260.77
708.739	232.1
708.934	-128.34
709.129	428.71
709.324	506.53
709.519	-126.29
709.714	-73.04
709.909	465.57
710.104	314.02
710.299	15.02
710.494	-30.04
710.689	400.04
710.884	228.01
711.079	119.46
711.274	248.49
711.469	365.22
711.664	293.54
711.859	-32.08
712.054	64.17
712.249	367.27
712.443	424.61
712.638	-191.83
712.833	-109.91
713.028	168.62
713.223	72.36
713.417	180.9
713.612	-79.19
713.807	354.98
714.002	766.62
714.196	162.47
714.391	-19.8
714.586	344.74
714.78	174.76
714.975	17.07
715.17	-62.8
715.364	80.55
715.559	322.21
715.754	-234.83
715.948	-48.47
716.143	604.83
716.337	262.82
716.532	211.62
716.726	-68.95
716.921	379.56
717.115	645.79
717.31	-216.4
717.504	471.72
717.699	150.18
717.893	441
718.088	-210.26
718.282	-161.11
718.476	316.07
718.671	365.22
718.865	-97.62
719.059	-19.8
719.254	242.34
719.448	522.91
719.642	1315.48
719.837	-169.3
720.031	412.32
720.225	463.52
720.419	129.7
720.614	-36.18
720.808	434.85
721.002	154.28
721.196	-122.2
721.39	29.35
721.585	545.44
721.779	404.13
721.973	-30.04
722.167	-93.52
722.361	371.37
722.555	432.8
722.749	-44.37
722.943	31.4
723.137	-27.99
723.331	260.77
723.525	-36.18
723.719	-50.52
723.913	397.99
724.107	545.44
724.301	-109.91
724.495	27.31
724.689	604.83
724.883	522.91
725.077	-122.2
725.271	-81.24
725.465	467.62
725.659	264.87
725.853	74.41
726.046	-177.49
726.24	98.99
726.434	522.91
726.628	29.35
726.822	62.12
727.015	500.39
727.209	561.83
727.403	129.7
727.596	-107.86
727.79	410.28
727.984	354.98
728.177	-71
728.371	103.08
728.565	498.34
728.758	-25.94
728.952	-77.14
729.146	-95.57
729.339	477.86
729.533	258.73
729.726	-17.75
729.92	-122.2
730.113	488.1
730.307	301.73
730.5	-13.65
730.694	-50.52
730.887	254.63
731.081	434.85
731.274	-124.24
731.468	109.23
731.661	230.06
731.854	199.34
732.048	-30.04
732.241	-116.05
732.435	152.23
732.628	258.73
732.821	101.03
733.014	-40.28
733.208	27.31
733.401	457.38
733.594	64.17
733.788	39.59
733.981	588.45
734.174	309.93
734.367	-9.56
734.56	180.9
734.754	438.95
734.947	201.38
735.14	-9.56
735.333	43.69
735.526	418.47
735.719	37.55
735.912	-152.91
736.105	-71
736.298	266.92
736.491	125.61
736.684	2.73
736.877	-50.52
737.07	357.03
737.263	543.39
737.456	-73.04
737.649	-87.38
737.842	234.15
738.035	197.29
738.228	66.22
738.421	234.15
738.614	510.63
738.807	520.87
739	-138.58
739.192	-25.94
739.385	299.69
739.578	379.56
739.771	262.82
739.964	45.74
740.156	330.41
740.349	322.21
740.542	242.34
740.735	-124.24
740.927	-46.42
741.12	125.61
741.313	-30.04
741.505	76.46
741.698	342.69
741.891	381.6
742.083	252.58
742.276	4.78
742.468	283.3
742.661	195.24
742.854	10.92
743.046	92.84
743.239	635.55
743.431	101.03
743.624	35.5
743.816	-179.54
744.009	162.47
744.201	379.56
744.393	260.77
744.586	-71
744.778	602.79
744.971	264.87
745.163	150.18
745.355	158.38
745.548	254.63
745.74	234.15
745.932	115.37
746.125	-58.71
746.317	815.77
746.509	354.98
746.702	12.97
746.894	182.95
747.086	328.36
747.278	572.07
747.471	182.95
747.663	178.86
747.855	371.37
748.047	627.36
748.239	-91.48
748.431	12.97
748.623	594.59
748.815	696.99
749.008	-87.38
749.2	19.11
749.392	492.2
749.584	412.32
749.776	109.23
749.968	207.53
750.16	756.38
750.352	199.34
750.544	60.07
750.736	6.83
750.928	500.39
751.12	262.82
751.311	-17.75
751.503	166.57
751.695	461.48
751.887	330.41
752.079	-163.15
752.271	41.64
752.463	1125.02
752.654	592.55
752.846	113.32
753.038	19.11
753.23	113.32
753.421	481.96
753.613	94.89
753.805	182.95
753.997	668.32
754.188	498.34
754.38	17.07
754.572	10.92
754.763	260.77
754.955	510.63
755.146	82.6
755.338	60.07
755.53	416.42
755.721	260.77
755.913	-150.87
756.104	-36.18
756.296	260.77
756.487	461.48
756.679	-79.19
756.87	37.55
757.062	215.72
757.253	512.67
757.445	53.93
757.636	94.89
757.827	242.34
758.019	879.26
758.21	-11.61
758.401	55.98
758.593	740
758.784	608.93
758.975	-77.14
759.167	-73.04
759.358	334.5
759.549	539.3
759.74	101.03
759.932	15.02
760.123	619.17
760.314	295.59
760.505	170.66
760.696	45.74
760.888	754.34
761.079	252.58
761.27	55.98
761.461	-79.19
761.652	748.19
761.843	240.3
762.034	144.04
762.225	383.65
762.416	350.89
762.607	316.07
762.798	137.9
762.989	-7.51
763.18	1043.1
763.371	244.39
763.562	92.84
763.753	68.27
763.944	496.29
764.135	539.3
764.326	230.06
764.517	72.36
764.708	289.45
764.899	479.91
765.089	-9.56
765.28	-68.95
765.471	350.89
765.662	457.38
765.853	72.36
766.043	-32.08
766.234	484
766.425	662.18
766.615	60.07
766.806	-30.04
766.997	627.36
767.187	453.28
767.378	35.5
767.569	-95.57
767.759	469.67
767.95	367.27
768.141	273.06
768.331	2.73
768.522	336.55
768.712	533.15
768.903	-13.65
769.093	23.21
769.284	676.51
769.474	359.08
769.665	-99.67
769.855	-91.48
770.046	465.57
770.236	232.1
770.426	293.54
770.617	-25.94
770.807	488.1
770.998	230.06
771.188	158.38
771.378	144.04
771.569	473.76
771.759	553.63
771.949	12.97
772.139	-240.98
772.33	371.37
772.52	658.08
772.71	68.27
772.9	-58.71
773.09	764.58
773.281	682.66
773.471	35.5
773.661	37.55
773.851	563.87
774.041	242.34
774.231	19.11
774.421	252.58
774.611	752.29
774.802	424.61
774.992	117.42
775.182	4.78
775.372	455.33
775.562	516.77
775.752	133.8
775.942	60.07
776.131	584.35
776.321	543.39
776.511	88.75
776.701	-93.52
776.891	676.51
777.081	86.7
777.271	125.61
777.461	2.73
777.651	588.45
777.84	666.27
778.03	258.73
778.22	70.31
778.41	633.51
778.599	144.04
778.789	96.94
778.979	-5.46
779.169	486.05
779.358	432.8
779.548	271.01
779.738	-91.48
779.927	400.04
780.117	129.7
780.307	201.38
780.496	-101.72
780.686	467.62
780.875	799.39
781.065	51.88
781.254	53.93
781.444	395.94
781.633	350.89
781.823	-3.41
782.012	39.59
782.202	240.3
782.391	395.94
782.581	2.73
782.77	191.14
782.96	518.82
783.149	342.69
783.338	111.27
783.528	-138.58
783.717	529.06
783.906	696.99
784.096	332.45
784.285	-50.52
784.474	318.12
784.663	166.57
784.853	203.43
785.042	203.43
785.231	281.25
785.42	576.16
785.61	199.34
785.799	-54.61
785.988	182.95
786.177	301.73
786.366	150.18
786.555	309.93
786.744	600.74
786.933	365.22
787.122	-17.75
787.312	-13.65
787.501	209.58
787.69	467.62
787.879	119.46
788.068	82.6
788.257	152.23
788.445	305.83
788.634	80.55
788.823	4.78
789.012	1002.14
789.201	760.48
789.39	144.04
789.579	17.07
789.768	453.28
789.957	359.08
790.145	125.61
790.334	-146.77
790.523	309.93
790.712	244.39
790.9	131.75
791.089	-79.19
791.278	512.67
791.467	402.08
791.655	502.44
791.844	647.84
792.033	201.38
792.221	357.03
792.41	289.45
792.599	-36.18
792.787	518.82
792.976	535.2
793.164	-17.75
793.353	39.59
793.541	492.2
793.73	473.76
793.918	199.34
794.107	86.7
794.295	330.41
794.484	273.06
794.672	158.38
794.861	180.9
795.049	494.24
795.238	735.9
795.426	43.69
795.614	193.19
795.803	457.38
795.991	705.18
796.179	168.62
796.368	109.23
796.556	584.35
796.744	148.14
796.932	43.69
797.121	29.35
797.309	260.77
797.497	594.59
797.685	39.59
797.874	129.7
798.062	361.13
798.25	658.08
798.438	82.6
798.626	92.84
798.814	502.44
799.002	844.45
799.19	271.01
799.378	166.57
799.566	613.03
799.755	754.34
799.943	379.56
800.131	92.84
800.318	395.94
800.506	520.87
800.694	96.94
800.882	240.3
801.07	653.98
801.258	314.02
801.446	178.86
801.634	180.9
801.822	400.04
802.01	455.33
802.197	113.32
802.385	342.69
802.573	465.57
802.761	213.67
802.949	162.47
803.136	49.83
803.324	678.56
803.512	367.27
803.699	246.44
803.887	43.69
804.075	774.81
804.262	297.64
804.45	53.93
804.638	324.26
804.825	197.29
805.013	289.45
805.201	195.24
805.388	-30.04
805.576	471.72
805.763	817.82
805.951	209.58
806.138	287.4
806.326	879.26
806.513	506.53
806.701	228.01
806.888	29.35
807.075	500.39
807.263	879.26
807.45	68.27
807.638	342.69
807.825	811.68
808.012	600.74
808.2	207.53
808.387	387.75
808.574	502.44
808.761	852.64
808.949	25.26
809.136	264.87
809.323	342.69
809.51	326.31
809.698	486.05
809.885	361.13
810.072	486.05
810.259	692.9
810.446	283.3
810.633	86.7
810.82	750.24
811.008	821.92
811.195	354.98
811.382	271.01
811.569	375.46
811.756	160.42
811.943	232.1
812.13	119.46
812.317	375.46
812.504	279.21
812.691	293.54
812.878	264.87
813.064	815.77
813.251	492.2
813.438	2.73
813.625	400.04
813.812	406.18
813.999	404.13
814.186	301.73
814.372	211.62
814.559	449.19
814.746	744.1
814.933	205.48
815.12	367.27
815.306	252.58
815.493	250.53
815.68	60.07
815.866	219.82
816.053	674.46
816.24	969.37
816.426	332.45
816.613	125.61
816.799	684.7
816.986	684.7
817.173	168.62
817.359	174.76
817.546	559.78
817.732	150.18
817.919	-103.76
818.105	318.12
818.292	293.54
818.478	588.45
818.665	402.08
818.851	146.09
819.037	975.52
819.224	535.2
819.41	66.22
819.597	96.94
819.783	873.12
819.969	563.87
820.156	232.1
820.342	84.65
820.528	1198.74
820.714	387.75
820.901	443.04
821.087	141.99
821.273	856.73
821.459	422.56
821.646	137.9
821.832	168.62
822.018	457.38
822.204	567.97
822.39	197.29
822.576	-25.94
822.762	709.28
822.948	524.96
823.134	459.43
823.32	273.06
823.507	217.77
823.693	561.83
823.879	639.65
824.065	230.06
824.25	506.53
824.436	344.74
824.622	254.63
824.808	125.61
824.994	352.93
825.18	318.12
825.366	111.27
825.552	228.01
825.738	404.13
825.923	694.94
826.109	428.71
826.295	166.57
826.481	277.16
826.667	332.45
826.852	436.9
827.038	27.31
827.224	707.23
827.409	869.02
827.595	96.94
827.781	410.28
827.966	682.66
828.152	709.28
828.338	189.1
828.523	103.08
828.709	318.12
828.894	715.42
829.08	330.41
829.266	150.18
829.451	404.13
829.637	608.93
829.822	273.06
830.008	219.82
830.193	740
830.378	846.49
830.564	293.54
830.749	117.42
830.935	666.27
831.12	694.94
831.305	178.86
831.491	338.6
831.676	275.11
831.861	748.19
832.047	281.25
832.232	133.8
832.417	750.24
832.602	533.15
832.788	152.23
832.973	223.91
833.158	555.68
833.343	559.78
833.528	258.73
833.714	275.11
833.899	627.36
834.084	959.13
834.269	457.38
834.454	322.21
834.639	797.34
834.824	479.91
835.009	395.94
835.194	428.71
835.379	740
835.564	871.07
835.749	457.38
835.934	135.85
836.119	645.79
836.304	625.31
836.489	254.63
836.674	500.39
836.859	318.12
837.044	836.25
837.228	348.84
837.413	201.38
837.598	479.91
837.783	752.29
837.968	285.35
838.152	94.89
838.337	45.74
838.522	811.68
838.707	719.52
838.891	459.43
839.076	684.7
839.261	774.81
839.445	187.05
839.63	397.99
839.815	885.41
839.999	471.72
840.184	320.17
840.368	230.06
840.553	694.94
840.737	770.72
840.922	178.86
841.106	201.38
841.291	260.77
841.475	537.25
841.66	207.53
841.844	215.72
842.029	1182.36
842.213	264.87
842.397	305.83
842.582	178.86
842.766	866.97
842.951	692.9
843.135	311.97
843.319	373.41
843.504	666.27
843.688	774.81
843.872	68.27
844.056	180.9
844.241	588.45
844.425	436.9
844.609	504.48
844.793	66.22
844.977	813.73
845.161	596.64
845.346	141.99
845.53	289.45
845.714	473.76
845.898	991.9
846.082	49.83
846.266	244.39
846.45	375.46
846.634	608.93
846.818	256.68
847.002	367.27
847.186	723.62
847.37	334.5
847.554	191.14
847.738	469.67
847.922	576.16
848.106	643.74
848.29	135.85
848.473	295.59
848.657	723.62
848.841	535.2
849.025	352.93
849.209	115.37
849.392	713.38
849.576	473.76
849.76	-5.46
849.944	354.98
850.127	950.94
850.311	160.42
850.495	76.46
850.678	209.58
850.862	793.25
851.046	897.69
851.229	522.91
851.413	203.43
851.596	518.82
851.78	494.24
851.964	449.19
852.147	307.88
852.331	1313.43
852.514	846.49
852.698	344.74
852.881	215.72
853.065	682.66
853.248	508.58
853.431	406.18
853.615	379.56
853.798	1168.02
853.982	606.88
854.165	453.28
854.348	297.64
854.532	338.6
854.715	494.24
854.898	277.16
855.081	285.35
855.265	889.5
855.448	907.93
855.631	262.82
855.814	287.4
855.997	731.81
856.181	481.96
856.364	434.85
856.547	166.57
856.73	737.95
856.913	641.7
857.096	146.09
857.279	309.93
857.462	426.66
857.645	727.71
857.828	422.56
858.011	467.62
858.194	455.33
858.377	774.81
858.56	219.82
858.743	295.59
858.926	316.07
859.109	641.7
859.292	373.41
859.475	199.34
859.658	830.11
859.841	772.77
860.023	219.82
860.206	240.3
860.389	619.17
860.572	918.17
860.755	395.94
860.937	264.87
861.12	547.49
861.303	563.87
861.486	400.04
861.668	139.94
861.851	760.48
862.034	701.09
862.216	500.39
862.399	154.28
862.581	666.27
862.764	930.46
862.947	365.22
863.129	309.93
863.312	277.16
863.494	975.52
863.677	553.63
863.859	80.55
864.042	848.54
864.224	944.8
864.406	412.32
864.589	154.28
864.771	651.94
864.954	262.82
865.136	297.64
865.318	84.65
865.501	756.38
865.683	109.23
865.865	324.26
866.048	330.41
866.23	711.33
866.412	578.21
866.594	236.2
866.777	430.76
866.959	762.53
867.141	473.76
867.323	529.06
867.505	502.44
867.687	647.84
867.869	567.97
868.052	273.06
868.234	219.82
868.416	502.44
868.598	750.24
868.78	244.39
868.962	215.72
869.144	803.49
869.326	764.58
869.508	371.37
869.69	236.2
869.872	375.46
870.054	897.69
870.236	113.32
870.417	293.54
870.599	463.52
870.781	907.93
870.963	592.55
871.145	289.45
871.327	348.84
871.508	836.25
871.69	285.35
871.872	371.37
872.054	475.81
872.235	723.62
872.417	363.17
872.599	234.15
872.78	828.06
872.962	619.17
873.144	248.49
873.325	408.23
873.507	916.12
873.689	637.6
873.87	211.62
874.052	469.67
874.233	578.21
874.415	862.88
874.596	367.27
874.778	148.14
874.959	606.88
875.141	799.39
875.322	305.83
875.503	223.91
875.685	821.92
875.866	244.39
876.048	187.05
876.229	133.8
876.41	598.69
876.592	690.85
876.773	299.69
876.954	150.18
877.136	987.8
877.317	494.24
877.498	125.61
877.679	281.25
877.86	672.42
878.042	514.72
878.223	264.87
878.404	658.08
878.585	785.05
878.766	1014.43
878.947	559.78
879.128	543.39
879.309	762.53
879.49	864.93
879.672	434.85
879.853	412.32
880.034	473.76
880.215	459.43
880.396	461.48
880.576	379.56
880.757	449.19
880.938	905.88
881.119	232.1
881.3	223.91
881.481	447.14
881.662	1434.26
881.843	250.53
882.023	168.62
882.204	684.7
882.385	572.07
882.566	336.55
882.747	305.83
882.927	631.46
883.108	686.75
883.289	289.45
883.469	551.59
883.65	518.82
883.831	653.98
884.011	606.88
884.192	389.8
884.373	889.5
884.553	746.14
884.734	465.57
884.914	608.93
885.095	1227.42
885.275	946.84
885.456	705.18
885.636	217.77
885.817	606.88
885.997	682.66
886.178	285.35
886.358	410.28
886.538	633.51
886.719	1714.83
886.899	293.54
887.08	520.87
887.26	948.89
887.44	445.09
887.621	248.49
887.801	438.95
887.981	1217.18
888.161	1010.33
888.342	527.01
888.522	363.17
888.702	987.8
888.882	1022.62
889.062	582.31
889.242	217.77
889.423	1020.57
889.603	766.62
889.783	545.44
889.963	381.6
890.143	772.77
890.323	924.32
890.503	463.52
890.683	443.04
890.863	662.18
891.043	774.81
891.223	453.28
891.403	574.11
891.583	731.81
891.763	735.9
891.943	582.31
892.122	414.37
892.302	668.32
892.482	625.31
892.662	588.45
892.842	420.52
893.022	895.65
893.201	594.59
893.381	576.16
893.561	414.37
893.741	834.21
893.92	834.21
894.1	635.55
894.28	596.64
894.459	916.12
894.639	744.1
894.819	420.52
894.998	541.35
895.178	774.81
895.357	877.21
895.537	418.47
895.716	326.31
895.896	719.52
896.075	987.8
896.255	477.86
896.434	219.82
896.614	932.51
896.793	1075.87
896.973	656.03
897.152	572.07
897.331	850.59
897.511	871.07
897.69	244.39
897.87	602.79
898.049	948.89
898.228	742.05
898.407	694.94
898.587	604.83
898.766	592.55
898.945	952.99
899.124	672.42
899.304	565.92
899.483	948.89
899.662	1217.18
899.841	322.21
900.02	422.56
900.199	1067.67
900.378	737.95
900.557	436.9
900.737	404.13
900.916	813.73
901.095	940.7
901.274	776.86
901.453	281.25
901.632	551.59
901.811	625.31
901.989	477.86
902.168	414.37
902.347	801.44
902.526	637.6
902.705	557.73
902.884	680.61
903.063	1096.35
903.242	1090.2
903.42	445.09
903.599	576.16
903.778	975.52
903.957	1090.2
904.135	619.17
904.314	547.49
904.493	887.45
904.672	846.49
904.85	428.71
905.029	529.06
905.207	950.94
905.386	1477.27
905.565	309.93
905.743	451.24
905.922	658.08
906.1	1002.14
906.279	416.42
906.457	488.1
906.636	613.03
906.814	617.12
906.993	531.11
907.171	371.37
907.35	922.27
907.528	930.46
907.707	699.04
907.885	344.74
908.063	1069.72
908.242	576.16
908.42	541.35
908.598	338.6
908.777	809.63
908.955	649.89
909.133	535.2
909.311	453.28
909.49	686.75
909.668	727.71
909.846	504.48
910.024	400.04
910.202	742.05
910.38	871.07
910.559	354.98
910.737	375.46
910.915	733.86
911.093	838.3
911.271	516.77
911.449	699.04
911.627	985.76
911.805	1256.09
911.983	563.87
912.161	354.98
912.339	807.58
912.517	1055.39
912.695	621.22
912.872	428.71
913.05	592.55
913.228	877.21
913.406	527.01
913.584	518.82
913.762	840.35
913.939	653.98
914.117	508.58
914.295	377.51
914.473	854.69
914.65	819.87
914.828	428.71
915.006	539.3
915.184	504.48
915.361	817.82
915.539	576.16
915.716	682.66
915.894	895.65
916.072	1018.52
916.249	656.03
916.427	539.3
916.604	481.96
916.782	901.79
916.959	389.8
917.137	502.44
917.314	764.58
917.492	1069.72
917.669	608.93
917.847	621.22
918.024	885.41
918.201	600.74
918.379	561.83
918.556	578.21
918.733	916.12
918.911	670.37
919.088	658.08
919.265	443.04
919.442	764.58
919.62	684.7
919.797	387.75
919.974	334.5
920.151	817.82
920.328	705.18
920.506	467.62
920.683	674.46
920.86	529.06
921.037	596.64
921.214	572.07
921.391	428.71
921.568	1004.19
921.745	555.68
921.922	602.79
922.099	379.56
922.276	1032.86
922.453	817.82
922.63	387.75
922.807	721.57
922.984	817.82
923.161	565.92
923.338	457.38
923.514	400.04
923.691	703.14
923.868	858.78
924.045	426.66
924.222	320.17
924.399	821.92
924.575	1010.33
924.752	500.39
924.929	563.87
925.105	871.07
925.282	486.05
925.459	494.24
925.635	473.76
925.812	754.34
925.989	553.63
926.165	567.97
926.342	281.25
926.518	473.76
926.695	731.81
926.871	510.63
927.048	342.69
927.224	965.28
927.401	514.72
927.577	520.87
927.754	322.21
927.93	1004.19
928.107	830.11
928.283	389.8
928.459	504.48
928.636	787.1
928.812	598.69
928.988	354.98
929.165	168.62
929.341	633.51
929.517	666.27
929.693	723.62
929.87	256.68
930.046	737.95
930.222	504.48
930.398	334.5
930.574	443.04
930.751	744.1
930.927	553.63
931.103	479.91
931.279	498.34
931.455	449.19
931.631	725.66
931.807	334.5
931.983	275.11
932.159	303.78
932.335	649.89
932.511	506.53
932.687	375.46
932.863	651.94
933.039	725.66
933.215	295.59
933.391	254.63
933.566	619.17
933.742	625.31
933.918	441
934.094	281.25
934.27	586.4
934.445	688.8
934.621	600.74
934.797	268.97
934.973	836.25
935.148	742.05
935.324	283.3
935.5	113.32
935.675	821.92
935.851	668.32
936.027	277.16
936.202	354.98
936.378	699.04
936.553	555.68
936.729	727.71
936.904	305.83
937.08	275.11
937.255	416.42
937.431	242.34
937.606	117.42
937.782	445.09
937.957	619.17
938.133	350.89
938.308	240.3
938.483	559.78
938.659	311.97
938.834	293.54
939.009	137.9
939.185	420.52
939.36	268.97
939.535	-107.86
939.71	332.45
939.886	744.1
940.061	535.2
940.236	357.03
940.411	266.92
940.586	598.69
940.761	600.74
940.937	185
941.112	197.29
941.287	457.38
941.462	469.67
941.637	107.18
941.812	215.72
941.987	520.87
942.162	412.32
942.337	328.36
942.512	178.86
942.687	696.99
942.862	563.87
943.037	88.75
943.212	-95.57
943.386	365.22
943.561	453.28
943.736	340.65
943.911	465.57
944.086	453.28
944.26	436.9
944.435	234.15
944.61	211.62
944.785	727.71
944.959	715.42
945.134	172.71
945.309	51.88
945.483	215.72
945.658	619.17
945.833	-109.91
946.007	29.35
946.182	699.04
946.357	189.1
946.531	45.74
946.706	0.68
946.88	-38.23
947.055	395.94
947.229	146.09
947.404	0.68
947.578	547.49
947.752	375.46
947.927	-17.75
948.101	-17.75
948.276	502.44
948.45	424.61
948.624	330.41
948.799	21.16
948.973	486.05
949.147	107.18
949.321	191.14
949.496	133.8
949.67	682.66
949.844	305.83
950.018	185
950.193	62.12
950.367	856.73
950.541	254.63
950.715	248.49
950.889	359.08
951.063	271.01
951.237	520.87
951.411	-124.24
951.585	-38.23
951.759	420.52
951.933	350.89
952.107	113.32
952.281	350.89
952.455	744.1
952.629	565.92
952.803	43.69
952.977	64.17
953.151	561.83
953.325	481.96
953.499	309.93
953.672	-50.52
953.846	162.47
954.02	236.2
954.194	121.51
954.368	123.56
954.541	471.72
954.715	189.1
954.889	160.42
955.062	109.23
955.236	393.89
955.41	232.1
955.583	314.02
955.757	-107.86
955.93	273.06
956.104	92.84
956.278	213.67
956.451	109.23
956.625	449.19
956.798	733.86
956.972	365.22
957.145	60.07
957.319	307.88
957.492	342.69
957.665	209.58
957.839	84.65
958.012	445.09
958.185	176.81
958.359	182.95
958.532	271.01
958.705	443.04
958.879	328.36
959.052	185
959.225	-103.76
959.398	354.98
959.572	494.24
959.745	86.7
959.918	146.09
960.091	332.45
960.264	379.56
960.438	51.88
960.611	68.27
960.784	578.21
960.957	264.87
961.13	494.24
961.303	72.36
961.476	305.83
961.649	537.25
961.822	31.4
961.995	144.04
962.168	490.15
962.341	428.71
962.514	207.53
962.686	43.69
962.859	338.6
963.032	400.04
963.205	113.32
963.378	-46.42
963.551	408.23
963.723	332.45
963.896	232.1
964.069	170.66
964.242	225.96
964.414	490.15
964.587	123.56
964.76	187.05
964.932	393.89
965.105	242.34
965.278	21.16
965.45	70.31
965.623	334.5
965.795	506.53
965.968	144.04
966.14	135.85
966.313	256.68
966.485	412.32
966.658	176.81
966.83	6.83
967.003	559.78
967.175	537.25
967.348	74.41
967.52	133.8
967.692	672.42
967.865	451.24
968.037	152.23
968.209	400.04
968.382	295.59
968.554	596.64
968.726	199.34
968.898	8.87
969.071	344.74
969.243	426.66
969.415	268.97
969.587	180.9
969.759	762.53
969.932	490.15
970.104	166.57
970.276	-185.68
970.448	174.76
970.62	152.23
970.792	303.78
970.964	101.03
971.136	912.03
971.308	504.48
971.48	119.46
971.652	92.84
971.824	826.01
971.996	262.82
972.168	232.1
972.339	160.42
972.511	557.73
972.683	277.16
972.855	379.56
973.027	113.32
973.199	309.93
973.37	465.57
973.542	266.92
973.714	242.34
973.886	338.6
974.057	590.5
974.229	-44.37
974.401	23.21
974.572	164.52
974.744	-124.24
974.915	70.31
975.087	123.56
975.259	740
975.43	225.96
975.602	174.76
975.773	17.07
975.945	225.96
976.116	404.13
976.288	-19.8
976.459	346.79
976.63	262.82
976.802	465.57
976.973	96.94
977.145	305.83
977.316	778.91
977.487	441
977.659	303.78
977.83	162.47
978.001	823.97
978.172	395.94
978.344	111.27
978.515	189.1
978.686	187.05
978.857	746.14
979.028	141.99
979.2	72.36
979.371	584.35
979.542	361.13
979.713	387.75
979.884	-320.85
980.055	84.65
980.226	262.82
980.397	111.27
980.568	-23.89
980.739	582.31
980.91	338.6
981.081	191.14
981.252	21.16
981.423	408.23
981.594	555.68
981.765	-13.65
981.936	152.23
982.106	414.37
982.277	617.12
982.448	60.07
982.619	238.25
982.79	336.55
982.96	539.3
983.131	242.34
983.302	-126.29
983.472	248.49
983.643	402.08
983.814	207.53
983.984	72.36
984.155	324.26
984.326	576.16
984.496	137.9
984.667	168.62
984.837	232.1
985.008	627.36
985.178	273.06
985.349	166.57
985.519	297.64
985.69	101.03
985.86	86.7
986.031	-38.23
986.201	479.91
986.371	436.9
986.542	49.83
986.712	-191.83
986.882	518.82
987.053	477.86
987.223	-66.9
987.393	273.06
987.563	189.1
987.734	449.19
987.904	420.52
988.074	21.16
988.244	361.13
988.414	185
988.585	-9.56
988.755	207.53
988.925	309.93
989.095	699.04
989.265	39.59
989.435	166.57
989.605	428.71
989.775	551.59
989.945	363.17
990.115	4.78
990.285	307.88
990.455	402.08
990.625	152.23
990.795	6.83
990.965	674.46
991.134	185
991.304	8.87
991.474	19.11
991.644	404.13
991.814	809.63
991.984	0.68
992.153	-25.94
992.323	234.15
992.493	367.27
992.662	-103.76
992.832	193.19
993.002	359.08
993.171	422.56
993.341	-142.68
993.511	191.14
993.68	170.66
993.85	453.28
994.019	-116.05
994.189	-27.99
994.358	268.97
994.528	170.66
994.697	-230.74
994.867	-21.84
995.036	416.42
995.206	139.94
995.375	-50.52
995.544	131.75
995.714	305.83
995.883	203.43
996.052	117.42
996.222	-234.83
996.391	809.63
996.56	348.84
996.73	-54.61
996.899	-169.3
997.068	696.99
997.237	303.78
997.406	-11.61
997.576	-124.24
997.745	275.11
997.914	322.21
998.083	-226.64
998.252	-48.47
998.421	283.3
998.59	109.23
998.759	-77.14
998.928	-259.41
999.097	563.87
999.266	307.88
999.435	121.51
999.604	-193.87
999.773	692.9
999.942	164.52
1000.111	-124.24
1000.28	-251.22
1000.448	82.6
1000.617	-17.75
1000.786	141.99
1000.955	-85.33
1001.124	289.45
1001.292	959.13
1001.461	-36.18
1001.63	-99.67
1001.798	604.83
1001.967	586.4
1002.136	-189.78
1002.304	-118.1
1002.473	320.17
1002.642	268.97
1002.81	-44.37
1002.979	19.11
1003.147	377.51
1003.316	778.91
1003.484	-64.85
1003.653	-144.72
1003.821	584.35
1003.99	174.76
1004.158	39.59
1004.327	45.74
1004.495	420.52
1004.663	78.51
1004.832	101.03
1005	-238.93
1005.168	397.99
1005.337	244.39
1005.505	-267.6
1005.673	131.75
1005.842	293.54
1006.01	244.39
1006.178	-261.46
1006.346	-122.2
1006.514	258.73
1006.683	506.53
1006.851	-54.61
1007.019	-159.06
1007.187	55.98
1007.355	-263.51
1007.523	-218.45
1007.691	-146.77
1007.859	-91.48
1008.027	576.16
1008.195	-167.25
1008.363	-228.69
1008.531	436.9
1008.699	51.88
1008.867	-267.6
1009.035	-130.39
1009.203	535.2
1009.37	207.53
1009.538	8.87
1009.706	309.93
1009.874	266.92
1010.042	215.72
1010.209	-200.02
1010.377	-179.54
1010.545	420.52
1010.713	219.82
1010.88	-122.2
1011.048	-140.63
1011.216	158.38
1011.383	522.91
1011.551	-109.91
1011.718	-208.21
1011.886	461.48
1012.054	205.48
1012.221	-214.35
1012.389	-183.63
1012.556	182.95
1012.724	662.18
1012.891	-30.04
1013.058	-359.76
1013.226	381.6
1013.393	416.42
1013.561	-277.84
1013.728	-265.55
1013.895	447.14
1014.063	326.31
1014.23	-197.97
1014.397	-146.77
1014.565	436.9
1014.732	209.58
1014.899	-132.44
1015.066	-179.54
1015.233	228.01
1015.401	289.45
1015.568	-91.48
1015.735	19.11
1015.902	307.88
1016.069	297.64
1016.236	-136.53
1016.403	-263.51
1016.57	-38.23
1016.737	520.87
1016.904	-48.47
1017.071	-173.39
1017.238	80.55
1017.405	397.99
1017.572	-167.25
1017.739	35.5
1017.906	342.69
1018.073	365.22
1018.24	-263.51
1018.407	-157.01
1018.573	486.05
1018.74	170.66
1018.907	-83.28
1019.074	-257.36
1019.241	406.18
1019.407	225.96
1019.574	-167.25
1019.741	-308.56
1019.907	367.27
1020.074	369.32
1020.241	-331.09
1020.407	-292.18
1020.574	309.93
1020.74	305.83
1020.907	-165.2
1021.073	-144.72
1021.24	772.77
1021.406	486.05
1021.573	-218.45
1021.739	-283.98
1021.906	434.85
1022.072	193.19
1022.239	-118.1
1022.405	-144.72
1022.571	219.82
1022.738	-46.42
1022.904	-159.06
1023.07	-103.76
1023.237	244.39
1023.403	438.95
1023.569	-95.57
1023.735	-167.25
1023.902	309.93
1024.068	223.91
1024.234	-288.08
1024.4	-146.77
1024.566	305.83
1024.732	404.13
1024.898	-114
1025.065	-230.74
1025.231	391.84
1025.397	113.32
1025.563	-130.39
1025.729	-193.87
1025.895	-304.46
1026.061	51.88
1026.227	-320.85
1026.392	-120.15
1026.558	400.04
1026.724	285.35
1026.89	-210.26
1027.056	-87.38
1027.222	264.87
1027.388	88.75
1027.553	-111.96
1027.719	-181.59
1027.885	572.07
1028.051	318.12
1028.216	-337.23
1028.382	-62.8
1028.548	330.41
1028.713	88.75
1028.879	-275.79
1029.045	-85.33
1029.21	512.67
1029.376	475.81
1029.541	-107.86
1029.707	-167.25
1029.873	361.13
1030.038	371.37
1030.204	-165.2
1030.369	-111.96
1030.534	381.6
1030.7	80.55
1030.865	-132.44
1031.031	-200.02
1031.196	281.25
1031.361	232.1
1031.527	-255.31
1031.692	-185.68
1031.857	-169.3
1032.023	443.04
1032.188	-247.12
1032.353	-140.63
1032.518	588.45
1032.684	254.63
1032.849	-290.13
1033.014	-128.34
1033.179	262.82
1033.344	316.07
1033.509	-60.76
1033.674	-152.91
1033.839	369.32
1034.004	424.61
1034.17	-240.98
1034.335	-255.31
1034.5	187.05
1034.664	10.92
1034.829	-261.46
1034.994	-99.67
1035.159	232.1
1035.324	240.3
1035.489	-173.39
1035.654	-167.25
1035.819	617.12
1035.984	273.06
1036.148	-81.24
1036.313	-148.82
1036.478	371.37
1036.643	230.06
1036.807	-177.49
1036.972	-183.63
1037.137	533.15
1037.301	215.72
1037.466	-326.99
1037.631	-77.14
1037.795	514.72
1037.96	230.06
1038.124	90.79
1038.289	-265.55
1038.454	420.52
1038.618	357.03
1038.783	-220.5
1038.947	-54.61
1039.111	178.86
1039.276	121.51
1039.44	-165.2
1039.605	285.35
1039.769	191.14
1039.933	144.04
1040.098	-91.48
1040.262	105.13
1040.426	404.13
1040.591	363.17
1040.755	-206.16
1040.919	-200.02
1041.083	258.73
1041.248	141.99
1041.412	-406.86
1041.576	-232.79
1041.74	199.34
1041.904	354.98
1042.068	-275.79
1042.232	-212.31
1042.397	334.5
1042.561	309.93
1042.725	-394.58
1042.889	12.97
1043.053	389.8
1043.217	367.27
1043.381	-73.04
1043.544	-302.42
1043.708	494.24
1043.872	-50.52
1044.036	-390.48
1044.2	-363.86
1044.364	486.05
1044.528	512.67
1044.691	1225.37
1044.855	-216.4
1045.019	473.76
1045.183	389.8
1045.346	-103.76
1045.51	-210.26
1045.674	215.72
1045.837	527.01
1046.001	-161.11
1046.165	-197.97
1046.328	731.81
1046.492	281.25
1046.655	27.31
1046.819	-30.04
1046.983	115.37
1047.146	252.58
1047.31	-15.7
1047.473	-300.37
1047.636	248.49
1047.8	6.83
1047.963	-148.82
1048.127	-224.59
1048.29	109.23
