Data from Ink_Intensity_USB4F045381__199__00199.txt Node

Date: Mon Jul 17 11:48:19 EDT 2023
User: mmckonesweet
Spectrometer: USB4F04538
Trigger mode: 4
Integration Time (sec): 9.000000E-1
Scans to average: 1
Electric dark correction enabled: true
Nonlinearity correction enabled: false
Boxcar width: 0
XAxis mode: Wavelengths
Number of Pixels in Spectrum: 3648
>>>>>Begin Spectral Data<<<<<
345.52	-1050.44
345.736	-1050.44
345.952	-1050.44
346.168	-1034.05
346.384	-1023.81
346.6	-149.33
346.816	-214.87
347.032	-223.06
347.248	377
347.464	-251.73
347.68	-132.95
347.896	96.43
348.112	438.44
348.328	-94.04
348.544	-143.19
348.76	2.22
348.975	295.08
349.191	-249.68
349.407	-102.23
349.623	22.7
349.839	20.65
350.055	-178
350.27	57.51
350.486	233.64
350.702	270.5
350.918	250.02
351.133	-210.77
351.349	116.9
351.565	245.93
351.781	-280.4
351.996	-16.21
352.212	299.17
352.428	-114.52
352.644	-124.76
352.859	-216.91
353.075	288.93
353.291	28.84
353.506	-89.94
353.722	-212.82
353.938	-100.18
354.153	444.58
354.369	90.28
354.584	-233.3
354.8	311.46
355.016	-319.31
355.231	-266.07
355.447	-89.94
355.662	139.43
355.878	755.87
356.093	-304.98
356.309	-71.51
356.524	-237.39
356.74	233.64
356.955	-274.26
357.171	-89.94
357.386	65.71
357.602	-282.45
357.817	-122.71
358.033	-253.78
358.248	331.94
358.464	141.48
358.679	-163.67
358.895	-327.5
359.11	-57.17
359.325	301.22
359.541	-12.12
359.756	-10.07
359.972	-296.78
360.187	49.32
360.402	-124.76
360.618	-231.25
360.833	843.93
361.048	98.47
361.264	-229.2
361.479	-194.39
361.694	-48.98
361.909	153.77
362.125	-321.36
362.34	-163.67
362.555	274.6
362.77	104.62
362.986	-300.88
363.201	-171.86
363.416	182.44
363.631	47.27
363.847	-237.39
364.062	-91.99
364.277	159.91
364.492	80.04
364.707	-151.38
364.922	-347.98
365.138	243.88
365.353	305.32
365.568	-294.74
365.783	-218.96
365.998	34.99
366.213	524.45
366.428	-309.07
366.643	45.23
366.858	168.1
367.073	143.53
367.288	-108.37
367.503	-321.36
367.718	125.1
367.933	338.09
368.148	-343.89
368.363	-75.6
368.578	12.46
368.793	426.15
369.008	-149.33
369.223	-327.5
369.438	174.25
369.653	370.85
369.868	-364.37
370.083	-237.39
370.298	71.85
370.513	352.42
370.728	37.03
370.943	-249.68
371.157	-243.54
371.372	512.16
371.587	-296.78
371.802	-302.93
372.017	-46.93
372.232	340.13
372.446	-71.51
372.661	-247.63
372.876	127.14
373.091	209.06
373.306	-94.04
373.52	-278.35
373.735	-163.67
373.95	413.86
374.165	-110.42
374.379	-206.67
374.594	-114.52
374.809	90.28
375.023	-8.02
375.238	-229.2
375.453	313.51
375.667	-212.82
375.882	-175.95
376.097	-198.48
376.311	39.08
376.526	41.13
376.741	-274.26
376.955	92.33
377.17	551.07
377.384	542.88
377.599	-143.19
377.813	-331.6
378.028	618.66
378.242	178.34
378.457	-124.76
378.672	-329.55
378.886	24.75
379.101	-30.55
379.315	-362.32
379.53	-196.43
379.744	221.35
379.958	198.82
380.173	-190.29
380.387	-204.63
380.602	159.91
380.816	-147.28
381.031	-87.89
381.245	-139.09
381.459	172.2
381.674	2601.09
381.888	-280.4
382.103	71.85
382.317	-190.29
382.531	413.86
382.746	-94.04
382.96	-208.72
383.174	-126.8
383.388	405.67
383.603	6.31
383.817	-280.4
384.031	102.57
384.246	364.71
384.46	-34.64
384.674	293.03
384.888	-1.88
385.103	20.65
385.317	-347.98
385.531	-110.42
385.745	364.71
385.959	284.84
386.174	-233.3
386.388	-317.26
386.602	14.51
386.816	-180.05
387.03	-145.24
387.244	-188.24
387.458	39.08
387.672	350.37
387.887	-300.88
388.101	-315.22
388.315	358.57
388.529	123.05
388.743	-175.95
388.957	-229.2
389.171	301.22
389.385	-245.59
389.599	-237.39
389.813	65.71
390.027	53.42
390.241	667.81
390.455	-196.43
390.669	-143.19
390.883	-46.93
391.097	305.32
391.311	-36.69
391.525	-270.16
391.738	200.87
391.952	172.2
392.166	-24.4
392.38	-327.5
392.594	159.91
392.808	209.06
393.022	-100.18
393.236	-124.76
393.449	145.58
393.663	186.54
393.877	-311.12
394.091	-100.18
394.305	-186.19
394.518	-153.43
394.732	-243.54
394.946	-194.39
395.16	440.48
395.373	24.75
395.587	-276.31
395.801	-218.96
396.015	245.93
396.228	213.16
396.442	-304.98
396.656	-362.32
396.869	370.85
397.083	319.65
397.297	-180.05
397.51	-139.09
397.724	366.76
397.938	88.23
398.151	-393.04
398.365	-274.26
398.578	204.97
398.792	368.81
399.005	-110.42
399.219	-102.23
399.433	96.43
399.646	147.62
399.86	-26.45
400.073	-89.94
400.287	172.2
400.5	-61.27
400.714	-38.74
400.927	-137.04
401.141	110.76
401.354	1048.73
401.567	161.96
401.781	-257.87
401.994	254.12
402.208	618.66
402.421	-141.14
402.635	-130.9
402.848	22.7
403.061	276.65
403.275	-67.41
403.488	-292.69
403.701	442.53
403.915	192.68
404.128	-1.88
404.341	-188.24
404.555	123.05
404.768	-12.12
404.981	-14.17
405.195	-165.71
405.408	524.45
405.621	215.21
405.834	-12.12
406.048	-341.84
406.261	422.05
406.474	405.67
406.687	-241.49
406.9	-22.36
407.114	-16.21
407.327	110.76
407.54	-311.12
407.753	-372.56
407.966	-173.91
408.179	139.43
408.392	-227.15
408.605	-372.56
408.819	125.1
409.032	258.21
409.245	-225.11
409.458	-18.26
409.671	174.25
409.884	284.84
410.097	-347.98
410.31	67.75
410.523	254.12
410.736	-32.6
410.949	-83.8
411.162	-206.67
411.375	315.56
411.588	245.93
411.801	-3.93
412.014	-173.91
412.227	57.51
412.44	-77.65
412.653	-194.39
412.865	28.84
413.078	313.51
413.291	186.54
413.504	-94.04
413.717	-278.35
413.93	207.02
414.143	-165.71
414.356	-110.42
414.568	-360.27
414.781	166.06
414.994	94.38
415.207	-114.52
415.42	-126.8
415.632	159.91
415.845	417.96
416.058	-294.74
416.271	-282.45
416.483	45.23
416.696	532.64
416.909	-212.82
417.121	-278.35
417.334	186.54
417.547	528.55
417.759	-268.11
417.972	-313.17
418.185	-96.08
418.397	176.3
418.61	-171.86
418.823	-241.49
419.035	356.52
419.248	22.7
419.46	-141.14
419.673	-104.28
419.885	135.34
420.098	-28.5
420.311	-178
420.523	-384.85
420.736	151.72
420.948	-14.17
421.161	-178
421.373	-380.75
421.586	47.27
421.798	-159.57
422.01	-384.85
422.223	-145.24
422.435	-157.52
422.648	170.15
422.86	-149.33
423.073	-194.39
423.285	241.83
423.497	-239.44
423.71	-243.54
423.922	-255.83
424.134	145.58
424.347	417.96
424.559	-51.03
424.771	8.36
424.984	-20.31
425.196	207.02
425.408	-345.94
425.621	-352.08
425.833	258.21
426.045	274.6
426.257	-204.63
426.47	-190.29
426.682	22.7
426.894	159.91
427.106	-225.11
427.318	-171.86
427.531	-229.2
427.743	159.91
427.955	-155.47
428.167	319.65
428.379	108.71
428.591	-89.94
428.804	-110.42
429.016	-249.68
429.228	-83.8
429.44	184.49
429.652	-85.84
429.864	-446.29
430.076	-36.69
430.288	-8.02
430.5	-186.19
430.712	-143.19
430.924	217.26
431.136	118.95
431.348	-388.94
431.56	-259.92
431.772	-44.88
431.984	-102.23
432.196	-259.92
432.408	-225.11
432.62	-126.8
432.832	96.43
433.044	-10.07
433.256	-108.37
433.468	233.64
433.679	-376.66
433.891	-296.78
434.103	-85.84
434.315	336.04
434.527	110.76
434.739	-126.8
434.95	-212.82
435.162	278.69
435.374	-130.9
435.586	-208.72
435.798	-202.58
436.009	-175.95
436.221	6.31
436.433	-249.68
436.645	-208.72
436.856	-188.24
437.068	284.84
437.28	-237.39
437.491	73.9
437.703	86.19
437.915	121
438.126	-180.05
438.338	61.61
438.55	28.84
438.761	96.43
438.973	-214.87
439.184	-225.11
439.396	118.95
439.608	184.49
439.819	-278.35
440.031	-53.08
440.242	172.2
440.454	127.14
440.665	-247.63
440.877	-102.23
441.088	73.9
441.3	-102.23
441.511	-356.18
441.723	-223.06
441.934	176.3
442.146	45.23
442.357	-38.74
442.569	22.7
442.78	-28.5
442.991	325.8
443.203	61.61
443.414	-345.94
443.626	354.47
443.837	-112.47
444.048	-282.45
444.26	-374.61
444.471	12.46
444.682	262.31
444.894	-382.8
445.105	-337.74
445.316	118.95
445.528	67.75
445.739	-73.56
445.95	-157.52
446.161	86.19
446.373	270.5
446.584	-264.02
446.795	-268.11
447.006	196.78
447.217	299.17
447.429	-345.94
447.64	-307.02
447.851	295.08
448.062	75.95
448.273	-378.7
448.484	-225.11
448.695	75.95
448.907	49.32
449.118	-161.62
449.329	-48.98
449.54	-87.89
449.751	-200.53
449.962	-180.05
450.173	-278.35
450.384	307.37
450.595	270.5
450.806	-323.41
451.017	-206.67
451.228	282.79
451.439	223.4
451.65	-188.24
451.861	-380.75
452.072	-221.01
452.283	-34.64
452.494	-10.07
452.705	-257.87
452.915	325.8
453.126	98.47
453.337	-130.9
453.548	-173.91
453.759	219.3
453.97	571.55
454.181	6.31
454.391	-212.82
454.602	-34.64
454.813	129.19
455.024	-114.52
455.235	-241.49
455.445	88.23
455.656	41.13
455.867	-40.79
456.078	-221.01
456.288	-157.52
456.499	104.62
456.71	-241.49
456.921	-46.93
457.131	73.9
457.342	110.76
457.553	-96.08
457.763	-302.93
457.974	198.82
458.184	141.48
458.395	-278.35
458.606	-413.52
458.816	225.45
459.027	422.05
459.237	-51.03
459.448	-466.77
459.659	309.41
459.869	534.69
460.08	-419.66
460.29	-91.99
460.501	405.67
460.711	-159.57
460.922	-407.38
461.132	-264.02
461.343	706.72
461.553	-298.83
461.764	-315.22
461.974	-225.11
462.184	204.97
462.395	4.27
462.605	-180.05
462.816	-309.07
463.026	104.62
463.236	354.47
463.447	-302.93
463.657	-288.59
463.867	164.01
464.078	-36.69
464.288	-264.02
464.498	-257.87
464.709	73.9
464.919	-46.93
465.129	-135
465.339	-374.61
465.55	69.8
465.76	225.45
465.97	-159.57
466.18	-284.5
466.391	227.5
466.601	159.91
466.811	-188.24
467.021	-372.56
467.231	39.08
467.441	290.98
467.651	-200.53
467.862	-542.54
468.072	-51.03
468.282	221.35
468.492	-302.93
468.702	-225.11
468.912	2.22
469.122	581.79
469.332	51.37
469.542	-233.3
469.752	219.3
469.962	59.56
470.172	-364.37
470.382	-427.85
470.592	258.21
470.802	213.16
471.012	-151.38
471.222	-304.98
471.432	204.97
471.642	112.81
471.852	-206.67
472.062	-296.78
472.272	-126.8
472.482	-229.2
472.691	-384.85
472.901	-327.5
473.111	-36.69
473.321	553.12
473.531	-339.79
473.741	-141.14
473.95	94.38
474.16	110.76
474.37	-155.47
474.58	-335.7
474.79	389.28
474.999	157.86
475.209	-311.12
475.419	-237.39
475.628	-77.65
475.838	211.11
476.048	-255.83
476.258	-356.18
476.467	342.18
476.677	-173.91
476.886	-53.08
477.096	-124.76
477.306	-167.76
477.515	233.64
477.725	-165.71
477.935	-175.95
478.144	329.89
478.354	-159.57
478.563	-188.24
478.773	-304.98
478.982	209.06
479.192	264.36
479.401	-77.65
479.611	-362.32
479.82	-188.24
480.03	61.61
480.239	-347.98
480.449	-421.71
480.658	411.81
480.868	-147.28
481.077	-169.81
481.287	-206.67
481.496	172.2
481.705	401.57
481.915	-32.6
482.124	-77.65
482.333	14.51
482.543	348.33
482.752	-108.37
482.961	-333.65
483.171	104.62
483.38	-79.7
483.589	-261.97
483.799	-309.07
484.008	10.41
484.217	204.97
484.426	-272.21
484.636	-370.51
484.845	16.55
485.054	-356.18
485.263	75.95
485.472	-264.02
485.682	413.86
485.891	65.71
486.1	-477.01
486.309	-288.59
486.518	204.97
486.727	360.61
486.936	-274.26
487.146	-61.27
487.355	321.7
487.564	-218.96
487.773	-186.19
487.982	-247.63
488.191	-130.9
488.4	37.03
488.609	-274.26
488.818	-167.76
489.027	499.88
489.236	368.81
489.445	-225.11
489.654	-311.12
489.863	262.31
490.072	16.55
490.281	0.17
490.49	-253.78
490.698	364.71
490.907	442.53
491.116	-241.49
491.325	-384.85
491.534	434.34
491.743	112.81
491.952	-188.24
492.16	-116.56
492.369	194.73
492.578	227.5
492.787	-208.72
492.996	-411.47
493.204	-87.89
493.413	479.4
493.622	-515.92
493.831	-452.43
494.039	391.33
494.248	-208.72
494.457	-321.36
494.665	-327.5
494.874	110.76
495.083	432.29
495.291	-198.48
495.5	-343.89
495.709	176.3
495.917	37.03
496.126	-167.76
496.335	-278.35
496.543	-114.52
496.752	131.24
496.96	-26.45
497.169	-370.51
497.377	12.46
497.586	295.08
497.794	-104.28
498.003	-462.67
498.211	-18.26
498.42	385.19
498.628	-159.57
498.837	-331.6
499.045	116.9
499.254	84.14
499.462	-347.98
499.671	-319.31
499.879	426.15
500.087	233.64
500.296	-270.16
500.504	-307.02
500.713	41.13
500.921	534.69
501.129	-307.02
501.338	-261.97
501.546	131.24
501.754	55.47
501.962	-253.78
502.171	-341.84
502.379	145.58
502.587	432.29
502.795	-257.87
503.004	-235.35
503.212	-1.88
503.42	180.39
503.628	-276.31
503.837	-194.39
504.045	215.21
504.253	329.89
504.461	-266.07
504.669	-393.04
504.877	106.67
505.085	348.33
505.294	-372.56
505.502	-57.17
505.71	61.61
505.918	164.01
506.126	-323.41
506.334	-327.5
506.542	2.22
506.75	157.86
506.958	-143.19
507.166	-255.83
507.374	-147.28
507.582	389.28
507.79	-139.09
507.998	-282.45
508.206	94.38
508.414	155.82
508.622	-315.22
508.83	-247.63
509.037	426.15
509.245	-18.26
509.453	-337.74
509.661	-417.61
509.869	192.68
510.077	-75.6
510.285	-147.28
510.492	-563.02
510.7	549.03
510.908	-38.74
511.116	-216.91
511.324	-352.08
511.531	-42.84
511.739	63.66
511.947	-216.91
512.155	28.84
512.362	127.14
512.57	-278.35
512.778	-388.94
512.985	-520.01
513.193	301.22
513.401	397.48
513.608	-196.43
513.816	-223.06
514.024	166.06
514.231	313.51
514.439	-221.01
514.646	-292.69
514.854	159.91
515.061	311.46
515.269	-278.35
515.477	-261.97
515.684	-221.01
515.892	235.69
516.099	-378.7
516.307	-450.38
516.514	200.87
516.722	442.53
516.929	-266.07
517.136	-309.07
517.344	372.9
517.551	55.47
517.759	-282.45
517.966	-286.54
518.173	-155.47
518.381	-24.4
518.588	-251.73
518.796	-405.33
519.003	104.62
519.21	-81.75
519.418	-307.02
519.625	4.27
519.832	16.55
520.039	168.1
520.247	-388.94
520.454	-261.97
520.661	245.93
520.868	112.81
521.076	-294.74
521.283	-255.83
521.49	608.42
521.697	192.68
521.904	-321.36
522.112	-298.83
522.319	278.69
522.526	63.66
522.733	-317.26
522.94	-360.27
523.147	12.46
523.354	235.69
523.561	-477.01
523.768	-157.52
523.975	241.83
524.183	0.17
524.39	-159.57
524.597	-390.99
524.804	-24.4
525.011	-135
525.218	-261.97
525.425	-233.3
525.632	352.42
525.838	-210.77
526.045	-300.88
526.252	-302.93
526.459	1212.57
526.666	899.23
526.873	-358.22
527.08	-266.07
527.287	424.1
527.494	176.3
527.701	-446.29
527.907	-364.37
528.114	131.24
528.321	-14.17
528.528	-237.39
528.735	-339.79
528.941	-112.47
529.148	-135
529.355	-171.86
529.562	-323.41
529.768	299.17
529.975	-102.23
530.182	-145.24
530.388	-372.56
530.595	198.82
530.802	-257.87
531.008	-135
531.215	-208.72
531.422	374.95
531.628	764.06
531.835	-167.76
532.042	-196.43
532.248	-79.7
532.455	30.89
532.661	-216.91
532.868	-345.94
533.074	116.9
533.281	215.21
533.487	-231.25
533.694	-356.18
533.9	-296.78
534.107	20.65
534.313	-345.94
534.52	-356.18
534.726	174.25
534.933	542.88
535.139	-339.79
535.345	-390.99
535.552	86.19
535.758	-34.64
535.965	-221.01
536.171	-315.22
536.377	250.02
536.584	360.61
536.79	-268.11
536.996	-192.34
537.203	0.17
537.409	223.4
537.615	-216.91
537.821	-110.42
538.028	286.89
538.234	129.19
538.44	-274.26
538.646	-253.78
538.853	161.96
539.059	-32.6
539.265	190.63
539.471	-397.14
539.677	266.41
539.883	-157.52
540.09	-374.61
540.296	94.38
540.502	24.75
540.708	-116.56
540.914	-132.95
541.12	-294.74
541.326	155.82
541.532	16.55
541.738	-173.91
541.944	-204.63
542.15	258.21
542.356	-94.04
542.562	-313.17
542.768	-163.67
542.974	645.28
543.18	458.92
543.386	-237.39
543.592	-495.44
543.798	252.07
544.004	364.71
544.21	-329.55
544.415	-139.09
544.621	37.03
544.827	237.74
545.033	-294.74
545.239	-143.19
545.445	-194.39
545.651	45.23
545.856	-268.11
546.062	-282.45
546.268	-98.13
546.474	-79.7
546.679	-323.41
546.885	-245.59
547.091	-106.32
547.297	555.17
547.502	-225.11
547.708	-390.99
547.914	-135
548.119	176.3
548.325	-358.22
548.531	-356.18
548.736	405.67
548.942	-223.06
549.147	-292.69
549.353	-38.74
549.559	274.6
549.764	37.03
549.97	-311.12
550.175	-243.54
550.381	147.62
550.586	-36.69
550.792	-266.07
550.997	-239.44
551.203	161.96
551.408	149.67
551.614	-333.65
551.819	-296.78
552.025	399.52
552.23	497.83
552.435	-331.6
552.641	-214.87
552.846	-151.38
553.052	233.64
553.257	-204.63
553.462	-282.45
553.668	-169.81
553.873	207.02
554.078	-274.26
554.283	-323.41
554.489	86.19
554.694	4.27
554.899	-399.18
555.105	-135
555.31	252.07
555.515	256.17
555.72	-212.82
555.925	-388.94
556.131	176.3
556.336	-153.43
556.541	-354.13
556.746	-436.05
556.951	348.33
557.156	319.65
557.361	-180.05
557.567	-200.53
557.772	463.01
557.977	207.02
558.182	-319.31
558.387	-282.45
558.592	-139.09
558.797	284.84
559.002	-214.87
559.207	-251.73
559.412	2.22
559.617	475.3
559.822	-311.12
560.027	-331.6
560.232	39.08
560.437	235.69
560.642	-434
560.847	-397.14
561.051	-44.88
561.256	168.1
561.461	-210.77
561.666	-390.99
561.871	16.55
562.076	209.06
562.281	-214.87
562.485	-397.14
562.69	155.82
562.895	250.02
563.1	-290.64
563.305	-360.27
563.509	299.17
563.714	508.07
563.919	-255.83
564.123	-319.31
564.328	-77.65
564.533	290.98
564.737	-237.39
564.942	-274.26
565.147	426.15
565.351	450.72
565.556	-175.95
565.761	-188.24
565.965	96.43
566.17	-196.43
566.374	-264.02
566.579	-446.29
566.784	49.32
566.988	-180.05
567.193	-483.15
567.397	-288.59
567.602	-309.07
567.806	-94.04
568.011	-235.35
568.215	-272.21
568.42	-3.93
568.624	-124.76
568.828	-352.08
569.033	-57.17
569.237	231.59
569.442	94.38
569.646	-376.66
569.85	-321.36
570.055	-61.27
570.259	164.01
570.463	-118.61
570.668	-296.78
570.872	-28.5
571.076	22.7
571.281	-180.05
571.485	-175.95
571.689	69.8
571.893	155.82
572.098	-149.33
572.302	-270.16
572.506	114.86
572.71	28.84
572.914	-184.15
573.119	-237.39
573.323	374.95
573.527	268.45
573.731	-274.26
573.935	-436.05
574.139	104.62
574.343	-159.57
574.547	-331.6
574.751	-253.78
574.955	270.5
575.159	397.48
575.364	-278.35
575.568	-352.08
575.772	-40.79
575.976	323.75
576.18	-356.18
576.383	-507.73
576.587	250.02
576.791	133.29
576.995	-503.63
577.199	-460.62
577.403	229.54
577.607	250.02
577.811	-470.86
578.015	-233.3
578.219	147.62
578.422	149.67
578.626	-192.34
578.83	-167.76
579.034	227.5
579.238	77.99
579.442	-407.38
579.645	106.67
579.849	30.89
580.053	14.51
580.257	-247.63
580.46	-151.38
580.664	225.45
580.868	174.25
581.071	-161.62
581.275	-124.76
581.479	-331.6
581.682	121
581.886	-337.74
582.09	-286.54
582.293	192.68
582.497	276.65
582.7	-85.84
582.904	-243.54
583.107	6.31
583.311	-12.12
583.515	-266.07
583.718	-292.69
583.922	151.72
584.125	454.82
584.329	-327.5
584.532	-85.84
584.735	301.22
584.939	211.11
585.142	-393.04
585.346	-364.37
585.549	135.34
585.753	-85.84
585.956	-245.59
586.159	-102.23
586.363	495.78
586.566	43.18
586.769	-241.49
586.973	-393.04
587.176	98.47
587.379	250.02
587.582	12.46
587.786	-40.79
587.989	-18.26
588.192	626.85
588.395	-214.87
588.599	-108.37
588.802	51.37
589.005	190.63
589.208	-294.74
589.411	-331.6
589.615	219.3
589.818	372.9
590.021	2.22
590.224	-173.91
590.427	194.73
590.63	92.33
590.833	-388.94
591.036	-384.85
591.239	-108.37
591.442	-122.71
591.645	-100.18
591.848	-384.85
592.051	102.57
592.254	262.31
592.457	-192.34
592.66	-180.05
592.863	-106.32
593.066	194.73
593.269	-253.78
593.472	-229.2
593.675	-225.11
593.878	190.63
594.081	-171.86
594.284	-307.02
594.486	198.82
594.689	-30.55
594.892	-173.91
595.095	-251.73
595.298	198.82
595.5	-128.85
595.703	-180.05
595.906	-98.13
596.109	301.22
596.311	219.3
596.514	-515.92
596.717	-212.82
596.92	348.33
597.122	71.85
597.325	-493.39
597.528	-270.16
597.73	274.6
597.933	28.84
598.136	-296.78
598.338	-470.86
598.541	135.34
598.743	288.93
598.946	-300.88
599.148	-231.25
599.351	280.74
599.554	137.38
599.756	-126.8
599.959	-184.15
600.161	344.23
600.363	600.23
600.566	-20.31
600.768	-286.54
600.971	405.67
601.173	143.53
601.376	-313.17
601.578	-192.34
601.78	88.23
601.983	561.31
602.185	-313.17
602.388	-118.61
602.59	131.24
602.792	-155.47
602.995	-24.4
603.197	-364.37
603.399	254.12
603.601	123.05
603.804	-184.15
604.006	-302.93
604.208	0.17
604.41	-388.94
604.613	-116.56
604.815	-223.06
605.017	530.59
605.219	-132.95
605.421	227.5
605.623	-194.39
605.826	329.89
606.028	381.09
606.23	-196.43
606.432	-161.62
606.634	389.28
606.836	303.27
607.038	-339.79
607.24	-87.89
607.442	18.6
607.644	92.33
607.846	-137.04
608.048	-345.94
608.25	331.94
608.452	-132.95
608.654	-180.05
608.856	-425.81
609.058	12.46
609.26	90.28
609.462	-165.71
609.664	-175.95
609.866	448.68
610.067	268.45
610.269	-118.61
610.471	-198.48
610.673	-100.18
610.875	149.67
611.077	-405.33
611.278	-173.91
611.48	20.65
611.682	481.44
611.884	-198.48
612.085	-212.82
612.287	-135
612.489	110.76
612.69	-409.42
612.892	-190.29
613.094	247.97
613.295	114.86
613.497	-364.37
613.699	-186.19
613.9	438.44
614.102	333.99
614.304	-198.48
614.505	-382.8
614.707	-48.98
614.908	24.75
615.11	-354.13
615.311	-233.3
615.513	166.06
615.714	286.89
615.916	-321.36
616.117	-155.47
616.319	57.51
616.52	295.08
616.722	-313.17
616.923	-243.54
617.124	237.74
617.326	227.5
617.527	-200.53
617.729	-69.46
617.93	215.21
618.131	262.31
618.333	-249.68
618.534	-216.91
618.735	-165.71
618.937	422.05
619.138	-393.04
619.339	-221.01
619.54	118.95
619.742	-14.17
619.943	-81.75
620.144	-198.48
620.345	221.35
620.546	270.5
620.748	-264.02
620.949	-147.28
621.15	37.03
621.351	94.38
621.552	-253.78
621.753	-345.94
621.954	-317.26
622.155	653.47
622.356	-403.28
622.558	-42.84
622.759	77.99
622.96	460.96
623.161	-167.76
623.362	-268.11
623.563	57.51
623.764	80.04
623.965	-200.53
624.166	12.46
624.366	12.46
624.567	153.77
624.768	-425.81
624.969	-218.96
625.17	-28.5
625.371	159.91
625.572	-102.23
625.773	-216.91
625.973	227.5
626.174	264.36
626.375	-124.76
626.576	-159.57
626.777	129.19
626.977	602.27
627.178	-214.87
627.379	-165.71
627.58	6.31
627.78	90.28
627.981	-188.24
628.182	-102.23
628.382	286.89
628.583	-233.3
628.784	-425.81
628.984	-24.4
629.185	272.55
629.386	270.5
629.586	-143.19
629.787	-237.39
629.987	188.58
630.188	-24.4
630.388	-167.76
630.589	-186.19
630.79	622.75
630.99	114.86
631.191	-128.85
631.391	-94.04
631.591	233.64
631.792	512.16
631.992	-126.8
632.193	-216.91
632.393	434.34
632.594	10.41
632.794	-286.54
632.994	-114.52
633.195	80.04
633.395	116.9
633.595	-233.3
633.796	82.09
633.996	-69.46
634.196	399.52
634.397	-397.14
634.597	-71.51
634.797	-106.32
634.997	440.48
635.198	-28.5
635.398	-261.97
635.598	73.9
635.798	317.61
635.998	274.6
636.199	-255.83
636.399	-85.84
636.599	-196.43
636.799	-184.15
636.999	63.66
637.199	221.35
637.399	260.26
637.599	-270.16
637.799	-20.31
637.999	-77.65
638.199	409.76
638.399	-259.92
638.599	-118.61
638.799	141.48
638.999	565.41
639.199	-51.03
639.399	-139.09
639.599	356.52
639.799	-102.23
639.999	-241.49
640.199	-294.74
640.399	254.12
640.599	180.39
640.799	-190.29
640.998	20.65
641.198	290.98
641.398	241.83
641.598	-57.17
641.798	-147.28
641.997	905.37
642.197	53.42
642.397	-96.08
642.597	-157.52
642.796	229.54
642.996	360.61
643.196	-16.21
643.395	-261.97
643.595	159.91
643.795	-298.83
643.994	-161.62
644.194	-81.75
644.394	262.31
644.593	118.95
644.793	-309.07
644.992	26.79
645.192	225.45
645.392	-274.26
645.591	-16.21
645.791	-153.43
645.99	241.83
646.19	59.56
646.389	-147.28
646.589	-182.1
646.788	282.79
646.987	241.83
647.187	-3.93
647.386	8.36
647.586	98.47
647.785	327.85
647.984	-171.86
648.184	-110.42
648.383	-137.04
648.582	-44.88
648.782	-114.52
648.981	-85.84
649.18	-114.52
649.38	164.01
649.579	-186.19
649.778	-214.87
649.977	192.68
650.177	180.39
650.376	-245.59
650.575	-171.86
650.774	403.62
650.973	-59.22
651.173	-296.78
651.372	-81.75
651.571	143.53
651.77	331.94
651.969	-100.18
652.168	-89.94
652.367	-180.05
652.566	293.03
652.765	-190.29
652.964	90.28
653.163	546.98
653.362	0.17
653.561	-102.23
653.76	-159.57
653.959	82.09
654.158	284.84
654.357	192.68
654.556	-167.76
654.755	229.54
654.954	340.13
655.153	-44.88
655.352	-24.4
655.551	383.14
655.749	-112.47
655.948	12.46
656.147	-73.56
656.346	178.34
656.545	41.13
656.743	10.41
656.942	-42.84
657.141	47.27
657.34	-91.99
657.538	-79.7
657.737	-61.27
657.936	-40.79
658.135	123.05
658.333	-106.32
658.532	-22.36
658.731	532.64
658.929	348.33
659.128	82.09
659.326	-175.95
659.525	346.28
659.724	180.39
659.922	-360.27
660.121	-227.15
660.319	239.78
660.518	-69.46
660.716	-223.06
660.915	-257.87
661.113	442.53
661.312	-212.82
661.51	-77.65
661.709	-227.15
661.907	305.32
662.105	501.92
662.304	-165.71
662.502	-44.88
662.701	432.29
662.899	69.8
663.097	211.11
663.296	-257.87
663.494	340.13
663.692	456.87
663.891	-167.76
664.089	-268.11
664.287	276.65
664.485	440.48
664.684	-192.34
664.882	-8.02
665.08	125.1
665.278	90.28
665.476	-302.93
665.675	209.06
665.873	493.73
666.071	317.61
666.269	-151.38
666.467	133.29
666.665	192.68
666.863	61.61
667.061	77.99
667.259	-139.09
667.457	129.19
667.655	229.54
667.853	-231.25
668.051	-32.6
668.249	-85.84
668.447	229.54
668.645	-173.91
668.843	73.9
669.041	260.26
669.239	77.99
669.437	12.46
669.635	-8.02
669.833	-3.93
670.031	305.32
670.229	8.36
670.426	-24.4
670.624	8.36
670.822	-114.52
671.02	-89.94
671.218	-135
671.415	-108.37
671.613	159.91
671.811	88.23
672.009	-137.04
672.206	313.51
672.404	155.82
672.602	71.85
672.799	-36.69
672.997	229.54
673.195	319.65
673.392	-12.12
673.59	-192.34
673.788	399.52
673.985	-456.53
674.183	-110.42
674.38	-116.56
674.578	342.18
674.775	-120.66
674.973	-192.34
675.17	-270.16
675.368	444.58
675.565	237.74
675.763	-173.91
675.96	-151.38
676.158	407.72
676.355	110.76
676.553	-141.14
676.75	-75.6
676.947	102.57
677.145	12.46
677.342	-44.88
677.539	-53.08
677.737	135.34
677.934	661.66
678.131	49.32
678.329	-200.53
678.526	587.94
678.723	274.6
678.92	16.55
679.118	-55.12
679.315	-143.19
679.512	516.26
679.709	-98.13
679.906	-44.88
680.104	397.48
680.301	123.05
680.498	-198.48
680.695	-182.1
680.892	-16.21
681.089	-65.36
681.286	12.46
681.483	-204.63
681.68	243.88
681.877	366.76
682.075	-46.93
682.272	143.53
682.469	182.44
682.665	-32.6
682.862	-161.62
683.059	-239.44
683.256	221.35
683.453	86.19
683.65	47.27
683.847	-135
684.044	51.37
684.241	-67.41
684.438	41.13
684.635	-186.19
684.831	546.98
685.028	594.08
685.225	-59.22
685.422	92.33
685.619	133.29
685.815	204.97
686.012	-28.5
686.209	-16.21
686.405	-155.47
686.602	319.65
686.799	-192.34
686.996	-212.82
687.192	-96.08
687.389	653.47
687.586	-200.53
687.782	-81.75
687.979	626.85
688.175	381.09
688.372	-28.5
688.568	-51.03
688.765	8.36
688.962	481.44
689.158	37.03
689.355	-261.97
689.551	299.17
689.748	24.75
689.944	14.51
690.14	-255.83
690.337	360.61
690.533	47.27
690.73	145.58
690.926	-22.36
691.123	233.64
691.319	131.24
691.515	-165.71
691.712	59.56
691.908	362.66
692.104	159.91
692.301	59.56
692.497	-124.76
692.693	368.81
692.889	397.48
693.086	88.23
693.282	-266.07
693.478	92.33
693.674	553.12
693.87	-61.27
694.067	-159.57
694.263	225.45
694.459	92.33
694.655	94.38
694.851	127.14
695.047	280.74
695.243	360.61
695.439	53.42
695.635	-87.89
695.831	307.37
696.027	274.6
696.224	-130.9
696.42	268.45
696.615	538.79
696.811	278.69
697.007	-221.01
697.203	-108.37
697.399	274.6
697.595	473.25
697.791	-26.45
697.987	77.99
698.183	-110.42
698.379	-36.69
698.575	4.27
698.77	6.31
698.966	331.94
699.162	450.72
699.358	43.18
699.554	-42.84
699.749	313.51
699.945	360.61
700.141	84.14
700.337	100.52
700.532	200.87
700.728	53.42
700.924	-79.7
701.119	-173.91
701.315	299.17
701.511	106.67
701.706	0.17
701.902	-227.15
702.097	254.12
702.293	342.18
702.489	-8.02
702.684	20.65
702.88	102.57
703.075	73.9
703.271	-44.88
703.466	-73.56
703.662	188.58
703.857	307.37
704.053	-89.94
704.248	-32.6
704.443	254.12
704.639	348.33
704.834	-12.12
705.03	-44.88
705.225	389.28
705.42	432.29
705.616	73.9
705.811	-55.12
706.006	63.66
706.202	92.33
706.397	-36.69
706.592	-42.84
706.787	247.97
706.983	233.64
707.178	227.5
707.373	18.6
707.568	372.9
707.763	436.39
707.959	-65.36
708.154	14.51
708.349	311.46
708.544	264.36
708.739	178.34
708.934	-71.51
709.129	434.34
709.324	440.48
709.519	-46.93
709.714	-126.8
709.909	407.72
710.104	411.81
710.299	4.27
710.494	98.47
710.689	377
710.884	219.3
711.079	166.06
711.274	211.11
711.469	252.07
711.664	338.09
711.859	-42.84
712.054	73.9
712.249	260.26
712.443	407.72
712.638	-81.75
712.833	-106.32
713.028	209.06
713.223	102.57
713.417	178.34
713.612	-135
713.807	356.52
714.002	872.61
714.196	143.53
714.391	0.17
714.586	401.57
714.78	299.17
714.975	-12.12
715.17	-65.36
715.364	90.28
715.559	413.86
715.754	-352.08
715.948	4.27
716.143	673.95
716.337	299.17
716.532	286.89
716.726	12.46
716.921	413.86
717.115	727.2
717.31	-194.39
717.504	503.97
717.699	159.91
717.893	432.29
718.088	-81.75
718.282	-198.48
718.476	336.04
718.671	401.57
718.865	-83.8
719.059	-18.26
719.254	221.35
719.448	499.88
719.642	1368.21
719.837	-108.37
720.031	463.01
720.225	460.96
720.419	82.09
720.614	-14.17
720.808	446.63
721.002	112.81
721.196	-100.18
721.39	-24.4
721.585	594.08
721.779	336.04
721.973	47.27
722.167	-143.19
722.361	297.13
722.555	532.64
722.749	-1.88
722.943	-36.69
723.137	0.17
723.331	366.76
723.525	102.57
723.719	-14.17
723.913	438.44
724.107	569.51
724.301	-89.94
724.495	98.47
724.689	594.08
724.883	587.94
725.077	-106.32
725.271	-24.4
725.465	520.35
725.659	178.34
725.853	63.66
726.046	-165.71
726.24	88.23
726.434	495.78
726.628	-73.56
726.822	2.22
727.015	573.6
727.209	538.79
727.403	94.38
727.596	-161.62
727.79	473.25
727.984	489.64
728.177	20.65
728.371	82.09
728.565	454.82
728.758	14.51
728.952	-59.22
729.146	-57.17
729.339	532.64
729.533	235.69
729.726	96.43
729.92	-67.41
730.113	557.22
730.307	282.79
730.5	-67.41
730.694	-28.5
730.887	239.78
731.081	389.28
731.274	-77.65
731.468	102.57
731.661	247.97
731.854	161.96
732.048	-73.56
732.241	-110.42
732.435	88.23
732.628	340.13
732.821	178.34
733.014	-96.08
733.208	-1.88
733.401	356.52
733.594	-26.45
733.788	114.86
733.981	508.07
734.174	303.27
734.367	55.47
734.56	141.48
734.754	473.25
734.947	280.74
735.14	12.46
735.333	75.95
735.526	432.29
735.719	129.19
735.912	14.51
736.105	-16.21
736.298	286.89
736.491	264.36
736.684	-18.26
736.877	-42.84
737.07	389.28
737.263	567.46
737.456	37.03
737.649	-40.79
737.842	135.34
738.035	317.61
738.228	0.17
738.421	301.22
738.614	602.27
738.807	471.2
739	-159.57
739.192	-94.04
739.385	520.35
739.578	415.91
739.771	278.69
739.964	65.71
740.156	342.18
740.349	227.5
740.542	278.69
740.735	-137.04
740.927	28.84
741.12	49.32
741.313	-71.51
741.505	53.42
741.698	409.76
741.891	356.52
742.083	168.1
742.276	102.57
742.468	295.08
742.661	186.54
742.854	8.36
743.046	24.75
743.239	649.38
743.431	245.93
743.624	159.91
743.816	-151.38
744.009	231.59
744.201	377
744.393	258.21
744.586	-100.18
744.778	579.75
744.971	241.83
745.163	98.47
745.355	211.11
745.548	290.98
745.74	188.58
745.932	164.01
746.125	-98.13
746.317	833.69
746.509	364.71
746.702	57.51
746.894	219.3
747.086	428.2
747.278	589.99
747.471	229.54
747.663	112.81
747.855	340.13
748.047	604.32
748.239	20.65
748.431	69.8
748.623	579.75
748.815	694.43
749.008	-118.61
749.2	-28.5
749.392	426.15
749.584	489.64
749.776	190.63
749.968	155.82
750.16	868.51
750.352	280.74
750.544	32.94
750.736	-3.93
750.928	413.86
751.12	213.16
751.311	143.53
751.503	147.62
751.695	417.96
751.887	370.85
752.079	-132.95
752.271	139.43
752.463	1122.46
752.654	549.03
752.846	118.95
753.038	47.27
753.23	133.29
753.421	520.35
753.613	129.19
753.805	327.85
753.997	559.27
754.188	520.35
754.38	-44.88
754.572	73.9
754.763	250.02
754.955	403.62
755.146	110.76
755.338	121
755.53	456.87
755.721	256.17
755.913	-40.79
756.104	-73.56
756.296	237.74
756.487	446.63
756.679	-63.32
756.87	127.14
757.062	176.3
757.253	471.2
757.445	39.08
757.636	278.69
757.827	307.37
758.019	876.7
758.21	20.65
758.401	94.38
758.593	860.32
758.784	628.9
758.975	22.7
759.167	-24.4
759.358	221.35
759.549	579.75
759.74	37.03
759.932	22.7
760.123	630.95
760.314	137.38
760.505	168.1
760.696	45.23
760.888	729.25
761.079	131.24
761.27	20.65
761.461	-100.18
761.652	757.92
761.843	176.3
762.034	55.47
762.225	299.17
762.416	348.33
762.607	391.33
762.798	86.19
762.989	41.13
763.18	1101.98
763.371	223.4
763.562	-51.03
763.753	116.9
763.944	524.45
764.135	532.64
764.326	237.74
764.517	73.9
764.708	434.34
764.899	456.87
765.089	137.38
765.28	-71.51
765.471	438.44
765.662	508.07
765.853	190.63
766.043	-28.5
766.234	497.83
766.425	551.07
766.615	71.85
766.806	-44.88
766.997	544.93
767.187	438.44
767.378	41.13
767.569	-118.61
767.759	557.22
767.95	348.33
768.141	299.17
768.331	51.37
768.522	368.81
768.712	553.12
768.903	14.51
769.093	-16.21
769.284	710.82
769.474	417.96
769.665	-94.04
769.855	-98.13
770.046	450.72
770.236	221.35
770.426	270.5
770.617	75.95
770.807	489.64
770.998	342.18
771.188	260.26
771.378	39.08
771.569	553.12
771.759	442.53
771.949	30.89
772.139	-71.51
772.33	393.38
772.52	774.3
772.71	82.09
772.9	65.71
773.09	792.73
773.281	704.67
773.471	69.8
773.661	-3.93
773.851	624.8
774.041	262.31
774.231	12.46
774.421	290.98
774.611	725.15
774.802	327.85
774.992	200.87
775.182	-10.07
775.372	301.22
775.562	589.99
775.752	-8.02
775.942	4.27
776.131	635.04
776.321	493.73
776.511	82.09
776.701	-69.46
776.891	553.12
777.081	143.53
777.271	168.1
777.461	104.62
777.651	569.51
777.84	651.42
778.03	223.4
778.22	24.75
778.41	645.28
778.599	100.52
778.789	221.35
778.979	4.27
779.169	428.2
779.358	364.71
779.548	393.38
779.738	20.65
779.927	370.85
780.117	164.01
780.307	110.76
780.496	-122.71
780.686	475.3
780.875	827.55
781.065	77.99
781.254	106.67
781.444	426.15
781.633	399.52
781.823	45.23
782.012	8.36
782.202	311.46
782.391	305.32
782.581	12.46
782.77	323.75
782.96	518.31
783.149	370.85
783.338	139.43
783.528	-124.76
783.717	680.1
783.906	706.72
784.096	278.69
784.285	-8.02
784.474	266.41
784.663	200.87
784.853	149.67
785.042	86.19
785.231	307.37
785.42	575.65
785.61	178.34
785.799	-38.74
785.988	356.52
786.177	323.75
786.366	161.96
786.555	241.83
786.744	563.36
786.933	311.46
787.122	12.46
787.312	18.6
787.501	241.83
787.69	469.16
787.879	155.82
788.068	28.84
788.257	118.95
788.445	221.35
788.634	147.62
788.823	28.84
789.012	991.39
789.201	686.24
789.39	229.54
789.579	20.65
789.768	360.61
789.957	426.15
790.145	106.67
790.334	-239.44
790.523	225.45
790.712	313.51
790.9	219.3
791.089	-36.69
791.278	614.56
791.467	467.11
791.655	377
791.844	628.9
792.033	278.69
792.221	288.93
792.41	278.69
792.599	45.23
792.787	626.85
792.976	628.9
793.164	-8.02
793.353	77.99
793.541	602.27
793.73	544.93
793.918	143.53
794.107	166.06
794.295	299.17
794.484	301.22
794.672	102.57
794.861	133.29
795.049	573.6
795.238	897.18
795.426	-44.88
795.614	184.49
795.803	463.01
795.991	678.05
796.179	90.28
796.368	174.25
796.556	622.75
796.744	182.44
796.932	75.95
797.121	12.46
797.309	362.66
797.497	594.08
797.685	106.67
797.874	127.14
798.062	303.27
798.25	716.96
798.438	100.52
798.626	170.15
798.814	501.92
799.002	981.15
799.19	245.93
799.378	186.54
799.566	692.38
799.755	766.11
799.943	264.36
800.131	67.75
800.318	524.45
800.506	538.79
800.694	178.34
800.882	276.65
801.07	721.06
801.258	360.61
801.446	118.95
801.634	84.14
801.822	385.19
802.01	438.44
802.197	77.99
802.385	254.12
802.573	506.02
802.761	239.78
802.949	215.21
803.136	-77.65
803.324	696.48
803.512	426.15
803.699	184.49
803.887	-51.03
804.075	733.34
804.262	233.64
804.45	-20.31
804.638	303.27
804.825	223.4
805.013	227.5
805.201	118.95
805.388	-42.84
805.576	358.57
805.763	831.65
805.951	168.1
806.138	389.28
806.326	854.17
806.513	520.35
806.701	250.02
806.888	112.81
807.075	456.87
807.263	774.3
807.45	-1.88
807.638	299.17
807.825	905.37
808.012	645.28
808.2	112.81
808.387	417.96
808.574	622.75
808.761	843.93
808.949	127.14
809.136	309.41
809.323	364.71
809.51	311.46
809.698	483.49
809.885	381.09
810.072	485.54
810.259	743.58
810.446	180.39
810.633	82.09
810.82	686.24
811.008	798.88
811.195	282.79
811.382	258.21
811.569	411.81
811.756	168.1
811.943	313.51
812.13	186.54
812.317	331.94
812.504	352.42
812.691	295.08
812.878	383.14
813.064	731.3
813.251	585.89
813.438	57.51
813.625	348.33
813.812	385.19
813.999	424.1
814.186	233.64
814.372	180.39
814.559	446.63
814.746	778.4
814.933	219.3
815.12	377
815.306	379.04
815.493	247.97
815.68	159.91
815.866	215.21
816.053	751.78
816.24	932
816.426	358.57
816.613	211.11
816.799	641.18
816.986	868.51
817.173	209.06
817.359	143.53
817.546	503.97
817.732	190.63
817.919	32.94
818.105	305.32
818.292	358.57
818.478	604.32
818.665	346.28
818.851	186.54
819.037	915.61
819.224	465.06
819.41	51.37
819.597	211.11
819.783	915.61
819.969	639.14
820.156	262.31
820.342	82.09
820.528	1239.19
820.714	483.49
820.901	475.3
821.087	241.83
821.273	845.98
821.459	360.61
821.646	135.34
821.832	77.99
822.018	567.46
822.204	610.47
822.39	327.85
822.576	96.43
822.762	651.42
822.948	581.79
823.134	377
823.32	188.58
823.507	186.54
823.693	540.83
823.879	571.55
824.065	223.4
824.25	628.9
824.436	258.21
824.622	227.5
824.808	168.1
824.994	280.74
825.18	315.56
825.366	168.1
825.552	217.26
825.738	456.87
825.923	731.3
826.109	405.67
826.295	233.64
826.481	377
826.667	463.01
826.852	368.81
827.038	131.24
827.224	729.25
827.409	938.14
827.595	75.95
827.781	368.81
827.966	708.77
828.152	739.49
828.338	299.17
828.523	110.76
828.709	317.61
828.894	817.31
829.08	278.69
829.266	192.68
829.451	336.04
829.637	659.62
829.822	368.81
830.008	282.79
830.193	786.59
830.378	766.11
830.564	303.27
830.749	227.5
830.935	657.57
831.12	647.33
831.305	170.15
831.491	286.89
831.676	161.96
831.861	739.49
832.047	319.65
832.232	86.19
832.417	778.4
832.602	579.75
832.788	252.07
832.973	252.07
833.158	618.66
833.343	569.51
833.528	401.57
833.714	352.42
833.899	716.96
834.084	1026.2
834.269	360.61
834.454	397.48
834.639	772.25
834.824	503.97
835.009	430.24
835.194	442.53
835.379	714.91
835.564	903.32
835.749	434.34
835.934	61.61
836.119	749.73
836.304	620.71
836.489	303.27
836.674	497.83
836.859	358.57
837.044	829.6
837.228	358.57
837.413	198.82
837.598	696.48
837.783	684.19
837.968	256.17
838.152	49.32
838.337	8.36
838.522	831.65
838.707	737.44
838.891	508.07
839.076	667.81
839.261	770.21
839.445	325.8
839.63	274.6
839.815	977.05
839.999	532.64
840.184	227.5
840.368	338.09
840.553	653.47
840.737	731.3
840.922	194.73
841.106	233.64
841.291	393.38
841.475	661.66
841.66	229.54
841.844	331.94
842.029	1333.4
842.213	266.41
842.397	364.71
842.582	168.1
842.766	882.85
842.951	823.45
843.135	356.52
843.319	315.56
843.504	669.86
843.688	772.25
843.872	45.23
844.056	180.39
844.241	620.71
844.425	454.82
844.609	516.26
844.793	24.75
844.977	821.41
845.161	659.62
845.346	211.11
845.53	352.42
845.714	501.92
845.898	983.2
846.082	108.71
846.266	290.98
846.45	561.31
846.634	645.28
846.818	272.55
847.002	399.52
847.186	743.58
847.37	245.93
847.554	301.22
847.738	438.44
847.922	581.79
848.106	628.9
848.29	176.3
848.473	243.88
848.657	704.67
848.841	389.28
849.025	278.69
849.209	77.99
849.392	714.91
849.576	563.36
849.76	170.15
849.944	469.16
850.127	891.04
850.311	284.84
850.495	168.1
850.678	147.62
850.862	813.21
851.046	907.42
851.229	620.71
851.413	207.02
851.596	639.14
851.78	379.04
851.964	495.78
852.147	405.67
852.331	1353.88
852.514	813.21
852.698	417.96
852.881	86.19
853.065	741.54
853.248	503.97
853.431	389.28
853.615	344.23
853.798	1147.03
853.982	589.99
854.165	495.78
854.348	247.97
854.532	348.33
854.715	520.35
854.898	338.09
855.081	331.94
855.265	952.48
855.448	1003.68
855.631	315.56
855.814	311.46
855.997	786.59
856.181	553.12
856.364	377
856.547	174.25
856.73	651.42
856.913	669.86
857.096	155.82
857.279	413.86
857.462	417.96
857.645	825.5
857.828	499.88
858.011	405.67
858.194	495.78
858.377	673.95
858.56	254.12
858.743	346.28
858.926	397.48
859.109	747.68
859.292	307.37
859.475	147.62
859.658	944.28
859.841	727.2
860.023	147.62
860.206	157.86
860.389	594.08
860.572	915.61
860.755	299.17
860.937	331.94
861.12	549.03
861.303	536.74
861.486	303.27
861.668	233.64
861.851	733.34
862.034	686.24
862.216	506.02
862.399	141.48
862.581	673.95
862.764	1007.77
862.947	370.85
863.129	217.26
863.312	381.09
863.494	960.67
863.677	616.61
863.859	129.19
864.042	819.36
864.224	856.22
864.406	374.95
864.589	178.34
864.771	774.3
864.954	241.83
865.136	317.61
865.318	151.72
865.501	749.73
865.683	229.54
865.865	340.13
866.048	309.41
866.23	700.58
866.412	596.13
866.594	211.11
866.777	424.1
866.959	751.78
867.141	454.82
867.323	657.57
867.505	516.26
867.687	577.7
867.869	596.13
868.052	276.65
868.234	188.58
868.416	645.28
868.598	802.97
868.78	442.53
868.962	333.99
869.144	782.49
869.326	721.06
869.508	274.6
869.69	192.68
869.872	485.54
870.054	798.88
870.236	172.2
870.417	260.26
870.599	508.07
870.781	917.66
870.963	417.96
871.145	243.88
871.327	327.85
871.508	794.78
871.69	383.14
871.872	364.71
872.054	581.79
872.235	702.62
872.417	405.67
872.599	299.17
872.78	909.47
872.962	696.48
873.144	217.26
873.325	340.13
873.507	1026.2
873.689	585.89
873.87	170.15
874.052	483.49
874.233	581.79
874.415	831.65
874.596	315.56
874.778	213.16
874.959	602.27
875.141	864.41
875.322	379.04
875.503	247.97
875.685	737.44
875.866	327.85
876.048	194.73
876.229	237.74
876.41	635.04
876.592	684.19
876.773	276.65
876.954	127.14
877.136	987.29
877.317	546.98
877.498	237.74
877.679	469.16
877.86	673.95
878.042	503.97
878.223	301.22
878.404	602.27
878.585	733.34
878.766	1079.45
878.947	635.04
879.128	499.88
879.309	823.45
879.49	874.65
879.672	454.82
879.853	438.44
880.034	493.73
880.215	522.4
880.396	348.33
880.576	366.76
880.757	417.96
880.938	950.43
881.119	256.17
881.3	288.93
881.481	516.26
881.662	1333.4
881.843	196.78
882.023	182.44
882.204	680.1
882.385	700.58
882.566	340.13
882.747	260.26
882.927	514.21
883.108	751.78
883.289	372.9
883.469	544.93
883.65	483.49
883.831	682.14
884.011	583.84
884.192	465.06
884.373	888.99
884.553	684.19
884.734	563.36
884.914	676
885.095	1288.34
885.275	1073.31
885.456	659.62
885.636	290.98
885.817	676
885.997	639.14
886.178	325.8
886.358	426.15
886.538	596.13
886.719	1712.27
886.899	336.04
887.08	489.64
887.26	1015.96
887.44	397.48
887.621	309.41
887.801	522.4
887.981	1151.13
888.161	807.07
888.342	442.53
888.522	391.33
888.702	903.32
888.882	888.99
889.062	614.56
889.242	256.17
889.423	1036.44
889.603	823.45
889.783	565.41
889.963	424.1
890.143	774.3
890.323	897.18
890.503	473.25
890.683	438.44
890.863	745.63
891.043	716.96
891.223	463.01
891.403	610.47
891.583	770.21
891.763	831.65
891.943	479.4
892.122	417.96
892.302	671.9
892.482	676
892.662	571.55
892.842	579.75
893.022	802.97
893.201	577.7
893.381	559.27
893.561	426.15
893.741	929.95
893.92	727.2
894.1	651.42
894.28	491.68
894.459	979.1
894.639	905.37
894.819	438.44
894.998	571.55
895.178	827.55
895.357	895.13
895.537	444.58
895.716	372.9
895.896	784.54
896.075	1011.87
896.255	501.92
896.434	227.5
896.614	929.95
896.793	1079.45
896.973	604.32
897.152	606.37
897.331	860.32
897.511	968.86
897.69	366.76
897.87	581.79
898.049	911.52
898.228	739.49
898.407	721.06
898.587	614.56
898.766	567.46
898.945	970.91
899.124	811.17
899.304	569.51
899.483	831.65
899.662	1210.52
899.841	424.1
900.02	512.16
900.199	972.96
900.378	901.28
900.557	475.3
900.737	338.09
900.916	948.38
901.095	997.53
901.274	784.54
901.453	450.72
901.632	645.28
901.811	583.84
901.989	458.92
902.168	415.91
902.347	829.6
902.526	635.04
902.705	522.4
902.884	667.81
903.063	1056.92
903.242	1054.87
903.42	399.52
903.599	575.65
903.778	1079.45
903.957	1106.07
904.135	702.62
904.314	649.38
904.493	796.83
904.672	868.51
904.85	516.26
905.029	479.4
905.207	880.8
905.386	1452.18
905.565	381.09
905.743	499.88
905.922	678.05
906.1	1013.92
906.279	358.57
906.457	440.48
906.636	620.71
906.814	692.38
906.993	450.72
907.171	497.83
907.35	970.91
907.528	1013.92
907.707	784.54
907.885	497.83
908.063	1179.8
908.242	520.35
908.42	479.4
908.598	235.69
908.777	956.57
908.955	622.75
909.133	585.89
909.311	377
909.49	676
909.668	684.19
909.846	471.2
910.024	286.89
910.202	798.88
910.38	934.04
910.559	405.67
910.737	473.25
910.915	852.13
911.093	798.88
911.271	524.45
911.449	766.11
911.627	860.32
911.805	1282.2
911.983	438.44
912.161	446.63
912.339	929.95
912.517	1134.75
912.695	585.89
912.872	618.66
913.05	542.88
913.228	948.38
913.406	565.41
913.584	503.97
913.762	788.64
913.939	708.77
914.117	372.9
914.295	344.23
914.473	796.83
914.65	839.84
914.828	460.96
915.006	432.29
915.184	422.05
915.361	897.18
915.539	610.47
915.716	745.63
915.894	915.61
916.072	966.81
916.249	751.78
916.427	671.9
916.604	506.02
916.782	837.79
916.959	405.67
917.137	538.79
917.314	819.36
917.492	901.28
917.669	508.07
917.847	503.97
918.024	817.31
918.201	583.84
918.379	559.27
918.556	477.35
918.733	958.62
918.911	692.38
919.088	626.85
919.265	528.55
919.442	811.17
919.62	764.06
919.797	417.96
919.974	331.94
920.151	827.55
920.328	704.67
920.506	454.82
920.683	727.2
920.86	598.18
921.037	606.37
921.214	522.4
921.391	440.48
921.568	956.57
921.745	647.33
921.922	577.7
922.099	557.22
922.276	921.76
922.453	749.73
922.63	403.62
922.807	727.2
922.984	766.11
923.161	555.17
923.338	551.07
923.514	585.89
923.691	772.25
923.868	848.03
924.045	565.41
924.222	342.18
924.399	823.45
924.575	966.81
924.752	485.54
924.929	555.17
925.105	815.26
925.282	438.44
925.459	475.3
925.635	442.53
925.812	643.23
925.989	557.22
926.165	610.47
926.342	319.65
926.518	526.5
926.695	753.82
926.871	372.9
927.048	247.97
927.224	901.28
927.401	688.29
927.577	577.7
927.754	299.17
927.93	915.61
928.107	823.45
928.283	463.01
928.459	446.63
928.636	813.21
928.812	706.72
928.988	360.61
929.165	317.61
929.341	600.23
929.517	735.39
929.693	819.36
929.87	225.45
930.046	827.55
930.222	700.58
930.398	209.06
930.574	573.6
930.751	737.44
930.927	491.68
931.103	456.87
931.279	444.58
931.455	424.1
931.631	741.54
931.807	196.78
931.983	219.3
932.159	393.38
932.335	684.19
932.511	475.3
932.687	358.57
932.863	743.58
933.039	700.58
933.215	233.64
933.391	299.17
933.566	542.88
933.742	596.13
933.918	440.48
934.094	237.74
934.27	606.37
934.445	653.47
934.621	452.77
934.797	290.98
934.973	909.47
935.148	602.27
935.324	305.32
935.5	77.99
935.675	893.09
935.851	655.52
936.027	336.04
936.202	405.67
936.378	606.37
936.553	520.35
936.729	809.12
936.904	323.75
937.08	276.65
937.255	426.15
937.431	194.73
937.606	141.48
937.782	456.87
937.957	583.84
938.133	340.13
938.308	299.17
938.483	420
938.659	258.21
938.834	307.37
939.009	190.63
939.185	391.33
939.36	307.37
939.535	-18.26
939.71	403.62
939.886	733.34
940.061	620.71
940.236	467.11
940.411	293.03
940.586	624.8
940.761	571.55
940.937	112.81
941.112	96.43
941.287	458.92
941.462	434.34
941.637	53.42
941.812	155.82
941.987	497.83
942.162	501.92
942.337	278.69
942.512	102.57
942.687	671.9
942.862	557.22
943.037	67.75
943.212	-126.8
943.386	299.17
943.561	420
943.736	297.13
943.911	526.5
944.086	516.26
944.26	428.2
944.435	178.34
944.61	250.02
944.785	745.63
944.959	817.31
945.134	333.99
945.309	100.52
945.483	194.73
945.658	637.09
945.833	-40.79
946.007	-3.93
946.182	790.69
946.357	190.63
946.531	112.81
946.706	20.65
946.88	-55.12
947.055	454.82
947.229	145.58
947.404	108.71
947.578	569.51
947.752	317.61
947.927	-53.08
948.101	-46.93
948.276	397.48
948.45	387.24
948.624	331.94
948.799	90.28
948.973	481.44
949.147	172.2
949.321	250.02
949.496	90.28
949.67	667.81
949.844	288.93
950.018	112.81
950.193	114.86
950.367	817.31
950.541	299.17
950.715	274.6
950.889	282.79
951.063	243.88
951.237	583.84
951.411	-53.08
951.585	-167.76
951.759	497.83
951.933	309.41
952.107	30.89
952.281	266.41
952.455	798.88
952.629	706.72
952.803	77.99
952.977	41.13
953.151	573.6
953.325	479.4
953.499	237.74
953.672	45.23
953.846	176.3
954.02	317.61
954.194	69.8
954.368	139.43
954.541	424.1
954.715	174.25
954.889	141.48
955.062	96.43
955.236	311.46
955.41	288.93
955.583	252.07
955.757	-69.46
955.93	282.79
956.104	204.97
956.278	151.72
956.451	77.99
956.625	483.49
956.798	829.6
956.972	379.04
957.145	16.55
957.319	325.8
957.492	323.75
957.665	295.08
957.839	20.65
958.012	391.33
958.185	237.74
958.359	143.53
958.532	286.89
958.705	569.51
958.879	422.05
959.052	112.81
959.225	-108.37
959.398	280.74
959.572	417.96
959.745	12.46
959.918	207.02
960.091	227.5
960.264	448.68
960.438	-44.88
960.611	65.71
960.784	532.64
960.957	254.12
961.13	448.68
961.303	-8.02
961.476	272.55
961.649	493.73
961.822	-22.36
961.995	274.6
962.168	501.92
962.341	319.65
962.514	176.3
962.686	94.38
962.859	424.1
963.032	508.07
963.205	88.23
963.378	2.22
963.551	420
963.723	362.66
963.896	225.45
964.069	323.75
964.242	254.12
964.414	618.66
964.587	227.5
964.76	274.6
964.932	372.9
965.105	254.12
965.278	94.38
965.45	61.61
965.623	352.42
965.795	526.5
965.968	82.09
966.14	96.43
966.313	295.08
966.485	428.2
966.658	194.73
966.83	77.99
967.003	585.89
967.175	602.27
967.348	96.43
967.52	143.53
967.692	739.49
967.865	393.38
968.037	186.54
968.209	432.29
968.382	333.99
968.554	487.59
968.726	161.96
968.898	45.23
969.071	485.54
969.243	463.01
969.415	180.39
969.587	272.55
969.759	794.78
969.932	604.32
970.104	282.79
970.276	-89.94
970.448	221.35
970.62	209.06
970.792	186.54
970.964	170.15
971.136	745.63
971.308	557.22
971.48	135.34
971.652	112.81
971.824	731.3
971.996	202.92
972.168	192.68
972.339	188.58
972.511	532.64
972.683	276.65
972.855	346.28
973.027	135.34
973.199	471.2
973.37	495.78
973.542	352.42
973.714	266.41
973.886	305.32
974.057	598.18
974.229	8.36
974.401	4.27
974.572	166.06
974.744	-5.97
974.915	28.84
975.087	51.37
975.259	719.01
975.43	280.74
975.602	147.62
975.773	8.36
975.945	204.97
976.116	528.55
976.288	14.51
976.459	266.41
976.63	274.6
976.802	389.28
976.973	65.71
977.145	276.65
977.316	811.17
977.487	364.71
977.659	284.84
977.83	125.1
978.001	741.54
978.172	424.1
978.344	-34.64
978.515	106.67
978.686	358.57
978.857	772.25
979.028	90.28
979.2	-5.97
979.371	614.56
979.542	352.42
979.713	217.26
979.884	-251.73
980.055	233.64
980.226	284.84
980.397	131.24
980.568	22.7
980.739	649.38
980.91	182.44
981.081	233.64
981.252	12.46
981.423	589.99
981.594	522.4
981.765	-38.74
981.936	194.73
982.106	350.37
982.277	579.75
982.448	100.52
982.619	254.12
982.79	217.26
982.96	618.66
983.131	170.15
983.302	-81.75
983.472	344.23
983.643	440.48
983.814	137.38
983.984	88.23
984.155	364.71
984.326	458.92
984.496	174.25
984.667	215.21
984.837	143.53
985.008	594.08
985.178	321.7
985.349	143.53
985.519	317.61
985.69	114.86
985.86	241.83
986.031	51.37
986.201	358.57
986.371	458.92
986.542	-3.93
986.712	8.36
986.882	399.52
987.053	454.82
987.223	22.7
987.393	274.6
987.563	202.92
987.734	458.92
987.904	440.48
988.074	129.19
988.244	493.73
988.414	147.62
988.585	-126.8
988.755	118.95
988.925	336.04
989.095	725.15
989.265	41.13
989.435	184.49
989.605	399.52
989.775	463.01
989.945	362.66
990.115	8.36
990.285	290.98
990.455	352.42
990.625	88.23
990.795	-5.97
990.965	643.23
991.134	247.97
991.304	-20.31
991.474	102.57
991.644	422.05
991.814	645.28
991.984	-55.12
992.153	-24.4
992.323	276.65
992.493	370.85
992.662	-118.61
992.832	186.54
993.002	391.33
993.171	362.66
993.341	-108.37
993.511	229.54
993.68	77.99
993.85	501.92
994.019	-40.79
994.189	-85.84
994.358	321.7
994.528	34.99
994.697	-223.06
994.867	-65.36
995.036	553.12
995.206	295.08
995.375	-3.93
995.544	184.49
995.714	342.18
995.883	215.21
996.052	116.9
996.222	-186.19
996.391	762.02
996.56	282.79
996.73	-77.65
996.899	-139.09
997.068	721.06
997.237	354.47
997.406	-212.82
997.576	-204.63
997.745	338.09
997.914	401.57
998.083	-225.11
998.252	-32.6
998.421	346.28
998.59	104.62
998.759	-167.76
998.928	-132.95
999.097	575.65
999.266	290.98
999.435	98.47
999.604	-255.83
999.773	784.54
999.942	178.34
1000.111	-210.77
1000.28	-227.15
1000.448	-55.12
1000.617	61.61
1000.786	151.72
1000.955	-89.94
1001.124	290.98
1001.292	948.38
1001.461	-12.12
1001.63	-81.75
1001.798	632.99
1001.967	626.85
1002.136	-169.81
1002.304	-73.56
1002.473	327.85
1002.642	360.61
1002.81	-55.12
1002.979	-67.41
1003.147	454.82
1003.316	815.26
1003.484	-102.23
1003.653	-36.69
1003.821	602.27
1003.99	96.43
1004.158	-14.17
1004.327	-16.21
1004.495	381.09
1004.663	63.66
1004.832	63.66
1005	-165.71
1005.168	381.09
1005.337	262.31
1005.505	-192.34
1005.673	125.1
1005.842	393.38
1006.01	377
1006.178	-139.09
1006.346	-120.66
1006.514	344.23
1006.683	522.4
1006.851	-128.85
1007.019	-208.72
1007.187	-16.21
1007.355	-114.52
1007.523	-347.98
1007.691	-178
1007.859	-51.03
1008.027	520.35
1008.195	-53.08
1008.363	-169.81
1008.531	450.72
1008.699	184.49
1008.867	-190.29
1009.035	-57.17
1009.203	520.35
1009.37	225.45
1009.538	-20.31
1009.706	403.62
1009.874	307.37
1010.042	213.16
1010.209	-216.91
1010.377	-163.67
1010.545	442.53
1010.713	241.83
1010.88	-118.61
1011.048	-69.46
1011.216	194.73
1011.383	594.08
1011.551	-132.95
1011.718	-126.8
1011.886	456.87
1012.054	145.58
1012.221	-36.69
1012.389	-135
1012.556	231.59
1012.724	604.32
1012.891	-16.21
1013.058	-290.64
1013.226	374.95
1013.393	344.23
1013.561	-178
1013.728	-268.11
1013.895	340.13
1014.063	346.28
1014.23	-151.38
1014.397	-153.43
1014.565	503.97
1014.732	129.19
1014.899	-153.43
1015.066	-151.38
1015.233	254.12
1015.401	409.76
1015.568	-63.32
1015.735	4.27
1015.902	331.94
1016.069	344.23
1016.236	-98.13
1016.403	-157.52
1016.57	-38.74
1016.737	401.57
1016.904	-71.51
1017.071	-255.83
1017.238	75.95
1017.405	407.72
1017.572	-104.28
1017.739	90.28
1017.906	409.76
1018.073	454.82
1018.24	-122.71
1018.407	4.27
1018.573	520.35
1018.74	112.81
1018.907	-106.32
1019.074	-315.22
1019.241	565.41
1019.407	116.9
1019.574	-216.91
1019.741	-354.13
1019.907	260.26
1020.074	442.53
1020.241	-378.7
1020.407	-278.35
1020.574	307.37
1020.74	395.43
1020.907	-149.33
1021.073	-218.96
1021.24	759.97
1021.406	581.79
1021.573	-214.87
1021.739	-270.16
1021.906	440.48
1022.072	192.68
1022.239	-83.8
1022.405	-141.14
1022.571	157.86
1022.738	100.52
1022.904	-132.95
1023.07	-42.84
1023.237	293.03
1023.403	465.06
1023.569	-155.47
1023.735	-110.42
1023.902	239.78
1024.068	372.9
1024.234	-163.67
1024.4	-143.19
1024.566	293.03
1024.732	458.92
1024.898	-137.04
1025.065	-300.88
1025.231	422.05
1025.397	135.34
1025.563	-98.13
1025.729	-266.07
1025.895	-167.76
1026.061	-14.17
1026.227	-239.44
1026.392	-106.32
1026.558	440.48
1026.724	317.61
1026.89	-294.74
1027.056	-44.88
1027.222	436.39
1027.388	164.01
1027.553	-151.38
1027.719	-212.82
1027.885	655.52
1028.051	389.28
1028.216	-362.32
1028.382	-145.24
1028.548	381.09
1028.713	73.9
1028.879	-302.93
1029.045	-63.32
1029.21	520.35
1029.376	499.88
1029.541	-94.04
1029.707	-130.9
1029.873	424.1
1030.038	438.44
1030.204	-110.42
1030.369	-173.91
1030.534	366.76
1030.7	71.85
1030.865	-139.09
1031.031	-149.33
1031.196	370.85
1031.361	260.26
1031.527	-149.33
1031.692	-274.26
1031.857	-165.71
1032.023	295.08
1032.188	-280.4
1032.353	-130.9
1032.518	581.79
1032.684	170.15
1032.849	-311.12
1033.014	-157.52
1033.179	383.14
1033.344	274.6
1033.509	-69.46
1033.674	-143.19
1033.839	368.81
1034.004	397.48
1034.17	-151.38
1034.335	-245.59
1034.5	137.38
1034.664	43.18
1034.829	-175.95
1034.994	-135
1035.159	258.21
1035.324	243.88
1035.489	-169.81
1035.654	-307.02
1035.819	538.79
1035.984	286.89
1036.148	-85.84
1036.313	-130.9
1036.478	403.62
1036.643	227.5
1036.807	-225.11
1036.972	-212.82
1037.137	524.45
1037.301	225.45
1037.466	-339.79
1037.631	-71.51
1037.795	479.4
1037.96	348.33
1038.124	51.37
1038.289	-268.11
1038.454	288.93
1038.618	364.71
1038.783	-94.04
1038.947	-69.46
1039.111	270.5
1039.276	127.14
1039.44	-245.59
1039.605	229.54
1039.769	129.19
1039.933	194.73
1040.098	-108.37
1040.262	30.89
1040.426	383.14
1040.591	301.22
1040.755	-182.1
1040.919	-192.34
1041.083	397.48
1041.248	250.02
1041.412	-218.96
1041.576	-225.11
1041.74	200.87
1041.904	458.92
1042.068	-159.57
1042.232	-153.43
1042.397	583.84
1042.561	260.26
1042.725	-280.4
1042.889	45.23
1043.053	303.27
1043.217	254.12
1043.381	-77.65
1043.544	-261.97
1043.708	438.44
1043.872	-30.55
1044.036	-407.38
1044.2	-294.74
1044.364	516.26
1044.528	585.89
1044.691	1331.35
1044.855	-302.93
1045.019	422.05
1045.183	397.48
1045.346	-96.08
1045.51	-216.91
1045.674	309.41
1045.837	333.99
1046.001	-100.18
1046.165	-163.67
1046.328	809.12
1046.492	336.04
1046.655	121
1046.819	-61.27
1046.983	94.38
1047.146	319.65
1047.31	-147.28
1047.473	-319.31
1047.636	198.82
1047.8	77.99
1047.963	-126.8
1048.127	-151.38
1048.29	141.48
