Data from Ink_Intensity_USB4F045381__89__00089.txt Node

Date: Mon Jul 17 10:58:17 EDT 2023
User: mmckonesweet
Spectrometer: USB4F04538
Trigger mode: 4
Integration Time (sec): 9.000000E-1
Scans to average: 1
Electric dark correction enabled: true
Nonlinearity correction enabled: false
Boxcar width: 0
XAxis mode: Wavelengths
Number of Pixels in Spectrum: 3648
>>>>>Begin Spectral Data<<<<<
345.52	-1020.4
345.736	-1020.4
345.952	-1020.4
346.168	-997.87
346.384	-946.67
346.6	-88.57
346.816	-193.02
347.032	-215.55
347.248	271.87
347.464	-170.49
347.68	-160.25
347.896	142.85
348.112	351.74
348.328	-59.9
348.544	-170.49
348.76	30.21
348.975	261.63
349.191	-178.69
349.407	-199.16
349.623	73.21
349.839	-119.29
350.055	-55.81
350.27	15.87
350.486	218.62
350.702	368.12
350.918	300.54
351.133	-180.73
351.349	218.62
351.565	456.19
351.781	-109.05
351.996	62.98
352.212	327.16
352.428	-174.59
352.644	-199.16
352.859	-164.35
353.075	290.3
353.291	13.82
353.506	-68.09
353.722	-137.73
353.938	-33.28
354.153	456.19
354.369	136.7
354.584	-231.93
354.8	284.16
355.016	-279.04
355.231	-162.3
355.447	-53.76
355.662	185.85
355.878	871.92
356.093	-346.62
356.309	-39.42
356.524	-211.45
356.74	368.12
356.955	-195.07
357.171	13.82
357.386	261.63
357.602	-158.21
357.817	7.68
358.033	-102.91
358.248	433.66
358.464	230.91
358.679	-131.58
358.895	-213.5
359.11	54.78
359.325	316.92
359.541	34.3
359.756	22.02
359.972	-186.88
360.187	218.62
360.402	-84.48
360.618	-109.05
360.833	919.03
361.048	210.43
361.264	-131.58
361.479	-59.9
361.694	54.78
361.909	292.35
362.125	-211.45
362.34	-94.72
362.555	271.87
362.77	91.65
362.986	-143.87
363.201	-176.64
363.416	273.92
363.631	101.89
363.847	-215.55
364.062	-133.63
364.277	204.28
364.492	161.28
364.707	-18.94
364.922	-205.31
365.138	284.16
365.353	359.93
365.568	-326.14
365.783	-131.58
365.998	163.33
366.213	634.36
366.428	-240.12
366.643	161.28
366.858	271.87
367.073	273.92
367.288	-100.86
367.503	-213.5
367.718	204.28
367.933	294.4
368.148	-178.69
368.363	-64
368.578	67.07
368.793	445.95
369.008	-98.81
369.223	-186.88
369.438	316.92
369.653	390.65
369.868	-256.51
370.083	-172.54
370.298	126.46
370.513	484.86
370.728	81.41
370.943	-160.25
371.157	-133.63
371.372	538.1
371.587	-217.6
371.802	-205.31
372.017	89.6
372.232	464.38
372.446	-53.76
372.661	-195.07
372.876	239.1
373.091	235
373.306	-43.52
373.52	-197.12
373.735	-72.19
373.95	452.09
374.165	-76.29
374.379	-109.05
374.594	-47.62
374.809	267.77
375.023	126.46
375.238	-117.25
375.453	230.91
375.667	-276.99
375.882	-96.77
376.097	-80.38
376.311	173.57
376.526	67.07
376.741	-158.21
376.955	167.42
377.17	697.85
377.384	724.47
377.599	24.06
377.813	-193.02
378.028	665.08
378.242	292.35
378.457	-33.28
378.672	-264.7
378.886	167.42
379.101	28.16
379.315	-205.31
379.53	-96.77
379.744	271.87
379.958	232.96
380.173	-61.95
380.387	-166.4
380.602	214.52
380.816	-35.33
381.031	22.02
381.245	-92.67
381.459	310.78
381.674	2770.39
381.888	-129.53
382.103	177.66
382.317	-90.62
382.531	656.89
382.746	-14.85
382.96	-76.29
383.174	13.82
383.388	665.08
383.603	198.14
383.817	-201.21
384.031	243.2
384.246	517.62
384.46	3.58
384.674	464.38
384.888	112.13
385.103	148.99
385.317	-168.45
385.531	19.97
385.745	456.19
385.959	366.07
386.174	-147.97
386.388	-166.4
386.602	126.46
386.816	60.93
387.03	-27.14
387.244	7.68
387.458	177.66
387.672	353.79
387.887	-193.02
388.101	-184.83
388.315	488.95
388.529	200.19
388.743	-129.53
388.957	-131.58
389.171	513.53
389.385	-55.81
389.599	5.63
389.813	208.38
390.027	345.59
390.241	800.24
390.455	-2.56
390.669	-6.66
390.883	-33.28
391.097	519.67
391.311	99.84
391.525	-14.85
391.738	327.16
391.952	316.92
392.166	17.92
392.38	-72.19
392.594	491
392.808	480.76
393.022	71.17
393.236	48.64
393.449	271.87
393.663	296.44
393.877	-156.16
394.091	-12.8
394.305	22.02
394.518	19.97
394.732	-201.21
394.946	7.68
395.16	589.3
395.373	192
395.587	-82.43
395.801	-104.96
396.015	321.02
396.228	341.5
396.442	-115.2
396.656	-279.04
396.869	534.01
397.083	669.17
397.297	91.65
397.51	13.82
397.724	529.91
397.938	265.72
398.151	-94.72
398.365	-88.57
398.578	300.54
398.792	531.96
399.005	177.66
399.219	-64
399.433	349.69
399.646	417.27
399.86	294.4
400.073	210.43
400.287	343.55
400.5	83.45
400.714	155.13
400.927	99.84
401.141	466.42
401.354	1263.08
401.567	466.42
401.781	-100.86
401.994	458.23
402.208	652.79
402.421	26.11
402.635	34.3
402.848	224.76
403.061	568.82
403.275	148.99
403.488	-39.42
403.701	714.23
403.915	460.28
404.128	202.24
404.341	-18.94
404.555	341.5
404.768	148.99
404.981	230.91
405.195	13.82
405.408	740.85
405.621	450.04
405.834	275.96
406.048	-64
406.261	579.06
406.474	660.98
406.687	134.65
406.9	235
407.114	228.86
407.327	513.53
407.54	-53.76
407.753	-129.53
407.966	58.88
408.179	443.9
408.392	-16.9
408.605	-59.9
408.819	476.66
409.032	382.46
409.245	5.63
409.458	278.01
409.671	378.36
409.884	519.67
410.097	-35.33
410.31	228.86
410.523	458.23
410.736	312.83
410.949	198.14
411.162	208.38
411.375	736.76
411.588	517.62
411.801	261.63
412.014	89.6
412.227	361.98
412.44	218.62
412.653	136.7
412.865	316.92
413.078	611.83
413.291	454.14
413.504	194.05
413.717	-10.75
413.93	511.48
414.143	187.9
414.356	151.04
414.568	-53.76
414.781	585.21
414.994	476.66
415.207	200.19
415.42	206.33
415.632	579.06
415.845	826.87
416.058	11.78
416.271	44.54
416.483	390.65
416.696	826.87
416.909	110.08
417.121	157.18
417.334	556.54
417.547	892.4
417.759	112.13
417.972	126.46
418.185	329.21
418.397	695.8
418.61	116.22
418.823	210.43
419.035	669.17
419.248	488.95
419.46	333.31
419.673	349.69
419.885	611.83
420.098	480.76
420.311	155.13
420.523	-23.04
420.736	558.58
420.948	407.03
421.161	212.48
421.373	-0.51
421.586	589.3
421.798	337.4
422.01	58.88
422.223	396.79
422.435	382.46
422.648	691.7
422.86	269.82
423.073	243.2
423.285	734.71
423.497	128.51
423.71	284.16
423.922	253.44
424.134	636.41
424.347	886.26
424.559	452.09
424.771	511.48
424.984	497.14
425.196	673.27
425.408	267.77
425.621	175.61
425.833	732.66
426.045	814.58
426.257	181.76
426.47	282.11
426.682	632.31
426.894	751.09
427.106	294.4
427.318	343.55
427.531	349.69
427.743	708.09
427.955	302.59
428.167	775.67
428.379	695.8
428.591	540.15
428.804	554.49
429.016	353.79
429.228	413.18
429.44	646.65
429.652	593.4
429.864	194.05
430.076	534.01
430.288	556.54
430.5	452.09
430.712	460.28
430.924	765.43
431.136	810.48
431.348	216.57
431.56	349.69
431.772	701.94
431.984	548.34
432.196	374.27
432.408	421.37
432.62	486.9
432.832	767.48
433.044	685.56
433.256	556.54
433.468	904.69
433.679	318.97
433.891	349.69
434.103	734.71
434.315	1060.34
434.527	898.55
434.739	570.87
434.95	542.2
435.162	886.26
435.374	570.87
435.586	525.82
435.798	529.91
436.009	505.34
436.221	703.99
436.433	505.34
436.645	564.73
436.856	691.7
437.068	968.18
437.28	437.75
437.491	871.92
437.703	970.23
437.915	833.01
438.126	636.41
438.338	927.22
438.55	792.05
438.761	894.45
438.973	550.39
439.184	671.22
439.396	814.58
439.608	1013.23
439.819	478.71
440.031	714.23
440.242	1070.58
440.454	935.41
440.665	658.93
440.877	773.62
441.088	994.8
441.3	841.2
441.511	515.58
441.723	628.21
441.934	1074.67
442.146	847.35
442.357	935.41
442.569	923.12
442.78	941.55
442.991	1320.43
443.203	1062.38
443.414	646.65
443.626	1279.47
443.837	880.11
444.048	572.92
444.26	589.3
444.471	1013.23
444.682	1175.02
444.894	521.72
445.105	517.62
445.316	1250.8
445.528	1056.24
445.739	845.3
445.95	808.44
446.161	1037.81
446.373	1258.99
446.584	894.45
446.795	691.7
447.006	1097.2
447.217	1390.06
447.429	652.79
447.64	744.95
447.851	1379.82
448.062	1134.06
448.273	558.58
448.484	808.44
448.695	1211.89
448.907	1127.92
449.118	935.41
449.329	1113.58
449.54	972.27
449.751	853.49
449.962	830.96
450.173	800.24
450.384	1291.76
450.595	1463.79
450.806	808.44
451.017	953.84
451.228	1547.75
451.439	1457.64
451.65	849.4
451.861	636.41
452.072	957.94
452.283	1142.25
452.494	1103.34
452.705	959.99
452.915	1562.09
453.126	1183.21
453.337	964.08
453.548	931.31
453.759	1603.05
453.97	1672.68
454.181	1271.28
454.391	1117.68
454.602	1418.73
454.813	1414.63
455.024	1154.54
455.235	1154.54
455.445	1353.2
455.656	1445.35
455.867	1324.52
456.078	1093.1
456.288	1111.54
456.499	1400.3
456.71	984.56
456.921	1332.72
457.131	1541.61
457.342	1437.16
457.553	1199.6
457.763	1048.05
457.974	1592.81
458.184	1709.54
458.395	1218.03
458.606	1193.45
458.816	1783.27
459.027	2031.07
459.237	1463.79
459.448	1121.77
459.659	1738.21
459.869	2104.8
460.08	1095.15
460.29	1414.63
460.501	2014.69
460.711	1467.88
460.922	1242.61
461.132	1355.24
461.343	2215.39
461.553	1342.96
461.764	1422.83
461.974	1332.72
462.184	1902.05
462.395	1705.45
462.605	1490.41
462.816	1326.57
463.026	1693.16
463.236	2096.61
463.447	1453.55
463.657	1551.85
463.867	2008.55
464.078	1705.45
464.288	1625.58
464.498	1668.58
464.709	1811.94
464.919	1725.93
465.129	1639.91
465.339	1572.33
465.55	1902.05
465.76	2072.03
465.97	1717.73
466.18	1684.97
466.391	2305.5
466.601	2072.03
466.811	1863.14
467.021	1793.51
467.231	2235.87
467.441	2430.43
467.651	1934.82
467.862	1670.63
468.072	2141.66
468.282	2475.48
468.492	1926.63
468.702	1934.82
468.912	2317.79
469.122	2860.5
469.332	2368.99
469.542	2004.45
469.752	2606.55
469.962	2434.52
470.172	2151.9
470.382	2069.98
470.592	2627.03
470.802	2729.43
471.012	2450.91
471.222	2207.2
471.432	2799.06
471.642	2741.72
471.852	2594.26
472.062	2252.25
472.272	2575.83
472.482	2549.21
472.691	2399.71
472.901	2340.32
473.111	2852.31
473.321	3347.92
473.531	2536.92
473.741	2596.31
473.95	2909.65
474.16	3055.06
474.37	2762.2
474.58	2471.39
474.79	3407.31
474.999	3282.38
475.209	2741.72
475.419	2809.3
475.628	3136.98
475.838	3409.36
476.048	3053.01
476.258	2801.11
476.467	3718.6
476.677	3200.46
476.886	3284.43
477.096	3294.67
477.306	3241.42
477.515	3886.53
477.725	3272.14
477.935	3395.02
478.144	4062.66
478.354	3446.22
478.563	3497.42
478.773	3419.6
478.982	4007.36
479.192	4054.47
479.401	3694.02
479.611	3411.4
479.82	3605.96
480.03	4072.9
480.239	3685.83
480.449	3677.64
480.658	4429.24
480.868	3990.98
481.077	4027.84
481.287	3808.71
481.496	4419
481.705	4691.38
481.915	4394.43
482.124	4357.57
482.333	4392.38
482.543	4818.36
482.752	4222.4
482.961	4246.98
483.171	4709.82
483.38	4455.87
483.589	4502.97
483.799	4134.34
484.008	4687.29
484.217	5086.64
484.426	4443.58
484.636	4545.98
484.845	4855.22
485.054	4427.2
485.263	4752.82
485.472	4636.09
485.682	5332.4
485.891	5049.78
486.1	4523.45
486.309	4855.22
486.518	5158.32
486.727	5586.35
486.936	4826.55
487.146	5019.06
487.355	5451.18
487.564	5193.14
487.773	5109.17
487.982	5121.46
488.191	5402.03
488.4	5494.19
488.609	5244.34
488.818	5203.38
489.027	6227.36
489.236	6038.95
489.445	5584.3
489.654	5547.44
489.863	5989.8
490.072	5649.83
490.281	5909.93
490.49	5735.85
490.698	6270.37
490.907	6313.38
491.116	5774.76
491.325	5684.65
491.534	6473.12
491.743	6067.62
491.952	6034.85
492.16	5889.45
492.369	6499.74
492.578	6397.34
492.787	6182.31
492.996	5819.82
493.204	6335.9
493.413	6835.61
493.622	5801.38
493.831	6098.34
494.039	6837.66
494.248	6270.37
494.457	6268.32
494.665	6110.63
494.874	6882.71
495.083	7288.21
495.291	6573.47
495.5	6378.91
495.709	7169.43
495.917	6946.2
496.126	6851.99
496.335	6526.36
496.543	6911.38
496.752	7124.37
496.96	7046.55
497.169	6583.71
497.377	7091.6
497.586	7466.38
497.794	6960.53
498.003	6647.19
498.211	7337.36
498.42	7564.68
498.628	7175.57
498.837	6962.58
499.045	7271.83
499.254	7386.51
499.462	7144.85
499.671	7173.52
499.879	7869.83
500.087	7779.72
500.296	7148.95
500.504	7159.19
500.713	7636.36
500.921	8201.6
501.129	7275.92
501.338	7390.61
501.546	7927.18
501.754	7818.63
501.962	7382.42
502.171	7533.97
502.379	8082.82
502.587	8398.21
502.795	7738.76
503.004	7585.16
503.212	7923.08
503.42	8394.11
503.628	7796.11
503.837	8009.09
504.045	8299.91
504.253	8652.16
504.461	7728.52
504.669	7972.23
504.877	8449.41
505.085	8525.18
505.294	8017.29
505.502	8142.21
505.71	8539.52
505.918	8465.79
506.126	8158.6
506.334	8066.44
506.542	8609.15
506.75	8586.62
506.958	8336.77
507.166	8514.94
507.374	8549.76
507.582	8885.62
507.79	8615.29
507.998	8494.46
508.206	8832.38
508.414	8746.36
508.622	8562.05
508.83	8525.18
509.037	9299.31
509.245	8742.27
509.453	8568.19
509.661	8531.33
509.869	9094.52
510.077	8881.53
510.285	8873.34
510.492	8502.65
510.7	9790.83
510.908	9121.14
511.116	8783.23
511.324	8861.05
511.531	9254.26
511.739	9121.14
511.947	8961.4
512.155	9495.92
512.362	9387.38
512.57	9158
512.778	9012.6
512.985	8920.44
513.193	9481.58
513.401	9917.8
513.608	9256.31
513.816	9258.35
514.024	9889.13
514.231	9672.04
514.439	9346.42
514.646	9469.3
514.854	10128.74
515.061	9805.16
515.269	9633.13
515.477	9452.91
515.684	9645.42
515.892	10014.06
516.099	9346.42
516.307	9457.01
516.514	10290.53
516.722	10323.3
516.929	9809.26
517.136	9782.63
517.344	10388.83
517.551	10151.27
517.759	9870.7
517.966	10081.64
518.173	10106.21
518.381	10263.91
518.588	9979.24
518.796	9725.29
519.003	10650.97
519.21	10253.67
519.418	9958.76
519.625	10483.04
519.832	10536.29
520.039	10409.31
520.247	10251.62
520.454	10415.46
520.661	10913.11
520.868	10872.15
521.076	10341.73
521.283	10204.52
521.49	11203.93
521.697	10956.12
521.904	10560.86
522.112	10628.45
522.319	11126.1
522.526	10929.5
522.733	10507.62
522.94	10347.87
523.147	10874.2
523.354	11089.24
523.561	10595.68
523.768	10730.84
523.975	11318.61
524.183	11072.86
524.39	11009.37
524.597	10753.37
524.804	11165.01
525.011	11160.92
525.218	10896.73
525.425	11101.53
525.632	11756.88
525.838	11230.55
526.045	11015.51
526.252	11060.57
526.459	12588.35
526.666	12612.93
526.873	11056.47
527.08	11365.71
527.287	11967.82
527.494	11609.42
527.701	11433.3
527.907	11558.22
528.114	11828.56
528.321	11679.05
528.528	11318.61
528.735	11623.76
528.941	11859.28
529.148	11558.22
529.355	11455.83
529.562	11646.29
529.768	12432.71
529.975	11937.1
530.182	11754.83
530.388	11636.05
530.595	12244.29
530.802	11951.43
531.008	11994.44
531.215	12064.07
531.422	13065.53
531.628	13368.63
531.835	12168.52
532.042	12205.38
532.248	12422.47
532.455	12606.78
532.661	12270.92
532.868	12098.89
533.074	12571.97
533.281	13016.38
533.487	12576.06
533.694	12354.88
533.9	12596.54
534.107	12705.09
534.313	12334.4
534.52	12444.99
534.726	13104.44
534.933	13452.59
535.139	12498.24
535.345	12555.58
535.552	13325.62
535.758	13045.05
535.965	13032.76
536.171	12934.46
536.377	13598
536.584	13665.58
536.79	12856.64
536.996	13315.38
537.203	13233.46
537.409	13411.64
537.615	12676.41
537.821	13337.91
538.028	13552.95
538.234	13528.37
538.44	13110.58
538.646	13120.82
538.853	13792.56
539.059	13473.07
539.265	13737.26
539.471	13262.13
539.677	13751.6
539.883	13460.79
540.09	13499.7
540.296	13946.16
540.502	13835.56
540.708	13665.58
540.914	14101.8
541.12	13718.83
541.326	14155.05
541.532	14095.66
541.738	14089.51
541.944	13919.53
542.15	14507.3
542.356	14454.05
542.562	14044.46
542.768	14163.24
542.974	14816.54
543.18	14966.04
543.386	14222.63
543.592	14021.93
543.798	15144.22
544.004	14849.31
544.21	14355.75
544.415	14456.1
544.621	14802.21
544.827	14970.14
545.033	14304.55
545.239	14814.49
545.445	14734.62
545.651	14845.21
545.856	14488.87
546.062	14775.58
546.268	15080.73
546.474	14869.79
546.679	14658.85
546.885	14646.56
547.091	15095.07
547.297	15598.87
547.502	14976.28
547.708	14601.51
547.914	14767.39
548.119	15209.75
548.325	14241.06
548.531	14546.21
548.736	15754.51
548.942	15070.49
549.147	14908.7
549.353	15242.52
549.559	15568.15
549.764	15322.39
549.97	14794.01
550.175	15185.18
550.381	15469.84
550.586	15367.45
550.792	15494.42
550.997	15297.81
551.203	15844.62
551.408	15844.62
551.614	15144.22
551.819	15531.28
552.025	16233.74
552.23	16284.94
552.435	15605.01
552.641	16114.95
552.846	15774.99
553.052	16280.84
553.257	15766.8
553.462	15797.52
553.668	16057.61
553.873	16051.47
554.078	15822.09
554.283	15926.54
554.489	16239.88
554.694	16542.98
554.899	16119.05
555.105	16162.06
555.31	16676.1
555.515	16659.71
555.72	16063.75
555.925	16364.81
556.131	16463.11
556.336	16243.98
556.541	16325.89
556.746	16143.63
556.951	16950.53
557.156	16825.6
557.361	16768.26
557.567	16784.64
557.772	17212.67
557.977	17136.89
558.182	16405.77
558.387	16676.1
558.592	16753.92
558.797	17222.91
559.002	16846.08
559.207	16731.39
559.412	17124.6
559.617	17442.04
559.822	16745.73
560.027	16706.82
560.232	17239.29
560.437	17198.33
560.642	16674.05
560.847	17071.36
561.051	17122.55
561.256	17368.31
561.461	17114.36
561.666	16751.87
561.871	17591.54
562.076	17526
562.281	17261.82
562.485	16833.79
562.69	17556.72
562.895	17599.73
563.1	17483
563.305	17079.55
563.509	18044.14
563.714	18070.76
563.919	17485.05
564.123	17464.57
564.328	17585.4
564.533	18038
564.737	17458.42
564.942	17304.82
565.147	18074.86
565.351	18380.01
565.556	17433.85
565.761	17736.95
565.965	18019.57
566.17	17618.16
566.374	17571.06
566.579	17618.16
566.784	18038
566.988	17884.4
567.193	17564.92
567.397	17536.24
567.602	18001.13
567.806	17988.85
568.011	17800.43
568.215	17876.21
568.42	18232.55
568.624	18203.88
568.828	18107.63
569.033	18236.65
569.237	18572.52
569.442	18367.72
569.646	17859.82
569.85	18218.22
570.055	18519.27
570.259	18535.65
570.463	18607.33
570.668	18486.5
570.872	18439.4
571.076	18732.26
571.281	18543.85
571.485	18472.17
571.689	18765.03
571.893	19031.26
572.098	18863.33
572.302	18625.76
572.506	18644.2
572.71	18742.5
572.914	18781.41
573.119	18638.05
573.323	19354.84
573.527	19248.35
573.731	18785.51
573.935	19039.45
574.139	19148
574.343	18896.1
574.547	18935.01
574.751	19064.03
574.955	19424.47
575.159	19578.07
575.364	18646.24
575.568	18990.3
575.772	19201.24
575.976	19723.48
576.18	19039.45
576.383	19215.58
576.587	19930.32
576.791	19840.21
576.995	19227.87
577.199	18801.89
577.403	19592.41
577.607	19905.74
577.811	19170.52
578.015	19526.87
578.219	19539.16
578.422	19909.84
578.626	19594.45
578.83	20063.44
579.034	20081.87
579.238	19870.93
579.442	19786.96
579.645	20034.77
579.849	20167.88
580.053	20358.35
580.257	19715.28
580.46	20251.85
580.664	20235.47
580.868	20200.65
581.071	20174.03
581.275	20090.06
581.479	19928.27
581.682	20395.21
581.886	20100.3
582.09	20196.56
582.293	20837.57
582.497	20542.66
582.7	20325.58
582.904	20143.31
583.107	20362.44
583.311	20526.28
583.515	20470.98
583.718	20491.46
583.922	20800.71
584.125	21081.28
584.329	20169.93
584.532	20585.67
584.735	20999.36
584.939	20964.54
585.142	20561.09
585.346	20546.76
585.549	21150.91
585.753	20569.29
585.956	20806.85
586.159	20853.95
586.363	21357.75
586.566	21300.41
586.769	20659.4
586.973	20937.92
587.176	21281.98
587.379	21564.6
587.582	21445.82
587.786	21292.22
587.989	21411
588.192	22019.25
588.395	21140.67
588.599	21812.4
588.802	21730.48
589.005	21892.27
589.208	21222.59
589.411	21208.25
589.615	21632.18
589.818	22189.23
590.021	21871.79
590.224	21634.23
590.427	21966
590.63	22103.21
590.833	21372.09
591.036	21451.96
591.239	21877.94
591.442	22002.86
591.645	21732.53
591.848	21836.98
592.051	22529.19
592.254	22211.76
592.457	21931.19
592.66	21601.46
592.863	22209.71
593.066	22248.62
593.269	22062.26
593.472	21925.04
593.675	22072.5
593.878	22537.38
594.081	22222
594.284	22277.29
594.486	22750.37
594.689	22574.25
594.892	22127.79
595.095	22135.98
595.298	22901.92
595.5	22473.9
595.703	22992.03
595.906	22404.27
596.109	23133.34
596.311	23526.55
596.514	22283.44
596.717	22754.47
596.92	23504.03
597.122	23147.68
597.325	22351.02
597.528	22744.23
597.73	23422.11
597.933	22963.36
598.136	23082.14
598.338	22664.36
598.541	23116.96
598.743	23704.73
598.946	23305.37
599.148	23073.95
599.351	23153.82
599.554	23755.93
599.756	23078.05
599.959	23356.57
600.161	23192.73
600.363	24202.38
600.566	23600.28
600.768	23352.48
600.971	24018.07
601.173	23854.23
601.376	23295.13
601.578	23209.12
601.78	23594.14
601.983	24122.51
602.185	23385.24
602.388	23622.81
602.59	23989.39
602.792	24052.88
602.995	23465.11
603.197	23385.24
603.399	24442
603.601	23981.2
603.804	23710.87
604.006	23358.62
604.208	23227.55
604.41	23590.04
604.613	23964.82
604.815	23618.71
605.017	24532.11
605.219	23966.87
605.421	24116.37
605.623	23671.96
605.826	24466.57
606.028	24685.7
606.23	24099.98
606.432	23608.47
606.634	24855.68
606.836	24536.2
607.038	23751.83
607.24	24069.26
607.442	24499.34
607.644	24437.9
607.846	24382.6
608.048	24159.38
608.25	24779.91
608.452	24538.25
608.654	24028.31
608.856	23983.25
609.058	24439.95
609.26	24716.42
609.462	24177.81
609.664	24679.56
609.866	24788.1
610.067	24884.36
610.269	24319.12
610.471	24343.69
610.673	24556.68
610.875	25027.71
611.077	24206.48
611.278	24695.94
611.48	24802.44
611.682	25164.93
611.884	24763.53
612.085	24552.59
612.287	24573.07
612.489	25054.34
612.69	24364.17
612.892	24917.12
613.094	25277.57
613.295	24945.8
613.497	24499.34
613.699	24654.98
613.9	25472.12
614.102	25316.48
614.304	24497.29
614.505	24433.8
614.707	25054.34
614.908	24913.03
615.11	24444.04
615.311	24851.59
615.513	25005.19
615.714	25439.36
615.916	24804.49
616.117	24753.29
616.319	25040
616.52	25388.16
616.722	24788.1
616.923	25097.35
617.124	25398.4
617.326	25341.05
617.527	24706.18
617.729	25238.65
617.93	25521.27
618.131	25603.19
618.333	25085.06
618.534	25033.86
618.735	24898.69
618.937	25629.82
619.138	24953.99
619.339	25048.19
619.54	25551.99
619.742	25494.65
619.943	25158.78
620.144	25322.62
620.345	25769.08
620.546	25533.56
620.748	25482.36
620.949	25007.23
621.15	25853.05
621.351	25635.96
621.552	25205.89
621.753	25453.69
621.954	25515.13
622.155	25836.66
622.356	25087.11
622.558	25525.37
622.759	25709.69
622.96	26160.24
623.161	25201.79
623.362	25420.92
623.563	25668.73
623.764	25392.25
623.965	25580.67
624.166	25767.03
624.366	25773.17
624.567	25828.47
624.768	25291.9
624.969	25488.51
625.17	25713.78
625.371	26109.04
625.572	25826.42
625.773	25736.31
625.973	26283.12
626.174	26047.6
626.375	25961.59
626.576	25910.39
626.777	26352.75
626.977	26381.42
627.178	25959.54
627.379	26076.27
627.58	25920.63
627.78	26481.77
627.981	25894
628.182	26133.62
628.382	26506.35
628.583	25865.33
628.784	26098.8
628.984	25828.47
629.185	26764.39
629.386	26596.46
629.586	26018.93
629.787	25709.69
629.987	26637.42
630.188	26471.53
630.388	26403.95
630.589	26117.23
630.79	26958.95
630.99	26446.96
631.191	26227.82
631.391	26676.33
631.591	26805.35
631.792	27198.56
631.992	26399.85
632.193	26680.42
632.393	27087.97
632.594	26315.89
632.794	26205.3
632.994	26592.36
633.195	26391.66
633.395	26948.71
633.595	26154.1
633.796	26475.63
633.996	26350.7
634.196	26946.66
634.397	26641.51
634.597	26479.72
634.797	26659.95
634.997	26991.72
635.198	27147.36
635.398	26668.14
635.598	26987.62
635.798	27282.53
635.998	26754.15
636.199	26705
636.399	26690.66
636.599	26659.95
636.799	26858.6
636.999	26803.3
637.199	27133.03
637.399	27133.03
637.599	27010.15
637.799	26651.75
637.999	27032.68
638.199	27792.47
638.399	26670.19
638.599	26676.33
638.799	27130.98
638.999	27595.87
639.199	27196.51
639.399	27313.25
639.599	27978.84
639.799	27130.98
639.999	26829.93
640.199	27311.2
640.399	27466.84
640.599	26883.17
640.799	27606.11
640.998	27186.27
641.198	27417.69
641.398	27548.76
641.598	27372.64
641.798	27333.73
641.997	28634.19
642.197	27407.45
642.397	27366.49
642.597	27415.65
642.796	27929.69
642.996	28005.46
643.196	27649.11
643.395	27149.41
643.595	27917.4
643.795	27475.04
643.994	27364.45
644.194	27724.89
644.394	28087.38
644.593	27845.72
644.793	27339.87
644.992	27884.63
645.192	28195.92
645.392	27888.73
645.591	27984.98
645.791	27823.19
645.99	28200.02
646.19	28030.04
646.389	27855.96
646.589	27845.72
646.788	28478.54
646.987	28007.51
647.187	28257.36
647.386	28095.57
647.586	28318.8
647.785	28263.5
647.984	28030.04
648.184	28146.77
648.383	28206.16
648.582	28355.66
648.782	27882.58
648.981	28011.6
649.18	27905.11
649.38	28277.84
649.579	28238.93
649.778	28302.42
649.977	28925
650.177	28539.98
650.376	27679.83
650.575	28066.9
650.774	28834.89
650.973	28288.08
651.173	27956.31
651.372	28128.34
651.571	28654.67
651.77	28671.05
651.969	28474.45
652.168	28132.43
652.367	28449.87
652.566	28388.43
652.765	28443.73
652.964	28955.72
653.163	28980.29
653.362	28757.07
653.561	28177.49
653.76	28564.56
653.959	28750.92
654.158	29250.63
654.357	28599.37
654.556	28603.47
654.755	29125.7
654.954	28994.63
655.153	28329.04
655.352	28968.01
655.551	29023.3
655.749	28666.95
655.948	28531.79
656.147	28933.19
656.346	28918.85
656.545	28877.9
656.743	28533.84
656.942	28527.69
657.141	29008.97
657.34	28752.97
657.538	28798.02
657.737	28699.72
657.936	29049.92
658.135	29330.5
658.333	28818.5
658.532	28777.54
658.731	29617.21
658.929	29152.32
659.128	28724.3
659.326	29054.02
659.525	29656.12
659.724	29037.64
659.922	28691.53
660.121	28644.43
660.319	29346.88
660.518	28845.13
660.716	28779.59
660.915	28818.5
661.113	30006.33
661.312	28929.09
661.51	29101.12
661.709	28892.23
661.907	29238.34
662.105	29762.62
662.304	29045.83
662.502	29469.76
662.701	29936.7
662.899	28912.71
663.097	29629.5
663.296	28849.22
663.494	30016.57
663.692	29541.44
663.891	29447.23
664.089	28918.85
664.287	29436.99
664.485	29692.99
664.684	29545.53
664.882	29858.87
665.08	29535.29
665.278	29400.13
665.476	29238.34
665.675	29355.07
665.873	30004.28
666.071	29467.71
666.269	29260.87
666.467	29314.11
666.665	29596.73
666.863	29158.47
667.061	29473.85
667.259	29211.71
667.457	29684.8
667.655	29551.68
667.853	29236.29
668.051	29447.23
668.249	29230.15
668.447	29781.05
668.645	29332.54
668.843	29611.07
669.041	29748.28
669.239	29504.57
669.437	29342.78
669.635	29604.92
669.833	29529.15
670.031	29557.82
670.229	29185.09
670.426	29652.03
670.624	29641.79
670.822	29770.81
671.02	29185.09
671.218	29291.59
671.415	29373.5
671.613	29566.01
671.811	29742.14
672.009	29463.61
672.206	29981.75
672.404	29365.31
672.602	29725.75
672.799	29697.08
672.997	29793.34
673.195	30123.06
673.392	29842.49
673.59	29307.97
673.788	29815.87
673.985	29160.52
674.183	29701.18
674.38	29568.06
674.578	29850.68
674.775	29520.96
674.973	29301.82
675.17	29414.46
675.368	29529.15
675.565	29701.18
675.763	29197.38
675.96	29029.45
676.158	29881.4
676.355	28980.29
676.553	29441.09
676.75	29410.37
676.947	29867.06
677.145	29377.6
677.342	29838.39
677.539	29568.06
677.737	29754.43
677.934	30342.19
678.131	29686.84
678.329	29191.23
678.526	29752.38
678.723	29977.65
678.92	29713.47
679.118	28984.39
679.315	29234.24
679.512	29916.22
679.709	29414.46
679.906	29258.82
680.104	29834.3
680.301	29428.8
680.498	28947.53
680.695	29011.01
680.892	28963.91
681.089	29598.78
681.286	29113.41
681.483	28773.45
681.68	29639.74
681.877	29625.4
682.075	28918.85
682.272	29209.67
682.469	29621.31
682.665	29144.13
682.862	29097.03
683.059	28867.66
683.256	29500.48
683.453	29365.31
683.65	29324.35
683.847	29201.47
684.044	29260.87
684.241	28832.84
684.438	29189.19
684.635	28742.73
684.831	29713.47
685.028	29572.16
685.225	28793.93
685.422	29084.74
685.619	29299.78
685.815	29342.78
686.012	29213.76
686.209	28890.18
686.405	29131.84
686.602	29344.83
686.799	28873.8
686.996	29140.04
687.192	28632.14
687.389	29441.09
687.586	28834.89
687.782	29025.35
687.979	29725.75
688.175	29150.28
688.372	28974.15
688.568	29252.67
688.765	28660.81
688.962	29723.71
689.158	29006.92
689.355	28701.77
689.551	29508.67
689.748	28908.61
689.944	28843.08
690.14	28394.57
690.337	28980.29
690.533	28998.73
690.73	28904.52
690.926	28910.66
691.123	28822.6
691.319	29097.03
691.515	28390.48
691.712	28687.43
691.908	29226.05
692.104	28701.77
692.301	28615.76
692.497	28886.09
692.693	29205.57
692.889	29060.16
693.086	28648.52
693.282	28660.81
693.478	28927.05
693.674	29580.35
693.87	28578.89
694.067	28505.17
694.263	28894.28
694.459	29047.88
694.655	28927.05
694.851	28826.7
695.047	29189.19
695.243	29109.32
695.439	28642.38
695.635	28644.43
695.831	28998.73
696.027	28734.54
696.224	28681.29
696.42	28626
696.615	29426.75
696.811	28892.23
697.007	28091.48
697.203	28445.77
697.399	28613.71
697.595	28904.52
697.791	28163.15
697.987	28380.24
698.183	28466.25
698.379	28537.93
698.575	28597.32
698.77	28712.01
698.966	28722.25
699.162	28892.23
699.358	28367.95
699.554	28494.93
699.749	28775.5
699.945	29097.03
700.141	28251.22
700.337	28636.24
700.532	28187.73
700.728	28474.45
700.924	28204.11
701.119	28359.76
701.315	28382.29
701.511	28177.49
701.706	28779.59
701.902	27839.58
702.097	28353.62
702.293	28996.68
702.489	28359.76
702.684	28167.25
702.88	28638.28
703.075	28707.91
703.271	27966.55
703.466	28187.73
703.662	28136.53
703.857	28654.67
704.053	28503.12
704.248	27952.21
704.443	28785.74
704.639	28408.91
704.834	28212.31
705.03	28392.53
705.225	28613.71
705.42	28806.22
705.616	28390.48
705.811	27901.01
706.006	28517.45
706.202	28204.11
706.397	27907.16
706.592	27747.42
706.787	28265.55
706.983	28353.62
707.178	28439.63
707.373	27984.98
707.568	28447.82
707.763	28128.34
707.959	28230.74
708.154	28210.26
708.349	28126.29
708.544	28345.42
708.739	28255.31
708.934	27976.79
709.129	28390.48
709.324	28064.85
709.519	27821.14
709.714	27845.72
709.909	28527.69
710.104	28150.87
710.299	28011.6
710.494	28310.61
710.689	28402.77
710.884	27987.03
711.079	27739.22
711.274	27876.44
711.469	28669
711.664	28027.99
711.859	28003.41
712.054	28120.15
712.249	28406.86
712.443	28609.61
712.638	27876.44
712.833	27698.27
713.028	28232.79
713.223	27878.49
713.417	28425.29
713.612	27925.59
713.807	28255.31
714.002	28288.08
714.196	28122.19
714.391	27690.07
714.586	28191.83
714.78	28019.8
714.975	27800.66
715.17	27731.03
715.364	28136.53
715.559	28011.6
715.754	27106.4
715.948	27262.05
716.143	28308.56
716.337	27874.39
716.532	28120.15
716.726	27628.63
716.921	28189.78
717.115	28378.19
717.31	27538.52
717.504	28355.66
717.699	28034.13
717.893	27765.85
718.088	27348.06
718.282	27059.3
718.476	27866.2
718.671	27726.94
718.865	27270.24
719.059	27374.69
719.254	27485.28
719.448	27440.22
719.642	27544.67
719.837	26702.95
720.031	27548.76
720.225	27647.07
720.419	27292.77
720.614	27087.97
720.808	27472.99
721.002	27044.96
721.196	27178.08
721.39	27235.42
721.585	27638.87
721.779	27356.25
721.973	26821.73
722.167	26889.32
722.361	27012.2
722.555	27384.93
722.749	26727.53
722.943	27044.96
723.137	26799.21
723.331	27128.93
723.525	26973.28
723.719	26920.04
723.913	27243.62
724.107	27524.19
724.301	26764.39
724.495	26737.77
724.689	27587.68
724.883	27593.82
725.077	27020.39
725.271	27051.11
725.465	27257.95
725.659	26999.91
725.853	26807.4
726.046	26709.1
726.24	26633.32
726.434	26815.59
726.628	26825.83
726.822	26991.72
727.015	27216.99
727.209	27268.19
727.403	26977.38
727.596	26582.12
727.79	27286.62
727.984	27470.94
728.177	26967.14
728.371	27104.35
728.565	27069.54
728.758	26950.76
728.952	26592.36
729.146	26819.69
729.339	27573.34
729.533	26997.86
729.726	26920.04
729.92	26791.02
730.113	27245.66
730.307	27030.63
730.5	26553.45
730.694	26676.33
730.887	26862.69
731.081	27509.85
731.274	26719.34
731.468	26750.06
731.661	26813.54
731.854	27055.2
732.048	26799.21
732.241	26565.74
732.435	27004
732.628	27079.78
732.821	26653.8
733.014	26487.92
733.208	26840.17
733.401	27327.58
733.594	26874.98
733.788	27081.83
733.981	27546.72
734.174	26872.93
734.367	26537.07
734.56	26702.95
734.754	26993.76
734.947	26928.23
735.14	26723.43
735.333	26694.76
735.526	27335.77
735.719	26786.92
735.912	26797.16
736.105	26567.79
736.298	26942.56
736.491	26752.1
736.684	26272.88
736.877	26350.7
737.07	26651.75
737.263	26985.57
737.456	26727.53
737.649	26406
737.842	26594.41
738.035	26678.38
738.228	26514.54
738.421	26672.23
738.614	27139.17
738.807	27067.49
739	26393.71
739.192	26379.37
739.385	26678.38
739.578	26838.12
739.771	26850.41
739.964	26371.18
740.156	26844.26
740.349	26879.08
740.542	26838.12
740.735	26467.44
740.927	26721.38
741.12	26432.62
741.313	26403.95
741.505	26881.13
741.698	26633.32
741.891	26690.66
742.083	26803.3
742.276	26963.04
742.468	27051.11
742.661	26473.58
742.854	26274.93
743.046	26264.69
743.239	27155.55
743.431	26813.54
743.624	26297.45
743.816	26297.45
744.009	26559.59
744.201	26584.17
744.393	26578.03
744.586	26299.5
744.778	26700.9
744.971	26645.61
745.163	26549.35
745.355	26492.01
745.548	26365.04
745.74	26063.99
745.932	26416.24
746.125	26231.92
746.317	26885.22
746.509	26494.06
746.702	26133.62
746.894	26252.4
747.086	26256.5
747.278	26508.4
747.471	26459.24
747.663	26061.94
747.855	26322.03
748.047	26971.24
748.239	26180.72
748.431	25973.88
748.623	26786.92
748.815	26154.1
749.008	26037.36
749.2	26129.52
749.392	26723.43
749.584	26184.82
749.776	26182.77
749.968	26250.35
750.16	26844.26
750.352	26131.57
750.544	25777.27
750.736	26117.23
750.928	26201.2
751.12	26348.65
751.311	25687.16
751.503	26293.36
751.695	25910.39
751.887	26076.27
752.079	26029.17
752.271	25846.9
752.463	26791.02
752.654	26481.77
752.846	25697.4
753.038	25762.93
753.23	26076.27
753.421	26100.85
753.613	25633.91
753.805	25967.73
753.997	26106.99
754.188	25916.53
754.38	25687.16
754.572	25807.99
754.763	25779.32
754.955	25836.66
755.146	25881.72
755.338	25502.84
755.53	25658.49
755.721	25773.17
755.913	25316.48
756.104	25300.09
756.296	25341.05
756.487	25590.91
756.679	25486.46
756.87	25083.01
757.062	25422.97
757.253	25650.3
757.445	25341.05
757.636	25250.94
757.827	25701.5
758.019	26113.14
758.21	25158.78
758.401	24958.08
758.593	25627.77
758.784	25394.3
758.975	24841.35
759.167	25048.19
759.358	25332.86
759.549	25934.96
759.74	25080.96
759.932	24996.99
760.123	25126.02
760.314	25013.38
760.505	24816.77
760.696	24784.01
760.888	25586.81
761.079	24837.25
761.27	24743.05
761.461	24855.68
761.652	25492.6
761.843	24808.58
762.034	24597.64
762.225	24810.63
762.416	25326.72
762.607	24806.53
762.798	24827.01
762.989	24585.35
763.18	25861.24
763.371	24468.62
763.562	24327.31
763.753	24442
763.944	25222.27
764.135	25056.39
764.326	24841.35
764.517	24220.81
764.708	24673.42
764.899	24765.57
765.089	24364.17
765.28	23999.63
765.471	24499.34
765.662	24710.28
765.853	24212.62
766.043	24020.11
766.234	24593.54
766.425	24708.23
766.615	24102.03
766.806	23854.23
766.997	25080.96
767.187	23975.06
767.378	23907.48
767.569	23655.58
767.759	24485
767.95	24552.59
768.141	24319.12
768.331	24138.9
768.522	24022.16
768.712	24548.49
768.903	23942.29
769.093	23850.13
769.284	24411.28
769.474	24007.83
769.665	23485.59
769.855	23702.68
770.046	24081.55
770.236	23575.7
770.426	23975.06
770.617	23809.17
770.807	24108.18
770.998	24013.97
771.188	23616.66
771.378	23426.2
771.569	24171.66
771.759	23893.14
771.949	23213.21
772.139	23026.85
772.33	23196.83
772.52	24165.52
772.71	23106.72
772.9	23108.77
773.09	24095.89
773.281	24059.02
773.471	23225.5
773.661	23223.45
773.851	23485.59
774.041	23432.35
774.231	23057.57
774.421	23315.61
774.611	23600.28
774.802	23184.54
774.992	23045.28
775.182	23227.55
775.372	23270.56
775.562	23405.72
775.752	23176.35
775.942	23032.99
776.131	23692.44
776.321	23383.2
776.511	23321.76
776.701	22842.53
776.891	23577.75
777.081	23061.66
777.271	22979.75
777.461	22758.56
777.651	23305.37
777.84	23411.87
778.03	22967.46
778.22	22645.93
778.41	23438.49
778.599	22963.36
778.789	22535.34
778.979	22398.12
779.169	23149.73
779.358	22764.71
779.548	22879.39
779.738	22445.23
779.927	22494.38
780.117	22346.92
780.307	22285.48
780.496	22174.89
780.686	22785.19
780.875	23061.66
781.065	22326.44
781.254	22271.15
781.444	22584.49
781.633	22477.99
781.823	22383.79
782.012	22043.82
782.202	22312.11
782.391	22543.53
782.581	21986.48
782.77	22217.9
782.96	22789.28
783.149	22037.68
783.338	22027.44
783.528	21777.59
783.717	22283.44
783.906	22529.19
784.096	22006.96
784.285	22017.2
784.474	21980.34
784.663	21879.99
784.853	21568.69
785.042	21648.57
785.231	21927.09
785.42	22521
785.61	21949.62
785.799	21873.84
785.988	21826.74
786.177	21675.19
786.366	21623.99
786.555	22019.25
786.744	22080.69
786.933	21894.32
787.122	21583.03
787.312	21591.22
787.501	21968.05
787.69	22088.88
787.879	21894.32
788.068	21376.19
788.257	21275.84
788.445	21683.38
788.634	21474.49
788.823	21253.31
789.012	22248.62
789.201	22037.68
789.39	21402.81
789.579	21138.62
789.768	21699.76
789.957	21595.32
790.145	21140.67
790.334	20894.91
790.523	21140.67
790.712	21447.86
790.9	21165.25
791.089	21085.37
791.278	21771.44
791.467	21255.36
791.655	21189.82
791.844	21718.2
792.033	21099.71
792.221	21263.55
792.41	21079.23
792.599	20804.8
792.787	21449.91
792.976	21626.04
793.164	20804.8
793.353	20849.86
793.541	21398.71
793.73	21179.58
793.918	21152.96
794.107	20702.4
794.295	21017.79
794.484	21034.18
794.672	20856
794.861	21011.65
795.049	21140.67
795.238	21497.02
795.426	20767.94
795.614	20765.89
795.803	21091.52
795.991	21130.43
796.179	20829.38
796.368	20614.34
796.556	21193.92
796.744	20739.27
796.932	20407.5
797.121	20354.25
797.309	20761.8
797.497	21202.11
797.685	20714.69
797.874	20427.98
798.062	20864.19
798.25	20960.45
798.438	20681.92
798.626	20395.21
798.814	21001.41
799.002	21210.3
799.19	20772.04
799.378	20284.62
799.566	21189.82
799.755	21216.44
799.943	20718.79
800.131	20518.09
800.318	20696.26
800.506	20870.34
800.694	20337.87
800.882	20516.04
801.07	21046.46
801.258	20714.69
801.446	20520.13
801.634	20511.94
801.822	20626.63
802.01	20747.46
802.197	20604.1
802.385	20899.01
802.573	20847.81
802.761	20714.69
802.949	20712.64
803.136	20341.96
803.324	21236.92
803.512	20870.34
803.699	20634.82
803.887	20417.74
804.075	21488.82
804.262	20921.54
804.45	20405.45
804.638	20643.01
804.825	20905.15
805.013	21128.38
805.201	20935.87
805.388	20554.95
805.576	20839.62
805.763	21810.36
805.951	20589.77
806.138	20925.63
806.326	21402.81
806.513	21288.12
806.701	21384.38
806.888	20821.19
807.075	21150.91
807.263	21664.95
807.45	20442.31
807.638	21007.55
807.825	21900.47
808.012	21152.96
808.2	20911.3
808.387	21015.74
808.574	21537.98
808.761	21458.1
808.949	20835.52
809.136	20929.73
809.323	21105.85
809.51	21367.99
809.698	21402.81
809.885	21372.09
810.072	21626.04
810.259	21511.35
810.446	21030.08
810.633	21030.08
810.82	21507.26
811.008	22144.17
811.195	21124.29
811.382	21068.99
811.569	21441.72
811.756	21116.09
811.943	21030.08
812.13	21324.99
812.317	21433.53
812.504	21316.79
812.691	21218.49
812.878	21198.01
813.064	21679.29
813.251	21648.57
813.438	20763.84
813.625	21073.09
813.812	21228.73
813.999	21329.08
814.186	21423.29
814.372	21062.85
814.559	21499.06
814.746	21537.98
814.933	21079.23
815.12	21519.54
815.306	21179.58
815.493	21226.68
815.68	21296.32
815.866	21281.98
816.053	21578.93
816.24	21689.53
816.426	21118.14
816.613	21193.92
816.799	21716.15
816.986	21558.46
817.173	21052.61
817.359	21013.7
817.546	21529.78
817.732	20987.07
817.919	20790.47
818.105	21324.99
818.292	21247.16
818.478	21486.78
818.665	21556.41
818.851	21157.05
819.037	21871.79
819.224	21372.09
819.41	20757.7
819.597	20616.39
819.783	21650.61
819.969	21636.28
820.156	21112
820.342	21068.99
820.528	21939.38
820.714	21040.32
820.901	21423.29
821.087	20710.6
821.273	21488.82
821.459	21011.65
821.646	20692.16
821.832	21144.77
822.018	21107.9
822.204	20935.87
822.39	20698.31
822.576	20591.81
822.762	21267.64
822.948	20761.8
823.134	20708.55
823.32	20767.94
823.507	20632.77
823.693	20788.42
823.879	20847.81
824.065	20616.39
824.25	20729.03
824.436	20569.29
824.622	20722.88
824.808	20346.06
824.994	20733.12
825.18	20425.93
825.366	20557
825.552	20298.95
825.738	20911.3
825.923	20755.65
826.109	20505.8
826.295	20147.4
826.481	20647.11
826.667	20450.5
826.852	20333.77
827.038	20206.8
827.224	20772.04
827.409	20901.06
827.595	20296.91
827.781	20145.36
827.966	20823.23
828.152	20593.86
828.338	20339.91
828.523	19750.1
828.709	20061.39
828.894	20659.4
829.08	20184.27
829.266	19717.33
829.451	20178.12
829.637	20432.07
829.822	20120.78
830.008	19881.17
830.193	20280.52
830.378	20401.35
830.564	19776.72
830.749	19760.34
830.935	20143.31
831.12	20102.35
831.305	19629.27
831.491	19631.32
831.676	19739.86
831.861	19911.89
832.047	19807.44
832.232	19205.34
832.417	20069.58
832.602	19850.45
832.788	19369.18
832.973	19418.33
833.158	19678.42
833.343	19840.21
833.528	19539.16
833.714	19537.11
833.899	19789.01
834.084	20006.09
834.269	19363.03
834.454	19426.52
834.639	20174.03
834.824	19612.88
835.009	19477.72
835.194	19350.74
835.379	19766.48
835.564	19760.34
835.749	19217.63
835.934	19023.07
836.119	19494.1
836.304	19100.89
836.489	18969.82
836.674	19399.9
836.859	19125.47
837.044	19776.72
837.228	18808.03
837.413	18875.62
837.598	19594.45
837.783	19367.13
837.968	19104.99
838.152	18463.97
838.337	18748.64
838.522	19590.36
838.707	19389.66
838.891	19143.9
839.076	19152.09
839.261	19567.83
839.445	18744.55
839.63	18797.79
839.815	19614.93
839.999	19012.83
840.184	18646.24
840.368	18605.28
840.553	18853.09
840.737	19057.89
840.922	18461.93
841.106	18201.83
841.291	18230.51
841.475	18785.51
841.66	18558.18
841.844	18214.12
842.029	19576.02
842.213	18726.11
842.397	18167.02
842.582	17782
842.766	19238.11
842.951	18744.55
843.135	18226.41
843.319	18441.45
843.504	18740.45
843.688	19119.32
843.872	18027.76
844.056	18050.28
844.241	18437.35
844.425	18201.83
844.609	18148.59
844.793	17923.31
844.977	18777.31
845.161	18441.45
845.346	18101.48
845.53	18042.09
845.714	18334.95
845.898	18773.22
846.082	17929.45
846.266	17941.74
846.45	18277.61
846.634	17974.51
846.818	17849.58
847.002	17997.04
847.186	18410.73
847.37	17734.9
847.554	17698.03
847.738	17792.24
847.922	17962.22
848.106	18044.14
848.29	17577.2
848.473	17904.88
848.657	17898.73
848.841	18003.18
849.025	17620.21
849.209	17429.75
849.392	18097.39
849.576	18126.06
849.76	17421.56
849.944	18009.33
850.127	18267.37
850.311	17513.72
850.495	17413.37
850.678	17296.63
850.862	18134.25
851.046	18300.14
851.229	17323.26
851.413	17155.32
851.596	17573.11
851.78	17726.71
851.964	17437.94
852.147	17421.56
852.331	18218.22
852.514	17741.04
852.698	17272.06
852.881	17147.13
853.065	17663.22
853.248	17329.4
853.431	17313.02
853.615	17458.42
853.798	17925.36
853.982	17728.75
854.165	17480.95
854.348	17059.07
854.532	17149.18
854.715	17001.72
854.898	17376.5
855.081	17085.69
855.265	17245.43
855.448	17493.24
855.631	16823.55
855.814	16907.52
855.997	17446.13
856.181	17024.25
856.364	17069.31
856.547	16848.13
856.73	17042.68
856.913	16815.36
857.096	16925.95
857.279	16592.13
857.462	17102.08
857.645	17200.38
857.828	16895.23
858.011	17087.74
858.194	16903.42
858.377	16971.01
858.56	16475.4
858.743	16528.64
858.926	16483.59
859.109	17065.21
859.292	16446.73
859.475	16420.1
859.658	17310.97
859.841	16686.34
860.023	16233.74
860.206	16252.17
860.389	16741.63
860.572	16809.22
860.755	16305.42
860.937	16139.53
861.12	16483.59
861.303	16495.88
861.486	16033.04
861.668	16106.76
861.851	16653.57
862.034	16286.98
862.216	16307.46
862.399	15504.66
862.581	16313.61
862.764	16663.81
862.947	15940.88
863.129	15854.86
863.312	15805.71
863.494	16448.77
863.677	15944.97
863.859	15596.82
864.042	16205.06
864.224	16633.09
864.406	15832.33
864.589	15189.27
864.771	15885.58
864.954	15680.78
865.136	15562
865.318	15398.17
865.501	15838.48
865.683	15338.77
865.865	15807.76
866.048	15467.8
866.23	15787.28
866.412	15744.27
866.594	15387.93
866.777	15342.87
866.959	15881.49
867.141	15430.93
867.323	15613.2
867.505	15559.95
867.687	15686.93
867.869	15512.85
868.052	15115.55
868.234	15172.89
868.416	15451.41
868.598	15725.84
868.78	15179.03
868.962	15152.41
869.144	15791.38
869.326	15666.45
869.508	15070.49
869.69	15430.93
869.872	15410.45
870.054	15697.17
870.236	14906.65
870.417	15017.24
870.599	15414.55
870.781	15990.03
870.963	15236.38
871.145	14947.61
871.327	15269.14
871.508	15586.58
871.69	15168.79
871.872	15336.73
872.054	15383.83
872.235	15349.01
872.417	15308.05
872.599	14902.56
872.78	15734.03
872.962	15439.12
873.144	14890.27
873.325	15379.73
873.507	15758.61
873.689	15285.53
873.87	14976.28
874.052	15267.1
874.233	15277.33
874.415	15596.82
874.596	15119.64
874.778	15013.15
874.959	15373.59
875.141	15412.5
875.322	15103.26
875.503	14933.28
875.685	15553.81
875.866	15238.42
876.048	15066.39
876.229	14826.78
876.41	15136.03
876.592	15361.3
876.773	14974.24
876.954	14859.55
877.136	15881.49
877.317	15248.66
877.498	14599.46
877.679	15222.04
877.86	15611.15
878.042	15432.98
878.223	15019.29
878.404	15447.32
878.585	15598.87
878.766	15875.34
878.947	15723.79
879.128	15377.69
879.309	15680.78
879.49	15807.76
879.672	15457.56
879.853	15289.62
880.034	15551.76
880.215	15269.14
880.396	15490.32
880.576	15353.11
880.757	15543.57
880.938	15840.53
881.119	15496.47
881.3	15478.04
881.481	15697.17
881.662	16510.21
881.843	15371.54
882.023	15471.89
882.204	15756.56
882.385	16045.32
882.566	15545.62
882.747	15451.41
882.927	15842.57
883.108	15963.4
883.289	15523.09
883.469	15774.99
883.65	15901.97
883.831	15910.16
884.011	15774.99
884.192	15746.32
884.373	16336.13
884.553	16065.8
884.734	15901.97
884.914	16327.94
885.095	16678.15
885.275	16477.44
885.456	16129.29
885.636	15465.75
885.817	16188.68
885.997	16076.04
886.178	15787.28
886.358	16127.24
886.538	16383.24
886.719	17372.41
886.899	15811.85
887.08	16227.59
887.26	16399.62
887.44	15957.26
887.621	15650.07
887.801	16125.19
887.981	16844.03
888.161	16450.82
888.342	16084.23
888.522	16188.68
888.702	16428.29
888.882	16639.23
889.062	16078.09
889.242	15729.94
889.423	16637.19
889.603	16737.54
889.783	16160.01
889.963	16293.13
890.143	16547.08
890.323	16569.6
890.503	16594.18
890.683	16243.98
890.863	16583.94
891.043	16293.13
891.223	16471.3
891.403	16438.53
891.583	16807.17
891.763	16520.45
891.943	16358.66
892.122	16233.74
892.302	16659.71
892.482	16504.07
892.662	16338.18
892.842	16307.46
893.022	16676.1
893.201	16338.18
893.381	16477.44
893.561	16276.74
893.741	16628.99
893.92	16727.3
894.1	16307.46
894.28	16403.72
894.459	16692.48
894.639	16618.75
894.819	16512.26
894.998	16213.26
895.178	16596.23
895.357	16688.39
895.537	16053.52
895.716	16188.68
895.896	16379.14
896.075	16776.45
896.255	16319.75
896.434	16125.19
896.614	17192.19
896.793	16817.41
896.973	16260.36
897.152	16278.79
897.331	16481.54
897.511	16672
897.69	16088.33
897.87	16268.55
898.049	16819.46
898.228	16504.07
898.407	16301.32
898.587	16272.65
898.766	16299.27
898.945	16416.01
899.124	16176.39
899.304	16076.04
899.483	16624.9
899.662	16794.88
899.841	16125.19
900.02	15994.12
900.199	16610.56
900.378	16555.27
900.557	16086.28
900.737	15887.63
900.916	16446.73
901.095	16340.23
901.274	16198.92
901.453	15697.17
901.632	15672.59
901.811	16217.35
901.989	15867.15
902.168	15623.44
902.347	16315.66
902.526	15910.16
902.705	15729.94
902.884	15936.78
903.063	16354.57
903.242	16440.58
903.42	15553.81
903.599	15535.38
903.778	16168.2
903.957	16131.34
904.135	15666.45
904.314	15629.59
904.493	15830.29
904.672	15930.64
904.85	15275.29
905.029	15641.87
905.207	15801.61
905.386	16592.13
905.565	15375.64
905.743	15369.49
905.922	15539.47
906.1	15832.33
906.279	15097.11
906.457	15133.98
906.636	15613.2
906.814	15400.21
906.993	14961.95
907.171	15189.27
907.35	15676.69
907.528	15338.77
907.707	15467.8
907.885	14902.56
908.063	15695.12
908.242	15195.42
908.42	15123.74
908.598	14652.7
908.777	15361.3
908.955	15064.35
909.133	14871.84
909.311	14736.67
909.49	15099.16
909.668	15301.91
909.846	14847.26
910.024	14624.03
910.202	15080.73
910.38	14966.04
910.559	14513.44
910.737	14509.35
910.915	15029.53
911.093	14966.04
911.271	14642.46
911.449	14591.27
911.627	15144.22
911.805	15156.5
911.983	14347.56
912.161	14239.01
912.339	14972.19
912.517	15133.98
912.695	14613.79
912.872	14433.57
913.05	14345.51
913.228	14681.38
913.406	14210.34
913.584	14185.77
913.762	14529.83
913.939	14036.27
914.117	14118.18
914.295	13851.95
914.473	14648.61
914.65	14492.96
914.828	13935.92
915.006	13765.93
915.184	14218.54
915.361	14066.99
915.539	13956.4
915.716	13886.76
915.894	14300.45
916.072	14398.76
916.249	13974.83
916.427	13731.12
916.604	13784.37
916.782	13952.3
916.959	13139.26
917.137	13524.27
917.314	13913.39
917.492	14021.93
917.669	13581.62
917.847	13557.04
918.024	13788.46
918.201	13559.09
918.379	13131.06
918.556	13448.5
918.733	13595.95
918.911	13450.55
919.088	13276.47
919.265	12954.94
919.442	13638.96
919.62	13143.35
919.797	12592.45
919.974	12670.27
920.151	13337.91
920.328	13190.45
920.506	12817.72
920.683	13057.34
920.86	12721.47
921.037	12885.31
921.214	12752.19
921.391	12782.91
921.568	13161.78
921.745	12674.37
921.922	12676.41
922.099	12289.35
922.276	12721.47
922.453	12815.68
922.63	12555.58
922.807	12549.44
922.984	12680.51
923.161	12510.53
923.338	12141.89
923.514	12029.26
923.691	12395.84
923.868	12627.26
924.045	12178.76
924.222	11943.24
924.399	12217.67
924.575	12461.38
924.752	11986.25
924.929	11894.09
925.105	12236.1
925.282	11867.47
925.459	11681.1
925.635	11826.51
925.812	11826.51
925.989	11466.07
926.165	11566.42
926.342	11459.92
926.518	11617.61
926.695	11662.67
926.871	11636.05
927.048	11197.78
927.224	11760.97
927.401	11509.07
927.577	11259.22
927.754	11038.04
927.93	11855.18
928.107	11609.42
928.283	11277.65
928.459	11214.16
928.636	11402.58
928.812	11232.6
928.988	10636.64
929.165	10638.69
929.341	11009.37
929.517	11193.69
929.693	11048.28
929.87	10421.6
930.046	11240.79
930.222	10581.34
930.398	10335.59
930.574	10483.04
930.751	10745.18
930.927	10450.27
931.103	10407.27
931.279	10282.34
931.455	10306.91
931.631	10593.63
931.807	10073.45
931.983	9766.25
932.159	10122.6
932.335	10276.2
932.511	10052.97
932.687	9766.25
932.863	10102.12
933.039	10034.53
933.215	9612.65
933.391	9579.89
933.566	9809.26
933.742	9864.55
933.918	9407.86
934.094	9160.05
934.27	9637.23
934.445	9389.42
934.621	9194.87
934.797	8910.2
934.973	9405.81
935.148	9360.75
935.324	8721.79
935.5	8375.68
935.675	9186.68
935.851	8799.61
936.027	8476.03
936.202	8308.1
936.378	8519.04
936.553	8240.51
936.729	8369.54
936.904	7714.19
937.08	7738.76
937.255	7550.35
937.431	7550.35
937.606	7130.52
937.782	7599.5
937.957	7560.59
938.133	7103.89
938.308	6968.73
938.483	7026.07
938.659	6751.64
938.834	6583.71
939.009	6636.95
939.185	6749.59
939.36	6471.07
939.535	5995.94
939.71	6307.23
939.886	6661.53
940.061	6430.11
940.236	6094.24
940.411	5965.22
940.586	6233.5
940.761	6000.04
940.937	5604.78
941.112	5539.24
941.287	5938.6
941.462	5750.18
941.637	5223.86
941.812	5600.68
941.987	5899.69
942.162	5612.97
942.337	5488.04
942.512	5381.55
942.687	5694.89
942.862	5604.78
943.037	4992.44
943.212	4955.57
943.386	5254.58
943.561	5436.85
943.736	5313.97
943.911	5457.32
944.086	5330.35
944.26	5279.15
944.435	4963.76
944.61	5184.94
944.785	5563.82
944.959	5619.11
945.134	4941.24
945.309	4986.29
945.483	4996.53
945.658	5406.13
945.833	4634.04
946.007	4820.41
946.182	5494.19
946.357	4801.97
946.531	4681.14
946.706	4707.77
946.88	4672.95
947.055	5277.1
947.229	4890.04
947.404	4775.35
947.578	5285.3
947.752	4963.76
947.927	4797.88
948.101	4738.49
948.276	5227.95
948.45	5205.42
948.624	5092.79
948.799	4877.75
948.973	5209.52
949.147	5014.96
949.321	4867.51
949.496	4976.05
949.67	5299.63
949.844	5211.57
950.018	5027.25
950.193	4965.81
950.367	5569.96
950.541	5139.89
950.715	5064.11
950.889	5103.03
951.063	5066.16
951.237	5326.25
951.411	4505.02
951.585	4625.85
951.759	5354.93
951.933	4931
952.107	4879.8
952.281	5156.27
952.455	5395.89
952.629	5193.14
952.803	4797.88
952.977	4728.25
953.151	5182.9
953.325	5168.56
953.499	5060.02
953.672	4711.86
953.846	4900.28
954.02	5078.45
954.194	4675
954.368	4853.17
954.541	5172.66
954.715	4816.31
954.889	4830.65
955.062	4724.15
955.236	5275.06
955.41	5033.4
955.583	5123.51
955.757	4480.44
955.93	4830.65
956.104	4867.51
956.278	4769.21
956.451	4892.09
956.625	5060.02
956.798	5510.57
956.972	4986.29
957.145	4537.79
957.319	5060.02
957.492	5004.72
957.665	4816.31
957.839	4724.15
958.012	5103.03
958.185	4914.61
958.359	4699.58
958.532	4847.03
958.705	5203.38
958.879	5002.68
959.052	4797.88
959.225	4484.54
959.398	4836.79
959.572	4971.96
959.745	4595.13
959.918	4638.14
960.091	4773.3
960.264	5060.02
960.438	4439.48
960.611	4384.19
960.784	5070.26
960.957	4808.12
961.13	5100.98
961.303	4433.34
961.476	4748.73
961.649	4916.66
961.822	4621.75
961.995	4636.09
962.168	4904.37
962.341	4797.88
962.514	4568.51
962.686	4564.41
962.859	4947.38
963.032	4912.57
963.205	4474.3
963.378	4341.18
963.551	4779.45
963.723	4687.29
963.896	4517.31
964.069	4675
964.242	4838.84
964.414	5057.97
964.587	4490.68
964.76	4572.6
964.932	4847.03
965.105	4773.3
965.278	4451.77
965.45	4437.44
965.623	4750.78
965.795	4881.85
965.968	4406.72
966.14	4376
966.313	4529.59
966.485	4761.02
966.658	4396.48
966.83	4314.56
967.003	4978.1
967.175	4752.82
967.348	4298.17
967.52	4287.93
967.692	5045.68
967.865	4767.16
968.037	4453.82
968.209	4740.54
968.382	4519.36
968.554	4701.62
968.726	4355.52
968.898	4214.21
969.071	4689.34
969.243	4468.16
969.415	4416.96
969.587	4371.9
969.759	5129.65
969.932	4691.38
970.104	4425.15
970.276	3958.21
970.448	4373.95
970.62	4287.93
970.792	4441.53
970.964	4410.81
971.136	4873.65
971.308	4548.03
971.48	4152.77
971.652	4261.31
971.824	4838.84
971.996	4304.32
972.168	4201.92
972.339	4113.86
972.511	4619.71
972.683	4283.84
972.855	4294.08
973.027	4208.06
973.199	4380.09
973.37	4343.23
973.542	4201.92
973.714	4232.64
973.886	4349.37
974.057	4521.4
974.229	3929.54
974.401	4083.14
974.572	4183.49
974.744	3810.76
974.915	4005.31
975.087	3962.31
975.259	4627.9
975.43	4076.99
975.602	4175.3
975.773	3777.99
975.945	4054.47
976.116	4296.13
976.288	3851.72
976.459	4218.3
976.63	4126.15
976.802	4117.95
976.973	3884.48
977.145	4089.28
977.316	4525.5
977.487	4281.79
977.659	4165.06
977.83	3915.2
978.001	4599.23
978.172	4120
978.344	3827.14
978.515	3896.77
978.686	3937.73
978.857	4294.08
979.028	3925.44
979.2	3753.41
979.371	4353.47
979.542	4062.66
979.713	4003.27
979.884	3411.4
980.055	3753.41
980.226	3956.16
980.397	3718.6
980.568	3743.17
980.739	4355.52
980.91	4007.36
981.081	3970.5
981.252	3732.94
981.423	4072.9
981.594	4169.15
981.765	3505.61
981.936	3755.46
982.106	3876.29
982.277	4134.34
982.448	3579.34
982.619	3759.56
982.79	3909.06
982.96	4124.1
983.131	3761.61
983.302	3349.96
983.472	3704.26
983.643	3888.58
983.814	3648.97
983.984	3562.95
984.155	3663.3
984.326	4025.79
984.496	3683.78
984.667	3515.85
984.837	3610.06
985.008	4060.61
985.178	3665.35
985.349	3532.23
985.519	3786.18
985.69	3515.85
985.86	3540.43
986.031	3386.83
986.201	3784.13
986.371	3753.41
986.542	3309.01
986.712	3220.94
986.882	3630.54
987.053	3726.79
987.223	3368.4
987.393	3536.33
987.563	3401.16
987.734	3694.02
987.904	3597.77
988.074	3284.43
988.244	3667.4
988.414	3433.93
988.585	3241.42
988.755	3409.36
988.925	3483.08
989.095	4017.6
989.265	3231.18
989.435	3446.22
989.605	3454.41
989.775	3636.68
989.945	3651.02
990.115	3036.63
990.285	3530.19
990.455	3448.27
990.625	3290.57
990.795	3208.66
990.965	3614.15
991.134	3192.27
991.304	3046.87
991.474	3212.75
991.644	3417.55
991.814	3835.33
991.984	2952.66
992.153	2940.37
992.323	3323.34
992.493	3446.22
992.662	2954.71
992.832	3171.79
993.002	3362.25
993.171	3390.92
993.341	2950.61
993.511	3298.77
993.68	3069.39
993.85	3382.73
994.019	2956.75
994.189	2944.47
994.358	3247.57
994.528	3286.48
994.697	2815.45
994.867	2772.44
995.036	3433.93
995.206	3024.34
995.375	2919.89
995.544	3061.2
995.714	3380.68
995.883	3118.54
996.052	3053.01
996.222	2577.88
996.391	3700.17
996.56	3184.08
996.73	2749.91
996.899	2655.7
997.068	3481.03
997.237	3106.26
997.406	2745.81
997.576	2672.09
997.745	3253.71
997.914	3141.07
998.083	2618.84
998.252	2717.14
998.421	3040.72
998.59	2923.99
998.759	2661.85
998.928	2631.13
999.097	3216.85
999.266	3093.97
999.435	2833.88
999.604	2571.74
999.773	3306.96
999.942	2932.18
1000.111	2508.25
1000.28	2479.58
1000.448	2811.35
1000.617	2555.35
1000.786	2774.49
1000.955	2571.74
1001.124	2909.65
1001.292	3595.72
1001.461	2655.7
1001.63	2463.19
1001.798	3188.18
1001.967	3157.46
1002.136	2338.27
1002.304	2516.44
1002.473	2821.59
1002.642	2741.72
1002.81	2508.25
1002.979	2389.47
1003.147	2973.14
1003.316	3397.07
1003.484	2440.67
1003.653	2430.43
1003.821	3091.92
1003.99	2782.68
1004.158	2553.31
1004.327	2498.01
1004.495	2921.94
1004.663	2592.22
1004.832	2452.95
1005	2391.52
1005.168	2946.52
1005.337	2780.63
1005.505	2090.46
1005.673	2465.24
1005.842	2676.18
1006.01	2840.02
1006.178	2217.44
1006.346	2393.56
1006.514	2680.28
1006.683	2928.08
1006.851	2287.07
1007.019	2102.75
1007.187	2508.25
1007.355	2188.77
1007.523	2055.65
1007.691	2074.08
1007.859	2244.06
1008.027	2844.12
1008.195	2293.21
1008.363	2098.66
1008.531	2743.77
1008.699	2289.12
1008.867	1973.73
1009.035	2180.57
1009.203	2741.72
1009.37	2428.38
1009.538	2225.63
1009.706	2520.54
1009.874	2446.81
1010.042	2356.7
1010.209	1943.01
1010.377	2076.13
1010.545	2547.16
1010.713	2516.44
1010.88	1918.43
1011.048	2135.52
1011.216	2239.97
1011.383	2731.48
1011.551	1981.92
1011.718	1922.53
1011.886	2491.87
1012.054	2409.95
1012.221	1930.72
1012.389	1988.07
1012.556	2248.16
1012.724	2633.18
1012.891	2106.85
1013.058	1836.52
1013.226	2520.54
1013.393	2475.48
1013.561	1750.5
1013.728	1889.76
1013.895	2446.81
1014.063	2325.98
1014.23	1754.6
1014.397	1816.04
1014.565	2424.28
1014.732	2180.57
1014.899	1820.13
1015.066	1701.35
1015.233	2174.43
1015.401	2346.46
1015.568	1902.05
1015.735	1846.76
1015.902	2158.05
1016.069	2252.25
1016.236	1811.94
1016.403	1730.02
1016.57	2024.93
1016.737	2250.21
1016.904	1779.17
1017.071	1730.02
1017.238	1922.53
1017.405	2303.45
1017.572	1699.3
1017.739	1863.14
1017.906	2272.73
1018.073	2309.6
1018.24	1598.95
1018.407	1799.65
1018.573	2350.56
1018.74	2006.5
1018.907	1766.89
1019.074	1572.33
1019.241	2196.96
1019.407	1930.72
1019.574	1621.48
1019.741	1457.64
1019.907	1981.92
1020.074	2211.29
1020.241	1230.32
1020.407	1431.02
1020.574	2063.84
1020.74	2094.56
1020.907	1658.34
1021.073	1408.49
1021.24	2528.73
1021.406	2221.53
1021.573	1537.51
1021.739	1439.21
1021.906	2065.89
1022.072	1775.08
1022.239	1574.38
1022.405	1641.96
1022.571	1863.14
1022.738	1783.27
1022.904	1424.87
1023.07	1592.81
1023.237	1816.04
1023.403	2026.98
1023.569	1330.67
1023.735	1461.74
1023.902	1877.48
1024.068	1857
1024.234	1312.24
1024.4	1418.73
1024.566	1873.38
1024.732	1996.26
1024.898	1320.43
1025.065	1164.78
1025.231	1957.35
1025.397	1684.97
1025.563	1480.17
1025.729	1320.43
1025.895	1248.75
1026.061	1476.07
1026.227	1197.55
1026.392	1316.33
1026.558	2008.55
1026.724	1795.56
1026.89	1215.98
1027.056	1439.21
1027.222	1836.52
1027.388	1474.03
1027.553	1345
1027.719	1205.74
1027.885	1981.92
1028.051	1807.84
1028.216	1021.42
1028.382	1256.94
1028.548	1717.73
1028.713	1562.09
1028.879	1175.02
1029.045	1332.72
1029.21	1910.24
1029.376	1893.86
1029.541	1070.58
1029.707	1209.84
1029.873	1615.34
1030.038	1787.36
1030.204	1158.64
1030.369	1166.83
1030.534	1779.17
1030.7	1510.89
1030.865	1132.01
1031.031	1105.39
1031.196	1641.96
1031.361	1519.08
1031.527	964.08
1031.692	947.7
1031.857	1160.69
1032.023	1660.39
1032.188	1033.71
1032.353	1140.21
1032.518	1795.56
1032.684	1486.31
1032.849	892.4
1033.014	1107.44
1033.179	1570.28
1033.344	1619.43
1033.509	1127.92
1033.674	990.7
1033.839	1574.38
1034.004	1519.08
1034.17	1041.9
1034.335	931.31
1034.5	1383.91
1034.664	1254.89
1034.829	1035.76
1034.994	1103.34
1035.159	1455.59
1035.324	1367.53
1035.489	1002.99
1035.654	949.75
1035.819	1730.02
1035.984	1394.15
1036.148	1027.57
1036.313	1082.86
1036.478	1557.99
1036.643	1277.42
1036.807	894.45
1036.972	873.97
1037.137	1709.54
1037.301	1312.24
1037.466	806.39
1037.631	988.66
1037.795	1504.75
1037.96	1304.04
1038.124	994.8
1038.289	763.38
1038.454	1412.59
1038.618	1504.75
1038.783	923.12
1038.947	966.13
1039.111	1318.38
1039.276	1168.88
1039.44	884.21
1039.605	1347.05
1039.769	1258.99
1039.933	1138.16
1040.098	865.78
1040.262	1121.77
1040.426	1517.03
1040.591	1373.68
1040.755	833.01
1040.919	820.72
1041.083	1256.94
1041.248	1271.28
1041.412	695.8
1041.576	738.8
1041.74	1132.01
1041.904	1261.04
1042.068	646.65
1042.232	796.15
1042.397	1379.82
1042.561	1295.85
1042.725	626.17
1042.889	996.85
1043.053	1347.05
1043.217	1293.8
1043.381	880.11
1043.544	685.56
1043.708	1402.35
1043.872	923.12
1044.036	534.01
1044.2	624.12
1044.364	1353.2
1044.528	1431.02
1044.691	3777.99
1044.855	581.11
1045.019	1295.85
1045.183	1209.84
1045.346	802.29
1045.51	642.55
1045.674	1172.97
1045.837	1218.03
1046.001	562.68
1046.165	701.94
1046.328	1713.64
1046.492	1177.07
1046.655	697.85
1046.819	712.18
1046.983	923.12
1047.146	1103.34
1047.31	685.56
1047.473	452.09
1047.636	941.55
1047.8	800.24
1047.963	628.21
1048.127	591.35
1048.29	769.52
