Data from Ink_Intensity_USB4F045381__141__00141.txt Node

Date: Mon Jul 17 11:24:52 EDT 2023
User: mmckonesweet
Spectrometer: USB4F04538
Trigger mode: 4
Integration Time (sec): 9.000000E-1
Scans to average: 1
Electric dark correction enabled: true
Nonlinearity correction enabled: false
Boxcar width: 0
XAxis mode: Wavelengths
Number of Pixels in Spectrum: 3648
>>>>>Begin Spectral Data<<<<<
345.52	-1062.9
345.736	-1062.9
345.952	-1062.9
346.168	-1015.79
346.384	-1032.18
346.6	-167.93
346.816	-229.37
347.032	-231.42
347.248	206.84
347.464	-176.13
347.68	-69.63
347.896	36.86
348.112	428.03
348.328	-43.01
348.544	-114.69
348.76	86.01
348.975	274.43
349.191	-235.52
349.407	-112.64
349.623	-14.34
349.839	-47.1
350.055	-116.73
350.27	12.29
350.486	114.69
350.702	331.77
350.918	153.6
351.133	-135.17
351.349	122.88
351.565	397.31
351.781	-210.94
351.996	28.67
352.212	299
352.428	-143.36
352.644	-190.46
352.859	-231.42
353.075	231.42
353.291	100.35
353.506	-176.13
353.722	-206.84
353.938	0
354.153	471.03
354.369	77.82
354.584	-253.95
354.8	215.04
355.016	-317.44
355.231	-231.42
355.447	-96.25
355.662	155.65
355.878	817.14
356.093	-301.05
356.309	-61.44
356.524	-315.39
356.74	299
356.955	-251.9
357.171	-77.82
357.386	151.55
357.602	-262.14
357.817	-118.78
358.033	-192.51
358.248	391.16
358.464	129.02
358.679	-155.65
358.895	-370.68
359.11	-55.3
359.325	182.27
359.541	4.1
359.756	-88.06
359.972	-256
360.187	135.17
360.402	-229.37
360.618	-190.46
360.833	1009.65
361.048	100.35
361.264	-174.08
361.479	-55.3
361.694	88.06
361.909	217.08
362.125	-202.75
362.34	-141.31
362.555	319.48
362.77	24.58
362.986	-313.34
363.201	-190.46
363.416	188.41
363.631	2.05
363.847	-264.19
364.062	-208.89
364.277	75.77
364.492	149.5
364.707	-120.83
364.922	-378.87
365.138	217.08
365.353	212.99
365.568	-256
365.783	-165.89
365.998	-16.38
366.213	569.34
366.428	-235.52
366.643	49.15
366.858	280.57
367.073	192.51
367.288	-165.89
367.503	-292.86
367.718	43.01
367.933	282.62
368.148	-354.3
368.363	-137.21
368.578	-6.14
368.793	309.24
369.008	-120.83
369.223	-223.23
369.438	231.42
369.653	393.21
369.868	-288.76
370.083	-280.57
370.298	94.21
370.513	389.11
370.728	-36.86
370.943	-204.8
371.157	-212.99
371.372	585.72
371.587	-350.2
371.802	-260.09
372.017	47.1
372.232	448.51
372.446	-32.77
372.661	-284.67
372.876	204.8
373.091	182.27
373.306	-63.49
373.52	-249.85
373.735	-188.41
373.95	430.07
374.165	-139.26
374.379	-116.73
374.594	-51.2
374.809	51.2
375.023	55.3
375.238	-239.61
375.453	307.2
375.667	-202.75
375.882	-208.89
376.097	-169.98
376.311	10.24
376.526	118.78
376.741	-249.85
376.955	38.91
377.17	563.19
377.384	542.71
377.599	-36.86
377.813	-362.49
378.028	575.48
378.242	141.31
378.457	-69.63
378.672	-311.29
378.886	92.16
379.101	-18.43
379.315	-325.63
379.53	-131.07
379.744	188.41
379.958	235.52
380.173	-182.27
380.387	-249.85
380.602	108.54
380.816	-182.27
381.031	-188.41
381.245	-102.4
381.459	196.61
381.674	2830.29
381.888	-241.66
382.103	79.87
382.317	-129.02
382.531	452.6
382.746	-92.16
382.96	-249.85
383.174	-200.7
383.388	413.69
383.603	-4.1
383.817	-280.57
384.031	143.36
384.246	419.83
384.46	38.91
384.674	290.81
384.888	-28.67
385.103	20.48
385.317	-366.59
385.531	-153.6
385.745	346.11
385.959	249.85
386.174	-227.32
386.388	-219.13
386.602	6.14
386.816	-137.21
387.03	-124.93
387.244	-159.74
387.458	-20.48
387.672	366.59
387.887	-391.16
388.101	-385.02
388.315	237.56
388.529	61.44
388.743	-104.45
388.957	-256
389.171	262.14
389.385	-200.7
389.599	-186.37
389.813	102.4
390.027	143.36
390.241	546.81
390.455	-126.97
390.669	-176.13
390.883	-73.73
391.097	348.15
391.311	4.1
391.525	-247.8
391.738	182.27
391.952	141.31
392.166	-139.26
392.38	-227.32
392.594	194.56
392.808	264.19
393.022	-126.97
393.236	-143.36
393.449	192.51
393.663	182.27
393.877	-305.15
394.091	-137.21
394.305	-34.82
394.518	-157.69
394.732	-247.8
394.946	-165.89
395.16	460.79
395.373	96.25
395.587	-233.47
395.801	-253.95
396.015	210.94
396.228	215.04
396.442	-276.48
396.656	-395.26
396.869	368.63
397.083	438.27
397.297	-110.59
397.51	-190.46
397.724	299
397.938	18.43
398.151	-331.77
398.365	-364.54
398.578	276.48
398.792	356.35
399.005	-81.92
399.219	-169.98
399.433	67.58
399.646	172.03
399.86	-22.53
400.073	30.72
400.287	126.97
400.5	-47.1
400.714	-100.35
400.927	-20.48
401.141	223.23
401.354	1009.65
401.567	153.6
401.781	-303.1
401.994	274.43
402.208	622.58
402.421	-172.03
402.635	-178.17
402.848	38.91
403.061	323.58
403.275	-94.21
403.488	-276.48
403.701	456.7
403.915	317.44
404.128	-38.91
404.341	-235.52
404.555	208.89
404.768	22.53
404.981	47.1
405.195	-151.55
405.408	423.93
405.621	182.27
405.834	30.72
406.048	-247.8
406.261	411.64
406.474	444.41
406.687	-204.8
406.9	-51.2
407.114	10.24
407.327	178.17
407.54	-321.53
407.753	-339.96
407.966	-118.78
408.179	219.13
408.392	-161.79
408.605	-329.72
408.819	129.02
409.032	169.98
409.245	-215.04
409.458	-63.49
409.671	223.23
409.884	165.89
410.097	-342.01
410.31	-4.1
410.523	210.94
410.736	-88.06
410.949	-77.82
411.162	-167.93
411.375	385.02
411.588	270.33
411.801	-26.62
412.014	-235.52
412.227	-38.91
412.44	-55.3
412.653	-126.97
412.865	-22.53
413.078	272.38
413.291	223.23
413.504	-141.31
413.717	-196.61
413.93	227.32
414.143	-124.93
414.356	-131.07
414.568	-350.2
414.781	272.38
414.994	102.4
415.207	-114.69
415.42	-133.12
415.632	296.96
415.845	466.94
416.058	-299
416.271	-231.42
416.483	67.58
416.696	495.61
416.909	-233.47
417.121	-231.42
417.334	176.13
417.547	501.75
417.759	-247.8
417.972	-276.48
418.185	-129.02
418.397	301.05
418.61	-188.41
418.823	-202.75
419.035	339.96
419.248	34.82
419.46	-106.49
419.673	-16.38
419.885	143.36
420.098	-108.54
420.311	-151.55
420.523	-423.93
420.736	192.51
420.948	-14.34
421.161	-174.08
421.373	-360.44
421.586	122.88
421.798	-157.69
422.01	-333.82
422.223	-30.72
422.435	-73.73
422.648	190.46
422.86	-196.61
423.073	-157.69
423.285	321.53
423.497	-268.28
423.71	-235.52
423.922	-239.61
424.134	225.28
424.347	305.15
424.559	57.34
424.771	133.12
424.984	-53.25
425.196	106.49
425.408	-346.11
425.621	-264.19
425.833	307.2
426.045	342.01
426.257	-247.8
426.47	-215.04
426.682	141.31
426.894	124.93
427.106	-163.84
427.318	-118.78
427.531	-122.88
427.743	249.85
427.955	-202.75
428.167	335.87
428.379	124.93
428.591	-28.67
428.804	-67.58
429.016	-311.29
429.228	-86.01
429.44	204.8
429.652	-53.25
429.864	-305.15
430.076	-92.16
430.288	-22.53
430.5	-163.84
430.712	-88.06
430.924	344.06
431.136	118.78
431.348	-354.3
431.56	-212.99
431.772	26.62
431.984	-104.45
432.196	-264.19
432.408	-192.51
432.62	-106.49
432.832	143.36
433.044	73.73
433.256	-45.06
433.468	178.17
433.679	-258.04
433.891	-284.67
434.103	-47.1
434.315	393.21
434.527	198.65
434.739	-65.54
434.95	-141.31
435.162	217.08
435.374	-75.77
435.586	-122.88
435.798	-264.19
436.009	-262.14
436.221	34.82
436.433	-249.85
436.645	-233.47
436.856	-86.01
437.068	251.9
437.28	-245.76
437.491	65.53
437.703	210.94
437.915	233.47
438.126	-176.13
438.338	96.25
438.55	26.62
438.761	247.8
438.973	-256
439.184	-202.75
439.396	100.35
439.608	155.65
439.819	-243.71
440.031	-120.83
440.242	282.62
440.454	245.76
440.665	-176.13
440.877	-71.68
441.088	79.87
441.3	-28.67
441.511	-315.39
441.723	-276.48
441.934	30.72
442.146	-53.25
442.357	-65.54
442.569	129.02
442.78	110.59
442.991	448.51
443.203	131.07
443.414	-331.77
443.626	315.39
443.837	-151.55
444.048	-231.42
444.26	-342.01
444.471	-12.29
444.682	237.56
444.894	-346.11
445.105	-342.01
445.316	172.03
445.528	147.45
445.739	-137.21
445.95	-208.89
446.161	116.73
446.373	233.47
446.584	-215.04
446.795	-206.84
447.006	174.08
447.217	366.59
447.429	-323.58
447.64	-296.96
447.851	266.24
448.062	83.97
448.273	-471.03
448.484	-290.81
448.695	184.32
448.907	-55.3
449.118	-153.6
449.329	-18.43
449.54	-102.4
449.751	-235.52
449.962	-247.8
450.173	-149.5
450.384	243.71
450.595	268.28
450.806	-253.95
451.017	-100.35
451.228	317.44
451.439	188.41
451.65	-198.65
451.861	-376.83
452.072	-135.17
452.283	-16.38
452.494	-40.96
452.705	-241.66
452.915	417.79
453.126	135.17
453.337	-186.37
453.548	-329.72
453.759	251.9
453.97	481.27
454.181	-67.58
454.391	-212.99
454.602	174.08
454.813	192.51
455.024	-208.89
455.235	-280.57
455.445	124.93
455.656	129.02
455.867	-63.49
456.078	-249.85
456.288	-26.62
456.499	137.21
456.71	-296.96
456.921	-10.24
457.131	143.36
457.342	67.58
457.553	-83.97
457.763	-219.13
457.974	88.06
458.184	229.37
458.395	-266.24
458.606	-319.48
458.816	346.11
459.027	430.07
459.237	-106.49
459.448	-395.26
459.659	311.29
459.869	628.73
460.08	-456.7
460.29	8.19
460.501	409.59
460.711	-67.58
460.922	-325.63
461.132	-305.15
461.343	681.97
461.553	-290.81
461.764	-247.8
461.974	-258.04
462.184	315.39
462.395	36.86
462.605	-174.08
462.816	-292.86
463.026	104.45
463.236	270.33
463.447	-294.91
463.657	-210.94
463.867	282.62
464.078	-20.48
464.288	-155.65
464.498	-206.84
464.709	-75.77
464.919	61.44
465.129	-198.65
465.339	-217.08
465.55	135.17
465.76	116.73
465.97	-194.56
466.18	-296.96
466.391	247.8
466.601	178.17
466.811	-165.89
467.021	-311.29
467.231	100.35
467.441	339.96
467.651	-208.89
467.862	-495.61
468.072	34.82
468.282	325.63
468.492	-235.52
468.702	-180.22
468.912	-10.24
469.122	684.02
469.332	40.96
469.542	-296.96
469.752	174.08
469.962	108.54
470.172	-296.96
470.382	-268.28
470.592	260.09
470.802	317.44
471.012	-81.92
471.222	-247.8
471.432	288.76
471.642	188.41
471.852	-161.79
472.062	-296.96
472.272	4.1
472.482	-309.24
472.691	-256
472.901	-313.34
473.111	83.97
473.321	507.9
473.531	-382.97
473.741	-147.45
473.95	137.21
474.16	122.88
474.37	-114.69
474.58	-292.86
474.79	407.55
474.999	165.89
475.209	-210.94
475.419	-223.23
475.628	-26.62
475.838	245.76
476.048	-145.41
476.258	-362.49
476.467	321.53
476.677	-137.21
476.886	20.48
477.096	-129.02
477.306	-153.6
477.515	311.29
477.725	-161.79
477.935	-194.56
478.144	333.82
478.354	-124.93
478.563	-221.18
478.773	-239.61
478.982	126.97
479.192	321.53
479.401	-100.35
479.611	-354.3
479.82	-133.12
480.03	88.06
480.239	-294.91
480.449	-333.82
480.658	370.68
480.868	-116.73
481.077	-129.02
481.287	-239.61
481.496	112.64
481.705	423.93
481.915	-20.48
482.124	-10.24
482.333	147.45
482.543	389.11
482.752	-53.25
482.961	-276.48
483.171	307.2
483.38	8.19
483.589	-212.99
483.799	-278.52
484.008	-34.82
484.217	256
484.426	-100.35
484.636	-335.87
484.845	65.53
485.054	-272.38
485.263	67.58
485.472	-190.46
485.682	446.46
485.891	12.29
486.1	-342.01
486.309	-153.6
486.518	133.12
486.727	362.49
486.936	-311.29
487.146	-90.11
487.355	301.05
487.564	-208.89
487.773	-186.37
487.982	-247.8
488.191	-110.59
488.4	38.91
488.609	-206.84
488.818	-276.48
489.027	581.62
489.236	415.74
489.445	-225.28
489.654	-305.15
489.863	202.75
490.072	124.93
490.281	118.78
490.49	-221.18
490.698	413.69
490.907	434.17
491.116	-186.37
491.325	-315.39
491.534	419.83
491.743	108.54
491.952	-178.17
492.16	-231.42
492.369	190.46
492.578	249.85
492.787	-178.17
492.996	-407.55
493.204	-133.12
493.413	501.75
493.622	-456.7
493.831	-446.46
494.039	387.07
494.248	-268.28
494.457	-319.48
494.665	-428.03
494.874	194.56
495.083	552.95
495.291	-200.7
495.5	-301.05
495.709	198.65
495.917	186.37
496.126	-159.74
496.335	-247.8
496.543	-79.87
496.752	116.73
496.96	26.62
497.169	-409.59
497.377	75.77
497.586	395.26
497.794	-55.3
498.003	-438.27
498.211	10.24
498.42	464.89
498.628	-86.01
498.837	-251.9
499.045	126.97
499.254	116.73
499.462	-258.04
499.671	-229.37
499.879	405.5
500.087	282.62
500.296	-219.13
500.504	-178.17
500.713	169.98
500.921	579.58
501.129	-305.15
501.338	-133.12
501.546	63.49
501.754	135.17
501.962	-217.08
502.171	-342.01
502.379	92.16
502.587	516.09
502.795	-77.82
503.004	-210.94
503.212	34.82
503.42	325.63
503.628	-198.65
503.837	-178.17
504.045	215.04
504.253	460.79
504.461	-268.28
504.669	-272.38
504.877	233.47
505.085	380.92
505.294	-319.48
505.502	-79.87
505.71	83.97
505.918	272.38
506.126	-276.48
506.334	-258.04
506.542	16.38
506.75	137.21
506.958	-153.6
507.166	-169.98
507.374	-10.24
507.582	552.95
507.79	-110.59
507.998	-243.71
508.206	200.7
508.414	178.17
508.622	-251.9
508.83	-145.41
509.037	509.94
509.245	59.39
509.453	-284.67
509.661	-315.39
509.869	327.67
510.077	59.39
510.285	-126.97
510.492	-485.37
510.7	667.64
510.908	-88.06
511.116	-206.84
511.324	-292.86
511.531	-28.67
511.739	59.39
511.947	-8.19
512.155	141.31
512.362	176.13
512.57	-196.61
512.778	-301.05
512.985	-352.25
513.193	276.48
513.401	446.46
513.608	-161.79
513.816	-188.41
514.024	264.19
514.231	419.83
514.439	-223.23
514.646	-290.81
514.854	241.66
515.061	329.72
515.269	-241.66
515.477	-190.46
515.684	-215.04
515.892	331.77
516.099	-319.48
516.307	-395.26
516.514	288.76
516.722	468.98
516.929	-206.84
517.136	-288.76
517.344	487.42
517.551	217.08
517.759	-190.46
517.966	-133.12
518.173	-22.53
518.381	145.41
518.588	-116.73
518.796	-264.19
519.003	229.37
519.21	114.69
519.418	-186.37
519.625	108.54
519.832	86.01
520.039	141.31
520.247	-397.31
520.454	-141.31
520.661	303.1
520.868	215.04
521.076	-227.32
521.283	-239.61
521.49	739.32
521.697	182.27
521.904	-174.08
522.112	-217.08
522.319	358.39
522.526	229.37
522.733	-337.91
522.94	-210.94
523.147	65.53
523.354	323.58
523.561	-378.87
523.768	-153.6
523.975	393.21
524.183	155.65
524.39	-141.31
524.597	-311.29
524.804	63.49
525.011	-51.2
525.218	-251.9
525.425	-237.56
525.632	464.89
525.838	-6.14
526.045	-180.22
526.252	-268.28
526.459	1284.08
526.666	956.4
526.873	-188.41
527.08	-276.48
527.287	489.46
527.494	301.05
527.701	-237.56
527.907	-217.08
528.114	223.23
528.321	8.19
528.528	-118.78
528.735	-186.37
528.941	-2.05
529.148	20.48
529.355	-4.1
529.562	-280.57
529.768	546.81
529.975	26.62
530.182	-112.64
530.388	-157.69
530.595	385.02
530.802	-137.21
531.008	-6.14
531.215	-133.12
531.422	501.75
531.628	862.19
531.835	-73.73
532.042	-110.59
532.248	-30.72
532.455	284.67
532.661	-182.27
532.868	-88.06
533.074	219.13
533.281	305.15
533.487	-65.54
533.694	-264.19
533.9	-79.87
534.107	301.05
534.313	-237.56
534.52	-219.13
534.726	348.15
534.933	579.58
535.139	-219.13
535.345	-342.01
535.552	296.96
535.758	161.79
535.965	-169.98
536.171	-202.75
536.377	301.05
536.584	520.18
536.79	-233.47
536.996	-24.58
537.203	122.88
537.409	208.89
537.615	-151.55
537.821	49.15
538.028	407.55
538.234	235.52
538.44	-225.28
538.646	-153.6
538.853	276.48
539.059	147.45
539.265	229.37
539.471	-374.78
539.677	284.67
539.883	53.25
540.09	-165.89
540.296	262.14
540.502	190.46
540.708	-8.19
540.914	-34.82
541.12	-96.25
541.326	258.04
541.532	53.25
541.738	-45.06
541.944	-30.72
542.15	294.91
542.356	114.69
542.562	-245.76
542.768	-116.73
542.974	708.6
543.18	722.93
543.386	-178.17
543.592	-235.52
543.798	485.37
544.004	387.07
544.21	-120.83
544.415	36.86
544.621	96.25
544.827	350.2
545.033	-262.14
545.239	155.65
545.445	-65.54
545.651	235.52
545.856	-141.31
546.062	-165.89
546.268	49.15
546.474	129.02
546.679	-110.59
546.885	-116.73
547.091	116.73
547.297	626.68
547.502	-38.91
547.708	-206.84
547.914	-47.1
548.119	331.77
548.325	-233.47
548.531	-155.65
548.736	507.9
548.942	59.39
549.147	-176.13
549.353	26.62
549.559	479.22
549.764	276.48
549.97	-79.87
550.175	-88.06
550.381	348.15
550.586	75.77
550.792	-120.83
550.997	-59.39
551.203	235.52
551.408	378.87
551.614	-194.56
551.819	-182.27
552.025	587.77
552.23	681.97
552.435	-235.52
552.641	47.1
552.846	51.2
553.052	534.52
553.257	-22.53
553.462	-77.82
553.668	-10.24
553.873	505.85
554.078	-139.26
554.283	-108.54
554.489	251.9
554.694	126.97
554.899	-100.35
555.105	116.73
555.31	278.52
555.515	376.83
555.72	-55.3
555.925	-172.03
556.131	360.44
556.336	124.93
556.541	-200.7
556.746	-155.65
556.951	532.47
557.156	491.51
557.361	-18.43
557.567	83.97
557.772	710.65
557.977	378.87
558.182	-98.3
558.387	-77.82
558.592	114.69
558.797	507.9
559.002	92.16
559.207	118.78
559.412	227.32
559.617	649.21
559.822	-2.05
560.027	-120.83
560.232	286.72
560.437	401.4
560.642	-96.25
560.847	-63.49
561.051	280.57
561.256	305.15
561.461	-28.67
561.666	-210.94
561.871	354.3
562.076	438.27
562.281	-10.24
562.485	-153.6
562.69	471.03
562.895	419.83
563.1	30.72
563.305	-190.46
563.509	489.46
563.714	743.41
563.919	-47.1
564.123	-30.72
564.328	239.61
564.533	557.05
564.737	-8.19
564.942	-100.35
565.147	641.01
565.351	813.04
565.556	47.1
565.761	-6.14
565.965	370.68
566.17	83.97
566.374	30.72
566.579	-102.4
566.784	354.3
566.988	243.71
567.193	-145.41
567.397	-63.49
567.602	67.58
567.806	239.61
568.011	-38.91
568.215	32.77
568.42	190.46
568.624	296.96
568.828	-24.58
569.033	198.65
569.237	509.94
569.442	468.98
569.646	-151.55
569.85	-26.62
570.055	245.76
570.259	444.41
570.463	202.75
570.668	12.29
570.872	337.91
571.076	305.15
571.281	204.8
571.485	38.91
571.689	313.34
571.893	514.04
572.098	184.32
572.302	49.15
572.506	587.77
572.71	366.59
572.914	75.77
573.119	-6.14
573.323	686.07
573.527	665.59
573.731	-28.67
573.935	-59.39
574.139	329.72
574.343	194.56
574.547	40.96
574.751	102.4
574.955	645.11
575.159	649.21
575.364	40.96
575.568	24.58
575.772	264.19
575.976	587.77
576.18	-6.14
576.383	-100.35
576.587	567.29
576.791	503.8
576.995	-137.21
577.199	-184.32
577.403	600.05
577.607	598.01
577.811	16.38
578.015	219.13
578.219	428.03
578.422	567.29
578.626	77.82
578.83	231.42
579.034	610.29
579.238	299
579.442	67.58
579.645	405.5
579.849	350.2
580.053	462.84
580.257	223.23
580.46	159.74
580.664	638.97
580.868	493.56
581.071	272.38
581.275	239.61
581.479	124.93
581.682	593.91
581.886	86.01
582.09	169.98
582.293	460.79
582.497	511.99
582.7	305.15
582.904	96.25
583.107	395.26
583.311	337.91
583.515	206.84
583.718	126.97
583.922	657.4
584.125	815.09
584.329	94.21
584.532	223.23
584.735	735.22
584.939	577.53
585.142	-110.59
585.346	43.01
585.549	499.7
585.753	256
585.956	96.25
586.159	268.28
586.363	831.48
586.566	487.42
586.769	131.07
586.973	-2.05
587.176	684.02
587.379	626.68
587.582	440.31
587.786	452.6
587.989	270.33
588.192	1052.66
588.395	272.38
588.599	479.22
588.802	501.75
589.005	544.76
589.208	137.21
589.411	215.04
589.615	765.94
589.818	813.04
590.021	423.93
590.224	311.29
590.427	698.36
590.63	585.72
590.833	10.24
591.036	96.25
591.239	378.87
591.442	301.05
591.645	358.39
591.848	96.25
592.051	526.33
592.254	817.14
592.457	206.84
592.66	262.14
592.863	425.98
593.066	653.3
593.269	184.32
593.472	233.47
593.675	360.44
593.878	667.64
594.081	333.82
594.284	151.55
594.486	735.22
594.689	509.94
594.892	221.18
595.095	288.76
595.298	636.92
595.5	387.07
595.703	401.4
595.906	403.45
596.109	886.77
596.311	815.09
596.514	-6.14
596.717	290.81
596.92	823.28
597.122	651.25
597.325	53.25
597.528	202.75
597.73	856.05
597.933	569.34
598.136	256
598.338	-88.06
598.541	669.69
598.743	784.37
598.946	274.43
599.148	296.96
599.351	800.76
599.554	739.32
599.756	358.39
599.959	284.67
600.161	813.04
600.363	1181.68
600.566	608.25
600.768	356.35
600.971	952.31
601.173	823.28
601.376	321.53
601.578	296.96
601.78	718.84
601.983	1273.84
602.185	305.15
602.388	485.37
602.59	702.45
602.792	571.38
602.995	528.38
603.197	245.76
603.399	827.38
603.601	526.33
603.804	393.21
604.006	387.07
604.208	477.18
604.41	233.47
604.613	468.98
604.815	358.39
605.017	1175.53
605.219	477.18
605.421	718.84
605.623	403.45
605.826	970.74
606.028	1001.46
606.23	342.01
606.432	270.33
606.634	1116.14
606.836	980.98
607.038	288.76
607.24	460.79
607.442	671.73
607.644	677.88
607.846	555
608.048	344.06
608.25	1042.42
608.452	430.07
608.654	405.5
608.856	237.56
609.058	677.88
609.26	698.36
609.462	565.24
609.664	462.84
609.866	1159.15
610.067	944.11
610.269	557.05
610.471	501.75
610.673	677.88
610.875	804.85
611.077	280.57
611.278	522.23
611.48	661.49
611.682	1128.43
611.884	546.81
612.085	536.57
612.287	380.92
612.489	829.43
612.69	313.34
612.892	571.38
613.094	999.41
613.295	954.35
613.497	364.54
613.699	495.61
613.9	1066.99
614.102	956.4
614.304	497.66
614.505	372.73
614.707	598.01
614.908	643.06
615.11	219.13
615.311	606.2
615.513	1026.03
615.714	972.79
615.916	350.2
616.117	618.49
616.319	743.41
616.52	903.15
616.722	495.61
616.923	509.94
617.124	1034.22
617.326	956.4
617.527	675.83
617.729	649.21
617.93	817.14
618.131	962.55
618.333	481.27
618.534	591.86
618.735	567.29
618.937	1134.57
619.138	393.21
619.339	468.98
619.54	851.95
619.742	759.8
619.943	669.69
620.144	573.43
620.345	1019.89
620.546	1034.22
620.748	555
620.949	511.99
621.15	911.35
621.351	874.48
621.552	542.71
621.753	337.91
621.954	466.94
622.155	1327.08
622.356	464.89
622.558	727.03
622.759	804.85
622.96	1249.26
623.161	579.58
623.362	602.1
623.563	909.3
623.764	927.73
623.965	649.21
624.166	817.14
624.366	833.52
624.567	901.11
624.768	288.76
624.969	638.97
625.17	808.95
625.371	1073.14
625.572	563.19
625.773	587.77
625.973	1073.14
626.174	960.5
626.375	618.49
626.576	686.07
626.777	968.69
626.977	1464.3
627.178	567.29
627.379	813.04
627.58	798.71
627.78	1001.46
627.981	636.92
628.182	751.6
628.382	1218.54
628.583	585.72
628.784	690.17
628.984	856.05
629.185	1167.34
629.386	1220.59
629.586	759.8
629.787	591.86
629.987	1062.9
630.188	1011.7
630.388	688.12
630.589	806.9
630.79	1603.56
630.99	923.63
631.191	735.22
631.391	790.52
631.591	1187.82
631.792	1394.67
631.992	790.52
632.193	784.37
632.393	1353.71
632.594	960.5
632.794	675.83
632.994	761.84
633.195	937.97
633.395	935.92
633.595	739.32
633.796	1001.46
633.996	806.9
634.196	1249.26
634.397	608.25
634.597	788.47
634.797	835.57
634.997	1337.32
635.198	919.54
635.398	696.31
635.598	1046.51
635.798	1353.71
635.998	1269.74
636.199	673.78
636.399	827.38
636.599	993.26
636.799	770.04
636.999	970.74
637.199	1173.49
637.399	1249.26
637.599	763.89
637.799	854
637.999	903.15
638.199	1468.39
638.399	800.76
638.599	833.52
638.799	1128.43
638.999	1517.54
639.199	1040.37
639.399	931.83
639.599	1507.3
639.799	813.04
639.999	747.51
640.199	731.12
640.399	1183.73
640.599	1077.23
640.799	827.38
640.998	1058.8
641.198	1431.53
641.398	1179.63
641.598	997.36
641.798	923.63
641.997	1902.56
642.197	1089.52
642.397	1005.55
642.597	925.68
642.796	1200.11
642.996	1474.54
643.196	1038.32
643.395	800.76
643.595	1277.93
643.795	737.27
643.994	856.05
644.194	960.5
644.394	1460.2
644.593	1226.73
644.793	733.17
644.992	1021.94
645.192	1472.49
645.392	790.52
645.591	1087.47
645.791	974.83
645.99	1320.94
646.19	1183.73
646.389	1023.98
646.589	1038.32
646.788	1443.82
646.987	1376.23
647.187	1206.25
647.386	1128.43
647.586	1339.37
647.785	1359.85
647.984	1013.74
648.184	1050.61
648.383	1015.79
648.582	1144.81
648.782	1073.14
648.981	1239.02
649.18	1062.9
649.38	1239.02
649.579	954.35
649.778	925.68
649.977	1302.51
650.177	1345.52
650.376	940.02
650.575	952.31
650.774	1566.7
650.973	1103.86
651.173	894.96
651.372	1099.76
651.571	1265.64
651.77	1542.12
651.969	980.98
652.168	1066.99
652.367	966.64
652.566	1357.8
652.765	927.73
652.964	1247.21
653.163	1802.21
653.362	1132.53
653.561	1040.37
653.76	1069.04
653.959	1308.65
654.158	1497.07
654.357	1337.32
654.556	1120.24
654.755	1349.61
654.954	1540.07
655.153	1101.81
655.352	1075.18
655.551	1689.57
655.749	1179.63
655.948	1239.02
656.147	1183.73
656.346	1474.54
656.545	1386.47
656.743	1226.73
656.942	1292.27
657.141	1429.48
657.34	1175.53
657.538	1148.91
657.737	1218.54
657.936	1177.58
658.135	1509.35
658.333	1128.43
658.532	1339.37
658.731	1847.27
658.929	1679.33
659.128	1554.41
659.326	1103.86
659.525	1708.01
659.724	1273.84
659.922	1054.7
660.121	1091.57
660.319	1529.83
660.518	1222.64
660.716	1056.75
660.915	1146.86
661.113	1742.82
661.312	1136.62
661.51	1259.5
661.709	1093.62
661.907	1701.86
662.105	1957.86
662.304	1189.87
662.502	1294.32
662.701	1771.49
662.899	1292.27
663.097	1423.34
663.296	1116.14
663.494	1685.48
663.692	1808.36
663.891	1165.29
664.089	1095.66
664.287	1558.5
664.485	1779.68
664.684	1239.02
664.882	1390.57
665.08	1435.63
665.278	1507.3
665.476	1161.2
665.675	1505.26
665.873	1886.18
666.071	1751.01
666.269	1224.69
666.467	1566.7
666.665	1615.85
666.863	1517.54
667.061	1538.02
667.259	1290.22
667.457	1591.27
667.655	1669.09
667.853	1206.25
668.051	1402.86
668.249	1310.7
668.447	1665
668.645	1267.69
668.843	1497.07
669.041	1628.14
669.239	1427.43
669.437	1460.2
669.635	1439.72
669.833	1472.49
670.031	1888.23
670.229	1429.48
670.426	1449.96
670.624	1402.86
670.822	1411.05
671.02	1392.62
671.218	1339.37
671.415	1333.23
671.613	1591.27
671.811	1429.48
672.009	1423.34
672.206	1904.61
672.404	1718.25
672.602	1660.9
672.799	1464.3
672.997	1716.2
673.195	1851.36
673.392	1449.96
673.59	1296.36
673.788	1847.27
673.985	1132.53
674.183	1460.2
674.38	1384.43
674.578	1978.34
674.775	1478.63
674.973	1296.36
675.17	1376.23
675.368	1996.77
675.565	1843.17
675.763	1433.58
675.96	1415.15
676.158	1875.94
676.355	1597.42
676.553	1449.96
676.75	1472.49
676.947	1722.34
677.145	1642.47
677.342	1585.13
677.539	1554.41
677.737	1615.85
677.934	2197.47
678.131	1658.85
678.329	1439.72
678.526	2009.06
678.723	1949.67
678.92	1517.54
679.118	1456.11
679.315	1443.82
679.512	2136.03
679.709	1474.54
679.906	1652.71
680.104	2015.2
680.301	1894.37
680.498	1376.23
680.695	1415.15
680.892	1529.83
681.089	1583.08
681.286	1675.24
681.483	1337.32
681.68	1880.04
681.877	1869.8
682.075	1478.63
682.272	1705.96
682.469	1826.79
682.665	1748.97
682.862	1468.39
683.059	1396.71
683.256	1888.23
683.453	1740.77
683.65	1497.07
683.847	1669.09
684.044	1845.22
684.241	1445.87
684.438	1769.44
684.635	1392.62
684.831	2189.28
685.028	2308.06
685.225	1521.64
685.422	1845.22
685.619	1857.51
685.815	1800.16
686.012	1619.94
686.209	1615.85
686.405	1660.9
686.602	2009.06
686.799	1486.83
686.996	1396.71
687.192	1521.64
687.389	2303.96
687.586	1589.22
687.782	1656.81
687.979	2185.18
688.175	2074.59
688.372	1599.46
688.568	1619.94
688.765	1763.3
688.962	2156.51
689.158	1665
689.355	1550.31
689.551	2097.12
689.748	1736.68
689.944	1601.51
690.14	1482.73
690.337	2176.99
690.533	1669.09
690.73	1814.5
690.926	1710.05
691.123	1961.95
691.319	1927.14
691.515	1478.63
691.712	1775.59
691.908	2076.64
692.104	1955.81
692.301	1787.88
692.497	1607.66
692.693	2129.89
692.889	2127.84
693.086	1955.81
693.282	1423.34
693.478	1884.13
693.674	2170.85
693.87	1765.35
694.067	1697.77
694.263	2117.6
694.459	1783.78
694.655	1779.68
694.851	1783.78
695.047	1943.52
695.243	2195.42
695.439	1964
695.635	1724.39
695.831	2066.4
696.027	2076.64
696.224	1591.27
696.42	2025.44
696.615	2244.57
696.811	2111.46
697.007	1482.73
697.203	1751.01
697.399	1978.34
697.595	2432.99
697.791	1585.13
697.987	2023.39
698.183	1714.15
698.379	1816.55
698.575	1734.63
698.77	1837.03
698.966	2090.98
699.162	2308.06
699.358	1832.93
699.554	1765.35
699.749	2254.81
699.945	2265.05
700.141	1986.53
700.337	1863.65
700.532	2035.68
700.728	1716.2
700.924	1748.97
701.119	1619.94
701.315	2074.59
701.511	2002.91
701.706	1861.6
701.902	1675.24
702.097	2056.16
702.293	2220
702.489	1820.64
702.684	1794.02
702.88	2019.3
703.075	1902.56
703.271	1900.51
703.466	1650.66
703.662	2007.01
703.857	2168.8
704.053	1802.21
704.248	1816.55
704.443	2228.19
704.639	2172.89
704.834	1918.95
705.03	1742.82
705.225	2193.37
705.42	2217.95
705.616	2074.59
705.811	1810.4
706.006	2015.2
706.202	1953.76
706.397	2088.93
706.592	1634.28
706.787	2129.89
706.983	2215.9
707.178	2150.37
707.373	1884.13
707.568	2121.7
707.763	2349.02
707.959	1937.38
708.154	1886.18
708.349	2156.51
708.544	2213.85
708.739	2121.7
708.934	1804.26
709.129	2172.89
709.324	2359.26
709.519	1832.93
709.714	1810.4
709.909	2328.54
710.104	2357.21
710.299	1830.88
710.494	1951.71
710.689	2320.35
710.884	2080.74
711.079	1978.34
711.274	2136.03
711.469	2199.52
711.664	2168.8
711.859	1865.7
712.054	2068.45
712.249	2332.64
712.443	2473.95
712.638	1916.9
712.833	1892.32
713.028	2136.03
713.223	2152.42
713.417	2285.53
713.612	2052.06
713.807	2418.65
714.002	2858.96
714.196	2121.7
714.391	1871.84
714.586	2439.13
714.78	2181.09
714.975	1953.76
715.17	2000.87
715.364	2052.06
715.559	2480.09
715.754	1755.11
715.948	1937.38
716.143	2670.55
716.337	2349.02
716.532	2213.85
716.726	1918.95
716.921	2379.74
717.115	2617.3
717.31	1828.84
717.504	2467.8
717.699	2115.55
717.893	2430.94
718.088	1886.18
718.282	1929.19
718.476	2383.84
718.671	2344.92
718.865	2041.82
719.059	1990.63
719.254	2258.91
719.448	2568.15
719.642	2217.95
719.837	1800.16
720.031	2492.38
720.225	2482.14
720.419	2125.79
720.614	2035.68
720.808	2469.85
721.002	2263.01
721.196	1800.16
721.39	1964
721.585	2598.87
721.779	2273.25
721.973	2066.4
722.167	1964
722.361	2275.29
722.555	2609.11
722.749	2103.26
722.943	2140.13
723.137	2029.54
723.331	2297.82
723.525	2150.37
723.719	2058.21
723.913	2447.32
724.107	2484.19
724.301	1947.62
724.495	2111.46
724.689	2721.75
724.883	2645.98
725.077	2074.59
725.271	2138.08
725.465	2521.05
725.659	2254.81
725.853	2140.13
726.046	1869.8
726.24	2164.7
726.434	2527.19
726.628	2119.65
726.822	2050.02
727.015	2529.24
727.209	2680.79
727.403	2021.35
727.596	1984.48
727.79	2619.35
727.984	2686.93
728.177	2246.62
728.371	2236.38
728.565	2562.01
728.758	2031.59
728.952	1992.67
729.146	2086.88
729.339	2656.22
729.533	2299.87
729.726	2293.72
729.92	2068.45
730.113	2697.17
730.307	2592.73
730.5	2181.09
730.694	2125.79
730.887	2373.6
731.081	2672.6
731.274	2095.07
731.468	2148.32
731.661	2357.21
731.854	2357.21
732.048	2248.67
732.241	2131.94
732.435	2201.57
732.628	2467.8
732.821	2176.99
733.014	2095.07
733.208	2152.42
733.401	2664.41
733.594	2254.81
733.788	2095.07
733.981	2740.18
734.174	2570.2
734.367	2152.42
734.56	2322.4
734.754	2738.13
734.947	2508.76
735.14	2144.22
735.333	2224.09
735.526	2652.12
735.719	2283.49
735.912	2050.02
736.105	2148.32
736.298	2426.84
736.491	2469.85
736.684	2240.48
736.877	2263.01
737.07	2588.63
737.263	2754.52
737.456	2185.18
737.649	2150.37
737.842	2494.43
738.035	2465.75
738.228	2301.92
738.421	2357.21
738.614	2908.12
738.807	2682.84
739	1988.58
739.192	2074.59
739.385	2643.93
739.578	2684.89
739.771	2473.95
739.964	2316.25
740.156	2570.2
740.349	2410.46
740.542	2562.01
740.735	2113.5
740.927	2308.06
741.12	2373.6
741.313	2166.75
741.505	2365.4
741.698	2688.98
741.891	2791.38
742.083	2377.69
742.276	2295.77
742.468	2426.84
742.661	2463.71
742.854	2416.6
743.046	2258.91
743.239	2842.58
743.431	2664.41
743.624	2226.14
743.816	2176.99
744.009	2418.65
744.201	2615.26
744.393	2414.56
744.586	2193.37
744.778	2916.31
744.971	2639.83
745.163	2402.27
745.355	2410.46
745.548	2676.7
745.74	2514.91
745.932	2418.65
746.125	2420.7
746.317	3043.28
746.509	2744.28
746.702	2488.28
746.894	2430.94
747.086	2777.05
747.278	2904.02
747.471	2459.61
747.663	2484.19
747.855	2830.29
748.047	3061.71
748.239	2267.1
748.431	2463.71
748.623	3061.71
748.815	2959.31
749.008	2263.01
749.2	2316.25
749.392	2791.38
749.584	2770.9
749.776	2369.5
749.968	2654.17
750.16	3024.85
750.352	2615.26
750.544	2559.96
750.736	2303.96
750.928	2740.18
751.12	2486.23
751.311	2447.32
751.503	2570.2
751.695	2629.59
751.887	2619.35
752.079	2203.61
752.271	2373.6
752.463	3450.83
752.654	2922.45
752.846	2449.37
753.038	2373.6
753.23	2574.3
753.421	2953.17
753.613	2514.91
753.805	2764.76
753.997	2947.03
754.188	2959.31
754.38	2172.89
754.572	2455.51
754.763	2578.39
754.955	2721.75
755.146	2414.56
755.338	2625.5
755.53	2854.87
755.721	2652.12
755.913	2275.29
756.104	2361.31
756.296	2568.15
756.487	2889.68
756.679	2295.77
756.87	2422.75
757.062	2494.43
757.253	2877.4
757.445	2353.12
757.636	2576.34
757.827	2791.38
758.019	3229.65
758.21	2258.91
758.401	2455.51
758.593	3200.98
758.784	2965.46
758.975	2277.34
759.167	2443.23
759.358	2713.56
759.549	3024.85
759.74	2467.8
759.932	2373.6
760.123	3055.57
760.314	2668.5
760.505	2543.58
760.696	2373.6
760.888	3151.82
761.079	2705.37
761.27	2367.45
761.461	2226.14
761.652	3080.14
761.843	2645.98
762.034	2402.27
762.225	2787.29
762.416	2715.61
762.607	2568.15
762.798	2549.72
762.989	2439.13
763.18	3409.87
763.371	2555.86
763.562	2504.67
763.753	2541.53
763.944	3010.51
764.135	2971.6
764.326	2492.38
764.517	2469.85
764.708	2848.72
764.899	2813.91
765.089	2435.03
765.28	2383.84
765.471	2881.49
765.662	2803.67
765.853	2598.87
766.043	2357.21
766.234	3016.66
766.425	2994.13
766.615	2541.53
766.806	2445.27
766.997	3057.62
767.187	2756.57
767.378	2523.1
767.569	2269.15
767.759	2871.25
767.95	2770.9
768.141	2680.79
768.331	2336.73
768.522	2836.44
768.712	2936.79
768.903	2426.84
769.093	2443.23
769.284	3145.68
769.474	2813.91
769.665	2402.27
769.855	2324.44
770.046	2885.59
770.236	2793.43
770.426	2713.56
770.617	2420.7
770.807	2936.79
770.998	2639.83
771.188	2856.92
771.378	2406.36
771.569	2942.93
771.759	2756.57
771.949	2387.93
772.139	2291.68
772.33	2717.65
772.52	3190.74
772.71	2340.83
772.9	2480.09
773.09	3067.86
773.281	3106.77
773.471	2510.81
773.661	2516.95
773.851	3106.77
774.041	2605.02
774.231	2322.4
774.421	2529.24
774.611	3127.25
774.802	2901.97
774.992	2568.15
775.182	2432.99
775.372	2775
775.562	2985.94
775.752	2455.51
775.942	2555.86
776.131	3053.52
776.321	2664.41
776.511	2525.15
776.701	2361.31
776.891	3039.19
777.081	2443.23
777.271	2617.3
777.461	2437.08
777.651	2926.55
777.84	3078.1
778.03	2623.45
778.22	2435.03
778.41	3215.31
778.599	2607.06
778.789	2582.49
778.979	2375.64
779.169	2893.78
779.358	2656.22
779.548	2813.91
779.738	2361.31
779.927	2930.64
780.117	2566.1
780.307	2498.52
780.496	2281.44
780.686	2967.51
780.875	3098.58
781.065	2568.15
781.254	2484.19
781.444	2693.08
781.633	2840.53
781.823	2574.3
782.012	2469.85
782.202	2645.98
782.391	2756.57
782.581	2326.49
782.77	2729.94
782.96	2942.93
783.149	2629.59
783.338	2521.05
783.528	2232.29
783.717	2936.79
783.906	3045.33
784.096	2672.6
784.285	2306.01
784.474	2744.28
784.663	2437.08
784.853	2545.63
785.042	2516.95
785.231	2707.41
785.42	3074
785.61	2578.39
785.799	2414.56
785.988	2668.5
786.177	2711.51
786.366	2643.93
786.555	2652.12
786.744	3098.58
786.933	2721.75
787.122	2428.89
787.312	2389.98
787.501	2525.15
787.69	2830.29
787.879	2512.86
788.068	2471.9
788.257	2498.52
788.445	2709.46
788.634	2445.27
788.823	2432.99
789.012	3416.01
789.201	3119.06
789.39	2570.2
789.579	2533.34
789.768	2826.2
789.957	2754.52
790.145	2475.99
790.334	2260.96
790.523	2625.5
790.712	2744.28
790.9	2592.73
791.089	2351.07
791.278	2940.88
791.467	2938.84
791.655	2850.77
791.844	2990.03
792.033	2598.87
792.221	2662.36
792.41	2635.74
792.599	2406.36
792.787	3053.52
792.976	2981.84
793.164	2375.64
793.353	2519
793.541	3035.09
793.73	2899.92
793.918	2529.24
794.107	2484.19
794.295	2838.48
794.484	2699.22
794.672	2502.62
794.861	2541.53
795.049	2922.45
795.238	3149.78
795.426	2490.33
795.614	2482.14
795.803	2967.51
795.991	3184.59
796.179	2398.17
796.368	2500.57
796.556	2957.27
796.744	2465.75
796.932	2559.96
797.121	2445.27
797.309	2844.63
797.497	2934.74
797.685	2633.69
797.874	2516.95
798.062	2893.78
798.25	3057.62
798.438	2447.32
798.626	2564.06
798.814	2901.97
799.002	3237.84
799.19	2623.45
799.378	2625.5
799.566	3018.71
799.755	3137.49
799.943	2619.35
800.131	2617.3
800.318	2854.87
800.506	3026.9
800.694	2643.93
800.882	2752.47
801.07	3102.67
801.258	2858.96
801.446	2465.75
801.634	2457.56
801.822	2920.4
802.01	2828.24
802.197	2553.82
802.385	2738.13
802.573	2914.26
802.761	2725.85
802.949	2643.93
803.136	2404.32
803.324	3233.74
803.512	2985.94
803.699	2596.82
803.887	2443.23
804.075	3248.08
804.262	2875.35
804.45	2521.05
804.638	2818.01
804.825	2648.02
805.013	2725.85
805.201	2607.06
805.388	2455.51
805.576	2961.36
805.763	3340.24
805.951	2854.87
806.138	2994.13
806.326	3479.5
806.513	3164.11
806.701	2707.41
806.888	2582.49
807.075	2994.13
807.263	3532.75
807.45	2439.13
807.638	2791.38
807.825	3436.49
808.012	3307.47
808.2	2748.37
808.387	2951.12
808.574	3108.82
808.761	3438.54
808.949	2707.41
809.136	2867.16
809.323	3043.28
809.51	2926.55
809.698	3137.49
809.885	3041.23
810.072	3131.34
810.259	3196.88
810.446	2844.63
810.633	2754.52
810.82	3418.06
811.008	3377.1
811.195	2899.92
811.382	2861.01
811.569	3057.62
811.756	2863.06
811.943	2928.6
812.13	2752.47
812.317	2891.73
812.504	2963.41
812.691	3002.32
812.878	3102.67
813.064	3499.98
813.251	3016.66
813.438	2881.49
813.625	3061.71
813.812	3108.82
813.999	3114.96
814.186	2887.64
814.372	3074
814.559	3155.92
814.746	3407.82
814.933	2924.5
815.12	3069.91
815.306	3086.29
815.493	3076.05
815.68	2881.49
815.866	2887.64
816.053	3305.42
816.24	3745.73
816.426	3037.14
816.613	2803.67
816.799	3309.52
816.986	3436.49
817.173	2901.97
817.359	2901.97
817.546	3311.57
817.732	2869.2
817.919	2516.95
818.105	2928.6
818.292	3334.09
818.478	3327.95
818.665	3135.44
818.851	2983.89
819.037	3770.31
819.224	3330
819.41	2799.57
819.597	2891.73
819.783	3604.42
819.969	3426.25
820.156	3114.96
820.342	2865.11
820.528	4003.78
820.714	3299.28
820.901	3123.15
821.087	3000.27
821.273	3575.75
821.459	3125.2
821.646	2947.03
821.832	2807.77
822.018	3282.89
822.204	3266.51
822.39	3016.66
822.576	2754.52
822.762	3352.52
822.948	3266.51
823.134	3235.79
823.32	3114.96
823.507	3045.33
823.693	3295.18
823.879	3450.83
824.065	2885.59
824.25	3375.05
824.436	2975.7
824.622	3018.71
824.808	2893.78
824.994	3231.69
825.18	2795.48
825.366	2826.2
825.552	2926.55
825.738	3192.78
825.923	3383.24
826.109	3090.38
826.295	2969.55
826.481	3035.09
826.667	3008.47
826.852	3051.47
827.038	2965.46
827.224	3454.92
827.409	3508.17
827.595	2656.22
827.781	2961.36
827.966	3346.38
828.152	3444.68
828.338	2977.75
828.523	2891.73
828.709	3117.01
828.894	3422.16
829.08	2944.98
829.266	2822.1
829.451	2987.99
829.637	3336.14
829.822	3012.56
830.008	2912.21
830.193	3379.15
830.378	3680.2
830.564	2959.31
830.749	2891.73
830.935	3346.38
831.12	3229.65
831.305	2781.14
831.491	2922.45
831.676	2858.96
831.861	3362.76
832.047	2922.45
832.232	2535.39
832.417	3459.02
832.602	3217.36
832.788	2914.26
832.973	2942.93
833.158	3129.3
833.343	3221.45
833.528	2959.31
833.714	3078.1
833.899	3311.57
834.084	3538.89
834.269	3106.77
834.454	2846.68
834.639	3391.44
834.824	3151.82
835.009	3096.53
835.194	2930.64
835.379	3405.77
835.564	3518.41
835.749	3063.76
835.934	2938.84
836.119	3373
836.304	3227.6
836.489	2822.1
836.674	3250.13
836.859	3057.62
837.044	3528.65
837.228	2869.2
837.413	2877.4
837.598	3184.59
837.783	3368.91
837.968	2983.89
838.152	2691.03
838.337	2619.35
838.522	3606.47
838.707	3254.22
838.891	3274.7
839.076	3323.85
839.261	3381.2
839.445	2889.68
839.63	3151.82
839.815	3581.9
839.999	3071.95
840.184	2840.53
840.368	2979.79
840.553	3422.16
840.737	3176.4
840.922	2830.29
841.106	2840.53
841.291	2871.25
841.475	3231.69
841.66	2867.16
841.844	2865.11
842.029	3901.38
842.213	2971.6
842.397	2961.36
842.582	2754.52
842.766	3418.06
842.951	3311.57
843.135	2961.36
843.319	2830.29
843.504	3162.06
843.688	3438.54
843.872	2742.23
844.056	2695.13
844.241	3389.39
844.425	3061.71
844.609	3123.15
844.793	2758.61
844.977	3362.76
845.161	3342.28
845.346	2756.57
845.53	2834.39
845.714	3145.68
845.898	3497.93
846.082	2729.94
846.266	2828.24
846.45	3123.15
846.634	3151.82
846.818	2844.63
847.002	3057.62
847.186	3360.72
847.37	2791.38
847.554	3016.66
847.738	3049.43
847.922	3303.37
848.106	3209.17
848.29	2762.71
848.473	2768.85
848.657	3280.85
848.841	3198.93
849.025	2977.75
849.209	2781.14
849.392	3383.24
849.576	3061.71
849.76	2650.07
849.944	2920.4
850.127	3512.27
850.311	2955.22
850.495	2754.52
850.678	2652.12
850.862	3426.25
851.046	3596.23
851.229	3188.69
851.413	2867.16
851.596	3229.65
851.78	3057.62
851.964	3065.81
852.147	2871.25
852.331	3907.52
852.514	3278.8
852.698	2736.09
852.881	2672.6
853.065	3346.38
853.248	3205.07
853.431	3024.85
853.615	2926.55
853.798	3516.36
853.982	3076.05
854.165	3053.52
854.348	2951.12
854.532	2779.09
854.715	2971.6
854.898	2936.79
855.081	2791.38
855.265	3456.97
855.448	3608.52
855.631	2758.61
855.814	2893.78
855.997	3305.42
856.181	3076.05
856.364	2830.29
856.547	2807.77
856.73	3057.62
856.913	3180.5
857.096	2676.7
857.279	2789.33
857.462	2928.6
857.645	3295.18
857.828	2824.15
858.011	2955.22
858.194	3016.66
858.377	3327.95
858.56	2672.6
858.743	2893.78
858.926	2832.34
859.109	3321.81
859.292	2758.61
859.475	2551.77
859.658	3307.47
859.841	3131.34
860.023	2723.8
860.206	2699.22
860.389	3127.25
860.572	3360.72
860.755	2883.54
860.937	2695.13
861.12	2955.22
861.303	2969.55
861.486	2871.25
861.668	2772.95
861.851	3203.02
862.034	3190.74
862.216	2893.78
862.399	2621.4
862.581	3141.58
862.764	3411.92
862.947	2867.16
863.129	2729.94
863.312	2629.59
863.494	3200.98
863.677	3071.95
863.859	2588.63
864.042	3254.22
864.224	3442.64
864.406	2992.08
864.589	2449.37
864.771	3205.07
864.954	2615.26
865.136	2668.5
865.318	2519
865.501	3207.12
865.683	2510.81
865.865	2711.51
866.048	2648.02
866.23	2893.78
866.412	2930.64
866.594	2648.02
866.777	2797.53
866.959	3166.16
867.141	2955.22
867.323	3186.64
867.505	2820.05
867.687	2924.5
867.869	2949.07
868.052	2719.7
868.234	2541.53
868.416	3014.61
868.598	3108.82
868.78	2754.52
868.962	2639.83
869.144	3200.98
869.326	3147.73
869.508	2693.08
869.69	2625.5
869.872	2916.31
870.054	3293.13
870.236	2516.95
870.417	2584.54
870.599	2916.31
870.781	3299.28
870.963	2848.72
871.145	2435.03
871.327	2795.48
871.508	3198.93
871.69	2748.37
871.872	2846.68
872.054	2992.08
872.235	3080.14
872.417	2836.44
872.599	2678.74
872.78	3409.87
872.962	3092.43
873.144	2363.36
873.325	2719.7
873.507	3346.38
873.689	3076.05
873.87	2631.64
874.052	2824.15
874.233	2809.81
874.415	3188.69
874.596	2793.43
874.778	2697.17
874.959	2893.78
875.141	3129.3
875.322	2772.95
875.503	2654.17
875.685	3266.51
875.866	2639.83
876.048	2713.56
876.229	2572.25
876.41	2932.69
876.592	3164.11
876.773	2648.02
876.954	2623.45
877.136	3409.87
877.317	2955.22
877.498	2519
877.679	2854.87
877.86	3012.56
878.042	3086.29
878.223	2815.96
878.404	3108.82
878.585	3094.48
878.766	3499.98
878.947	3065.81
879.128	2961.36
879.309	3340.24
879.49	3291.09
879.672	2965.46
879.853	2838.48
880.034	2906.07
880.215	3217.36
880.396	2996.18
880.576	2848.72
880.757	3053.52
880.938	3418.06
881.119	2826.2
881.3	2797.53
881.481	3057.62
881.662	4087.75
881.843	2766.81
882.023	2770.9
882.204	3229.65
882.385	3205.07
882.566	2764.76
882.747	2848.72
882.927	3080.14
883.108	3223.5
883.289	2762.71
883.469	3051.47
883.65	3082.19
883.831	3233.74
884.011	3137.49
884.192	2975.7
884.373	3334.09
884.553	3309.52
884.734	3090.38
884.914	3280.85
885.095	3989.44
885.275	3661.77
885.456	3299.28
885.636	2813.91
885.817	3274.7
885.997	3368.91
886.178	2938.84
886.358	3121.1
886.538	3344.33
886.719	4140.99
886.899	3043.28
887.08	3033.04
887.26	3565.51
887.44	3135.44
887.621	2979.79
887.801	3254.22
887.981	3827.65
888.161	3422.16
888.342	3053.52
888.522	3098.58
888.702	3741.64
888.882	3751.88
889.062	3198.93
889.242	2977.75
889.423	3725.26
889.603	3522.51
889.783	3041.23
889.963	3020.75
890.143	3655.62
890.323	3686.34
890.503	3223.5
890.683	3215.31
890.863	3430.35
891.043	3639.24
891.223	3278.8
891.403	3422.16
891.583	3575.75
891.763	3495.88
891.943	3342.28
892.122	3235.79
892.302	3616.71
892.482	3385.29
892.662	3317.71
892.842	3139.54
893.022	3540.94
893.201	3409.87
893.381	3366.86
893.561	3149.78
893.741	3749.83
893.92	3559.37
894.1	3336.14
894.28	3385.29
894.459	3612.62
894.639	3602.38
894.819	3282.89
894.998	3430.35
895.178	3487.69
895.357	3434.44
895.537	3229.65
895.716	3153.87
895.896	3397.58
896.075	3860.42
896.255	3295.18
896.434	2934.74
896.614	3766.21
896.793	3807.17
896.973	3377.1
897.152	3405.77
897.331	3575.75
897.511	3755.97
897.69	3160.02
897.87	3243.98
898.049	3704.78
898.228	3549.13
898.407	3471.31
898.587	3258.32
898.766	3323.85
898.945	3762.12
899.124	3538.89
899.304	3428.3
899.483	3508.17
899.662	4003.78
899.841	3166.16
900.02	3293.13
900.199	3700.68
900.378	3379.15
900.557	3307.47
900.737	3246.03
900.916	3502.03
901.095	3682.25
901.274	3426.25
901.453	3184.59
901.632	3229.65
901.811	3364.81
901.989	3157.97
902.168	3082.19
902.347	3577.8
902.526	3379.15
902.705	3241.93
902.884	3317.71
903.063	3856.33
903.242	3788.74
903.42	3256.27
903.599	3336.14
903.778	3751.88
903.957	3745.73
904.135	3387.34
904.314	3295.18
904.493	3585.99
904.672	3641.29
904.85	3239.89
905.029	3313.61
905.207	3616.71
905.386	4251.58
905.565	3098.58
905.743	3231.69
905.922	3373
906.1	3635.14
906.279	3133.39
906.457	3176.4
906.636	3436.49
906.814	3405.77
906.993	3055.57
907.171	3203.02
907.35	3559.37
907.528	3622.86
907.707	3497.93
907.885	2893.78
908.063	3790.79
908.242	3178.45
908.42	3084.24
908.598	2953.17
908.777	3581.9
908.955	3188.69
909.133	3164.11
909.311	2990.03
909.49	3278.8
909.668	3313.61
909.846	3196.88
910.024	2848.72
910.202	3588.04
910.38	3493.83
910.559	2998.23
910.737	3037.14
910.915	3373
911.093	3354.57
911.271	3063.76
911.449	3235.79
911.627	3366.86
911.805	3917.76
911.983	3098.58
912.161	2975.7
912.339	3442.64
912.517	3674.06
912.695	3196.88
912.872	3125.2
913.05	3104.72
913.228	3442.64
913.406	3110.86
913.584	3008.47
913.762	3499.98
913.939	3190.74
914.117	3010.51
914.295	2865.11
914.473	3481.55
914.65	3190.74
914.828	3074
915.006	2883.54
915.184	2975.7
915.361	3284.94
915.539	3184.59
915.716	3217.36
915.894	3340.24
916.072	3407.82
916.249	3209.17
916.427	3082.19
916.604	2979.79
916.782	3278.8
916.959	2799.57
917.137	2957.27
917.314	3293.13
917.492	3327.95
917.669	3117.01
917.847	3053.52
918.024	3411.92
918.201	3043.28
918.379	2854.87
918.556	2994.13
918.733	3246.03
918.911	3168.21
919.088	3246.03
919.265	2881.49
919.442	3211.21
919.62	3123.15
919.797	2721.75
919.974	2707.41
920.151	3125.2
920.328	2942.93
920.506	2789.33
920.683	3094.48
920.86	2899.92
921.037	2809.81
921.214	2869.2
921.391	2713.56
921.568	3094.48
921.745	2893.78
921.922	2787.29
922.099	2762.71
922.276	3241.93
922.453	3000.27
922.63	2777.05
922.807	2987.99
922.984	3008.47
923.161	2793.43
923.338	2801.62
923.514	2639.83
923.691	2977.75
923.868	2893.78
924.045	2578.39
924.222	2490.33
924.399	2938.84
924.575	3133.39
924.752	2758.61
924.929	2772.95
925.105	3022.8
925.282	2688.98
925.459	2641.88
925.635	2652.12
925.812	2920.4
925.989	2703.32
926.165	2844.63
926.342	2449.37
926.518	2527.19
926.695	2691.03
926.871	2512.86
927.048	2271.2
927.224	2926.55
927.401	2586.58
927.577	2562.01
927.754	2353.12
927.93	3028.95
928.107	2901.97
928.283	2340.83
928.459	2727.89
928.636	2916.31
928.812	2680.79
928.988	2471.9
929.165	2285.53
929.341	2672.6
929.517	2629.59
929.693	2758.61
929.87	2244.57
930.046	2822.1
930.222	2648.02
930.398	2459.61
930.574	2627.54
930.751	2695.13
930.927	2598.87
931.103	2523.1
931.279	2445.27
931.455	2410.46
931.631	2580.44
931.807	2176.99
931.983	2172.89
932.159	2291.68
932.335	2564.06
932.511	2308.06
932.687	2217.95
932.863	2605.02
933.039	2336.73
933.215	2043.87
933.391	2029.54
933.566	2349.02
933.742	2285.53
933.918	2144.22
934.094	2045.92
934.27	2383.84
934.445	2435.03
934.621	2197.47
934.797	2068.45
934.973	2412.51
935.148	2467.8
935.324	1931.23
935.5	1636.33
935.675	2480.09
935.851	2238.43
936.027	1918.95
936.202	2000.87
936.378	2256.86
936.553	2074.59
936.729	2308.06
936.904	1882.08
937.08	1726.44
937.255	1841.12
937.431	1648.61
937.606	1589.22
937.782	1830.88
937.957	1843.17
938.133	1740.77
938.308	1544.17
938.483	1910.75
938.659	1701.86
938.834	1746.92
939.009	1339.37
939.185	1812.45
939.36	1517.54
939.535	1079.28
939.71	1437.67
939.886	1923.04
940.061	1734.63
940.236	1472.49
940.411	1388.52
940.586	1603.56
940.761	1658.85
940.937	1325.04
941.112	1402.86
941.287	1521.64
941.462	1546.22
941.637	1107.95
941.812	1345.52
941.987	1656.81
942.162	1464.3
942.337	1241.07
942.512	1198.06
942.687	1675.24
942.862	1615.85
943.037	1126.38
943.212	866.29
943.386	1445.87
943.561	1435.63
943.736	1370.09
943.911	1415.15
944.086	1566.7
944.26	1492.97
944.435	1241.07
944.61	1179.63
944.785	1691.62
944.959	1732.58
945.134	1107.95
945.309	1034.22
945.483	1146.86
945.658	1568.74
945.833	872.43
946.007	983.02
946.182	1634.28
946.357	1124.33
946.531	1089.52
946.706	1003.5
946.88	974.83
947.055	1363.95
947.229	1138.67
947.404	1069.04
947.578	1538.02
947.752	1265.64
947.927	980.98
948.101	954.35
948.276	1341.42
948.45	1400.81
948.624	1374.19
948.799	1036.27
948.973	1511.4
949.147	1060.85
949.321	1159.15
949.496	1179.63
949.67	1681.38
949.844	1378.28
950.018	1161.2
950.193	1056.75
950.367	1779.68
950.541	1345.52
950.715	1247.21
950.889	1355.76
951.063	1325.04
951.237	1527.78
951.411	913.39
951.585	1075.18
951.759	1509.35
951.933	1304.56
952.107	1118.19
952.281	1202.16
952.455	1726.44
952.629	1558.5
952.803	985.07
952.977	1017.84
953.151	1699.81
953.325	1488.87
953.499	1406.95
953.672	921.59
953.846	1071.09
954.02	1198.06
954.194	964.59
954.368	1054.7
954.541	1472.49
954.715	1101.81
954.889	1208.3
955.062	1058.8
955.236	1196.01
955.41	1349.61
955.583	1130.48
955.757	999.41
955.93	1232.88
956.104	1085.42
956.278	1081.33
956.451	1128.43
956.625	1517.54
956.798	1853.41
956.972	1300.46
957.145	1101.81
957.319	1363.95
957.492	1312.75
957.665	1193.97
957.839	1023.98
958.012	1484.78
958.185	1286.12
958.359	1130.48
958.532	1296.36
958.705	1538.02
958.879	1394.67
959.052	1222.64
959.225	892.91
959.398	1279.98
959.572	1355.76
959.745	1013.74
959.918	1153.01
960.091	1241.07
960.264	1431.53
960.438	956.4
960.611	1001.46
960.784	1499.11
960.957	1185.77
961.13	1419.24
961.303	907.25
961.476	1284.08
961.649	1503.21
961.822	952.31
961.995	1150.96
962.168	1363.95
962.341	1429.48
962.514	1107.95
962.686	1120.24
962.859	1361.9
963.032	1327.08
963.205	993.26
963.378	868.34
963.551	1308.65
963.723	1206.25
963.896	1075.18
964.069	1185.77
964.242	1302.51
964.414	1615.85
964.587	1069.04
964.76	1153.01
964.932	1421.29
965.105	1329.13
965.278	1036.27
965.45	1073.14
965.623	1263.6
965.795	1374.19
965.968	1185.77
966.14	968.69
966.313	1220.59
966.485	1222.64
966.658	1097.71
966.83	921.59
967.003	1665
967.175	1431.53
967.348	1073.14
967.52	1026.03
967.692	1683.43
967.865	1331.18
968.037	1099.76
968.209	1361.9
968.382	1275.88
968.554	1378.28
968.726	1144.81
968.898	892.91
969.071	1310.7
969.243	1333.23
969.415	1073.14
969.587	1077.23
969.759	1742.82
969.932	1452.01
970.104	1097.71
970.276	800.76
970.448	1077.23
970.62	1157.1
970.792	1089.52
970.964	1021.94
971.136	1818.6
971.308	1394.67
971.48	968.69
971.652	1009.65
971.824	1726.44
971.996	1036.27
972.168	962.55
972.339	983.02
972.511	1468.39
972.683	1300.46
972.855	1220.59
973.027	1112.05
973.199	1263.6
973.37	1439.72
973.542	1026.03
973.714	1198.06
973.886	1193.97
974.057	1433.58
974.229	999.41
974.401	972.79
974.572	1071.09
974.744	839.67
974.915	917.49
975.087	1050.61
975.259	1613.8
975.43	1064.94
975.602	987.12
975.773	970.74
975.945	1054.7
976.116	1402.86
976.288	882.67
976.459	1091.57
976.63	1103.86
976.802	1298.41
976.973	962.55
977.145	1148.91
977.316	1658.85
977.487	1169.39
977.659	1126.38
977.83	1052.66
978.001	1615.85
978.172	1183.73
978.344	935.92
978.515	1009.65
978.686	1167.34
978.857	1566.7
979.028	944.11
979.2	935.92
979.371	1439.72
979.542	1155.05
979.713	1097.71
979.884	528.38
980.055	1034.22
980.226	1126.38
980.397	970.74
980.568	858.1
980.739	1443.82
980.91	1066.99
981.081	1183.73
981.252	907.25
981.423	1322.99
981.594	1452.01
981.765	835.57
981.936	964.59
982.106	1185.77
982.277	1578.98
982.448	913.39
982.619	1169.39
982.79	956.4
982.96	1312.75
983.131	1071.09
983.302	790.52
983.472	980.98
983.643	1296.36
983.814	991.22
983.984	970.74
984.155	972.79
984.326	1363.95
984.496	989.17
984.667	837.62
984.837	960.5
985.008	1322.99
985.178	1073.14
985.349	894.96
985.519	1042.42
985.69	890.87
985.86	782.32
986.031	761.84
986.201	1146.86
986.371	1265.64
986.542	778.23
986.712	559.1
986.882	1200.11
987.053	1222.64
987.223	800.76
987.393	989.17
987.563	1048.56
987.734	1239.02
987.904	1134.57
988.074	794.61
988.244	1146.86
988.414	954.35
988.585	757.75
988.755	913.39
988.925	1128.43
989.095	1521.64
989.265	751.6
989.435	952.31
989.605	1185.77
989.775	1193.97
989.945	968.69
990.115	708.6
990.285	1079.28
990.455	1146.86
990.625	921.59
990.795	714.74
990.965	1331.18
991.134	864.24
991.304	798.71
991.474	643.06
991.644	1079.28
991.814	1345.52
991.984	622.58
992.153	767.99
992.323	1112.05
992.493	1001.46
992.662	620.53
992.832	985.07
993.002	1093.62
993.171	1099.76
993.341	593.91
993.511	905.2
993.68	841.72
993.85	1185.77
994.019	626.68
994.189	634.87
994.358	1066.99
994.528	747.51
994.697	473.08
994.867	620.53
995.036	1228.78
995.206	794.61
995.375	634.87
995.544	778.23
995.714	1048.56
995.883	886.77
996.052	858.1
996.222	509.94
996.391	1329.13
996.56	948.21
996.73	534.52
996.899	542.71
997.068	1339.37
997.237	903.15
997.406	538.62
997.576	489.46
997.745	1132.53
997.914	942.07
998.083	436.22
998.252	628.73
998.421	956.4
998.59	788.47
998.759	511.99
998.928	489.46
999.097	1153.01
999.266	1009.65
999.435	811
999.604	385.02
999.773	1380.33
999.942	827.38
1000.111	432.12
1000.28	522.23
1000.448	679.93
1000.617	669.69
1000.786	737.27
1000.955	501.75
1001.124	985.07
1001.292	1527.78
1001.461	575.48
1001.63	497.66
1001.798	1306.6
1001.967	1222.64
1002.136	387.07
1002.304	395.26
1002.473	911.35
1002.642	882.67
1002.81	571.38
1002.979	550.9
1003.147	1101.81
1003.316	1517.54
1003.484	602.1
1003.653	514.04
1003.821	1173.49
1003.99	772.08
1004.158	710.65
1004.327	571.38
1004.495	948.21
1004.663	661.49
1004.832	700.41
1005	366.59
1005.168	980.98
1005.337	878.58
1005.505	423.93
1005.673	708.6
1005.842	962.55
1006.01	907.25
1006.178	444.41
1006.346	540.66
1006.514	880.63
1006.683	1181.68
1006.851	489.46
1007.019	358.39
1007.187	626.68
1007.355	452.6
1007.523	329.72
1007.691	276.48
1007.859	468.98
1008.027	1140.72
1008.195	481.27
1008.363	358.39
1008.531	993.26
1008.699	604.15
1008.867	325.63
1009.035	436.22
1009.203	1222.64
1009.37	741.36
1009.538	555
1009.706	870.39
1009.874	792.56
1010.042	690.17
1010.209	399.35
1010.377	366.59
1010.545	1030.13
1010.713	743.41
1010.88	387.07
1011.048	380.92
1011.216	718.84
1011.383	1048.56
1011.551	301.05
1011.718	350.2
1011.886	1034.22
1012.054	772.08
1012.221	393.21
1012.389	380.92
1012.556	673.78
1012.724	1089.52
1012.891	440.31
1013.058	165.89
1013.226	864.24
1013.393	817.14
1013.561	272.38
1013.728	256
1013.895	890.87
1014.063	774.13
1014.23	256
1014.397	378.87
1014.565	897.01
1014.732	638.97
1014.899	280.57
1015.066	292.86
1015.233	712.69
1015.401	845.81
1015.568	395.26
1015.735	456.7
1015.902	706.55
1016.069	849.91
1016.236	290.81
1016.403	247.8
1016.57	485.37
1016.737	858.1
1016.904	374.78
1017.071	253.95
1017.238	505.85
1017.405	817.14
1017.572	217.08
1017.739	501.75
1017.906	780.28
1018.073	892.91
1018.24	272.38
1018.407	403.45
1018.573	952.31
1018.74	526.33
1018.907	362.49
1019.074	71.68
1019.241	876.53
1019.407	770.04
1019.574	317.44
1019.741	163.84
1019.907	761.84
1020.074	806.9
1020.241	139.26
1020.407	268.28
1020.574	720.88
1020.74	753.65
1020.907	270.33
1021.073	210.94
1021.24	1140.72
1021.406	985.07
1021.573	172.03
1021.739	323.58
1021.906	751.6
1022.072	610.29
1022.239	290.81
1022.405	337.91
1022.571	626.68
1022.738	518.14
1022.904	202.75
1023.07	223.23
1023.237	659.45
1023.403	894.96
1023.569	206.84
1023.735	282.62
1023.902	694.26
1024.068	661.49
1024.234	182.27
1024.4	251.9
1024.566	583.67
1024.732	765.94
1024.898	266.24
1025.065	36.86
1025.231	724.98
1025.397	616.44
1025.563	288.76
1025.729	153.6
1025.895	51.2
1026.061	272.38
1026.227	20.48
1026.392	272.38
1026.558	823.28
1026.724	665.59
1026.89	167.93
1027.056	272.38
1027.222	641.01
1027.388	497.66
1027.553	155.65
1027.719	178.17
1027.885	858.1
1028.051	675.83
1028.216	12.29
1028.382	210.94
1028.548	796.66
1028.713	477.18
1028.879	116.73
1029.045	311.29
1029.21	849.91
1029.376	767.99
1029.541	221.18
1029.707	186.37
1029.873	759.8
1030.038	714.74
1030.204	157.69
1030.369	194.56
1030.534	776.18
1030.7	409.59
1030.865	98.3
1031.031	112.64
1031.196	628.73
1031.361	649.21
1031.527	120.83
1031.692	194.56
1031.857	92.16
1032.023	614.39
1032.188	120.83
1032.353	120.83
1032.518	882.67
1032.684	581.62
1032.849	69.63
1033.014	278.52
1033.179	747.51
1033.344	661.49
1033.509	225.28
1033.674	108.54
1033.839	722.93
1034.004	641.01
1034.17	157.69
1034.335	67.58
1034.5	389.11
1034.664	356.35
1034.829	112.64
1034.994	194.56
1035.159	481.27
1035.324	598.01
1035.489	67.58
1035.654	51.2
1035.819	862.19
1035.984	575.48
1036.148	145.41
1036.313	217.08
1036.478	702.45
1036.643	460.79
1036.807	96.25
1036.972	83.97
1037.137	833.52
1037.301	509.94
1037.466	57.34
1037.631	165.89
1037.795	821.24
1037.96	602.1
1038.124	299
1038.289	6.14
1038.454	583.67
1038.618	618.49
1038.783	176.13
1038.947	178.17
1039.111	528.38
1039.276	329.72
1039.44	43.01
1039.605	636.92
1039.769	436.22
1039.933	415.74
1040.098	200.7
1040.262	237.56
1040.426	681.97
1040.591	563.19
1040.755	47.1
1040.919	108.54
1041.083	614.39
1041.248	288.76
1041.412	-20.48
1041.576	-30.72
1041.74	370.68
1041.904	677.88
1042.068	-2.05
1042.232	126.97
1042.397	645.11
1042.561	503.8
1042.725	-53.25
1042.889	264.19
1043.053	587.77
1043.217	571.38
1043.381	217.08
1043.544	-26.62
1043.708	714.74
1043.872	251.9
1044.036	-149.5
1044.2	-61.44
1044.364	649.21
1044.528	743.41
1044.691	1521.64
1044.855	-102.4
1045.019	651.25
1045.183	591.86
1045.346	47.1
1045.51	-86.01
1045.674	489.46
1045.837	511.99
1046.001	40.96
1046.165	67.58
1046.328	950.26
1046.492	598.01
1046.655	208.89
1046.819	137.21
1046.983	323.58
1047.146	591.86
1047.31	75.77
1047.473	-182.27
1047.636	423.93
1047.8	251.9
1047.963	83.97
1048.127	-92.16
1048.29	196.61
