Data from Ink_Intensity_USB4F045381__80__00080.txt Node

Date: Mon Jul 17 10:55:08 EDT 2023
User: mmckonesweet
Spectrometer: USB4F04538
Trigger mode: 4
Integration Time (sec): 9.000000E-1
Scans to average: 1
Electric dark correction enabled: true
Nonlinearity correction enabled: false
Boxcar width: 0
XAxis mode: Wavelengths
Number of Pixels in Spectrum: 3648
>>>>>Begin Spectral Data<<<<<
345.52	-934.73
345.736	-934.73
345.952	-934.73
346.168	-1010.5
346.384	-1024.84
346.6	-121.68
346.816	-174.93
347.032	-238.42
347.248	306.34
347.464	-232.27
347.68	-125.78
347.896	36.01
348.112	339.11
348.328	-2.9
348.544	-74.58
348.76	70.83
348.975	218.28
349.191	-187.22
349.407	-117.59
349.623	107.69
349.839	25.77
350.055	-21.33
350.27	113.83
350.486	230.57
350.702	410.79
350.918	339.11
351.133	-219.99
351.349	226.47
351.565	593.06
351.781	-152.4
351.996	42.15
352.212	367.78
352.428	-23.38
352.644	-115.54
352.859	-138.07
353.075	302.25
353.291	144.55
353.506	-111.44
353.722	-146.26
353.938	21.67
354.153	464.04
354.369	158.89
354.584	-84.82
354.8	281.77
355.016	-265.04
355.231	-213.84
355.447	79.02
355.662	257.19
355.878	820.38
356.093	-271.19
356.309	1.19
356.524	-142.16
356.74	332.97
356.955	-127.83
357.171	7.34
357.386	205.99
357.602	-207.7
357.817	-66.39
358.033	-76.63
358.248	433.32
358.464	300.2
358.679	-11.09
358.895	-240.47
359.11	48.3
359.325	320.68
359.541	46.25
359.756	52.39
359.972	-230.23
360.187	230.57
360.402	-60.24
360.618	-50
360.833	1127.58
361.048	242.85
361.264	-4.95
361.479	-7
361.694	42.15
361.909	330.92
362.125	-109.4
362.34	-70.48
362.555	390.31
362.77	181.42
362.986	-252.75
363.201	-76.63
363.416	201.9
363.631	113.83
363.847	-133.97
364.062	-117.59
364.277	308.39
364.492	195.75
364.707	-72.53
364.922	-351.06
365.138	343.21
365.353	451.75
365.568	-158.55
365.783	-19.29
365.998	222.38
366.213	550.05
366.428	-160.59
366.643	138.41
366.858	398.5
367.073	300.2
367.288	42.15
367.503	-109.4
367.718	214.18
367.933	474.28
368.148	-191.31
368.363	38.06
368.578	33.96
368.793	545.95
369.008	1.19
369.223	-97.11
369.438	386.21
369.653	449.7
369.868	-228.18
370.083	-154.45
370.298	218.28
370.513	468.13
370.728	97.45
370.943	-64.34
371.157	-43.86
371.372	611.49
371.587	-219.99
371.802	-138.07
372.017	189.61
372.232	539.81
372.446	3.24
372.661	-154.45
372.876	332.97
373.091	214.18
373.306	33.96
373.52	-97.11
373.735	-7
373.95	535.71
374.165	25.77
374.379	-2.9
374.594	-105.3
374.809	218.28
375.023	195.75
375.238	-76.63
375.453	406.69
375.667	-76.63
375.882	29.87
376.097	-113.49
376.311	146.6
376.526	124.07
376.741	-21.33
376.955	230.57
377.17	558.24
377.384	595.11
377.599	74.92
377.813	-203.6
378.028	650.4
378.242	316.58
378.457	38.06
378.672	-240.47
378.886	269.48
379.101	113.83
379.315	-195.41
379.53	21.67
379.744	406.69
379.958	410.79
380.173	9.39
380.387	-39.76
380.602	357.54
380.816	3.24
381.031	54.44
381.245	40.11
381.459	406.69
381.674	1006.75
381.888	50.35
382.103	289.96
382.317	-105.3
382.531	625.83
382.746	93.35
382.96	-47.96
383.174	68.78
383.388	672.93
383.603	255.14
383.817	-109.4
384.031	283.81
384.246	685.22
384.46	169.13
384.674	478.37
384.888	220.33
385.103	312.49
385.317	-158.55
385.531	181.42
385.745	574.63
385.959	451.75
386.174	5.29
386.388	-68.44
386.602	246.95
386.816	95.4
387.03	105.64
387.244	46.25
387.458	238.76
387.672	576.67
387.887	-39.76
388.101	-93.01
388.315	595.11
388.529	392.36
388.743	140.46
388.957	-47.96
389.171	599.2
389.385	91.31
389.599	87.21
389.813	283.81
390.027	373.92
390.241	961.69
390.455	146.6
390.669	156.84
390.883	210.09
391.097	615.59
391.311	310.44
391.525	15.53
391.738	451.75
391.952	441.51
392.166	300.2
392.38	33.96
392.594	525.47
392.808	580.77
393.022	271.53
393.236	244.9
393.449	457.89
393.663	515.23
393.877	-56.15
394.091	134.31
394.305	175.27
394.518	236.71
394.732	5.29
394.946	195.75
395.16	707.74
395.373	437.41
395.587	46.25
395.801	152.74
396.015	586.91
396.228	541.86
396.442	54.44
396.656	-19.29
396.869	656.54
397.083	711.84
397.297	275.62
397.51	171.18
397.724	570.53
397.938	437.41
398.151	68.78
398.365	58.54
398.578	619.68
398.792	865.44
399.005	353.45
399.219	171.18
399.433	484.52
399.646	564.39
399.86	543.91
400.073	423.08
400.287	502.95
400.5	335.01
400.714	363.69
400.927	302.25
401.141	593.06
401.354	1457.3
401.567	519.33
401.781	89.26
401.994	650.4
402.208	996.51
402.421	335.01
402.635	279.72
402.848	504.99
403.061	726.18
403.275	359.59
403.488	173.22
403.701	951.45
403.915	693.41
404.128	412.84
404.341	240.81
404.555	603.3
404.768	425.12
404.981	525.47
405.195	332.97
405.408	918.68
405.621	642.21
405.834	515.23
406.048	296.1
406.261	916.64
406.474	939.16
406.687	259.24
406.9	482.47
407.114	545.95
407.327	502.95
407.54	267.43
407.753	220.33
407.966	390.31
408.179	713.89
408.392	283.81
408.605	171.18
408.819	748.7
409.032	769.18
409.245	392.36
409.458	525.47
409.671	838.81
409.884	853.15
410.097	230.57
410.31	619.68
410.523	758.94
410.736	605.35
410.949	494.76
411.162	468.13
411.375	1010.84
411.588	890.01
411.801	588.96
412.014	285.86
412.227	574.63
412.44	605.35
412.653	451.75
412.865	748.7
413.078	879.77
413.291	820.38
413.504	552.1
413.717	457.89
413.93	877.73
414.143	464.04
414.356	494.76
414.568	349.35
414.781	808.09
414.994	851.1
415.207	531.62
415.42	591.01
415.632	877.73
415.845	1098.91
416.058	357.54
416.271	390.31
416.483	799.9
416.696	1162.39
416.909	591.01
417.121	529.57
417.334	982.17
417.547	1195.16
417.759	570.53
417.972	484.52
418.185	634.02
418.397	961.69
418.61	523.43
418.823	625.83
419.035	1162.39
419.248	814.24
419.46	742.56
419.673	822.43
419.885	984.22
420.098	793.76
420.311	625.83
420.523	437.41
420.736	912.54
420.948	838.81
421.161	613.54
421.373	492.71
421.586	863.39
421.798	703.65
422.01	466.08
422.223	859.29
422.435	730.27
422.648	1031.32
422.86	644.26
423.073	709.79
423.285	1103
423.497	679.07
423.71	685.22
423.922	578.72
424.134	1021.08
424.347	1311.89
424.559	967.84
424.771	1074.33
424.984	840.86
425.196	1092.76
425.408	580.77
425.621	570.53
425.833	1250.46
426.045	1254.55
426.257	670.88
426.47	760.99
426.682	1197.21
426.894	1162.39
427.106	816.29
427.318	838.81
427.531	900.25
427.743	1254.55
427.955	775.33
428.167	1277.08
428.379	1162.39
428.591	1000.6
428.804	922.78
429.016	775.33
429.228	1012.89
429.44	1307.8
429.652	1184.92
429.864	765.09
430.076	1238.17
430.288	1119.39
430.5	992.41
430.712	1103
430.924	1373.33
431.136	1270.94
431.348	746.66
431.56	947.36
431.772	1238.17
431.984	1115.29
432.196	908.44
432.408	926.88
432.62	1170.58
432.832	1414.29
433.044	1281.18
433.256	1131.67
433.468	1514.64
433.679	1037.47
433.891	939.16
434.103	1258.65
434.315	1664.15
434.527	1471.64
434.739	1248.41
434.95	1164.44
435.162	1629.33
435.374	1150.11
435.586	1332.37
435.798	1240.22
436.009	1021.08
436.221	1309.85
436.433	1201.3
436.645	1180.82
436.856	1340.57
437.068	1756.3
437.28	1168.54
437.491	1537.17
437.703	1461.4
437.915	1485.97
438.126	1406.1
438.338	1506.45
438.55	1459.35
438.761	1698.96
438.973	1287.32
439.184	1293.46
439.396	1553.55
439.608	1793.17
439.819	1272.98
440.031	1434.77
440.242	1643.67
440.454	1830.03
440.665	1313.94
440.877	1531.03
441.088	1668.24
441.3	1563.79
441.511	1232.02
441.723	1356.95
441.934	1741.97
442.146	1801.36
442.357	1598.61
442.569	1705.1
442.78	1717.39
442.991	2141.32
443.203	1811.6
443.414	1424.53
443.626	2137.23
443.837	1658
444.048	1414.29
444.26	1356.95
444.471	1756.3
444.682	2028.68
444.894	1346.71
445.105	1457.3
445.316	1991.82
445.528	1868.94
445.739	1649.81
445.95	1680.53
446.161	1821.84
446.373	2096.27
446.584	1692.82
446.795	1651.86
447.006	2081.93
447.217	2299.02
447.429	1447.06
447.64	1582.23
447.851	2268.3
448.062	1938.57
448.273	1584.27
448.484	1535.12
448.695	2167.95
448.907	1864.85
449.118	1856.65
449.329	2061.45
449.54	1864.85
449.751	1674.39
449.962	1672.34
450.173	1696.91
450.384	2196.62
450.595	2518.15
450.806	1803.41
451.017	1797.26
451.228	2362.5
451.439	2301.06
451.65	1901.71
451.861	1598.61
452.072	1852.56
452.283	2092.17
452.494	2061.45
452.705	1860.75
452.915	2612.35
453.126	2380.93
453.337	2020.49
453.548	1858.7
453.759	2352.26
453.97	2776.19
454.181	2264.2
454.391	1973.39
454.602	2272.39
454.813	2430.09
455.024	2184.33
455.235	2086.03
455.445	2421.89
455.656	2440.33
455.867	2159.75
456.078	2122.89
456.288	2311.3
456.499	2632.83
456.71	2231.43
456.921	2471.04
457.131	2638.98
457.342	2475.14
457.553	2350.21
457.763	2294.92
457.974	2692.23
458.184	2677.89
458.395	2399.37
458.606	2227.34
458.816	2847.87
459.027	3167.35
459.237	2587.78
459.448	2301.06
459.659	2786.43
459.869	3316.86
460.08	2303.11
460.29	2774.14
460.501	3339.38
460.711	2798.72
460.922	2473.09
461.132	2671.75
461.343	3554.42
461.553	2696.32
461.764	2716.8
461.974	2638.98
462.184	3296.38
462.395	3193.98
462.605	2874.49
462.816	2618.5
463.026	3036.28
463.236	3454.07
463.447	2733.18
463.657	2841.73
463.867	3484.79
464.078	3286.14
464.288	3081.34
464.498	3265.66
464.709	3312.76
464.919	3370.1
465.129	3228.79
465.339	3191.93
465.55	3576.95
465.76	3587.19
465.97	3208.31
466.18	3153.02
466.391	3890.29
466.601	3609.72
466.811	3546.23
467.021	3386.49
467.231	3966.06
467.441	3904.62
467.651	3587.19
467.862	3273.85
468.072	4068.46
468.282	4084.84
468.492	3538.04
468.702	3912.81
468.912	4039.79
469.122	4547.69
469.332	4213.87
469.542	3896.43
469.752	4301.93
469.962	4252.78
470.172	4025.45
470.382	4037.74
470.592	4652.13
470.802	4699.23
471.012	4287.59
471.222	4187.24
471.432	4674.66
471.642	4602.98
471.852	4494.44
472.062	4303.98
472.272	4684.9
472.482	4529.25
472.691	4469.86
472.901	4389.99
473.111	4875.36
473.321	5440.6
473.531	4807.78
473.741	5041.25
473.95	5207.13
474.16	5383.26
474.37	5178.46
474.58	4961.37
474.79	5966.93
474.999	5645.4
475.209	5067.87
475.419	5217.37
475.628	5629.01
475.838	5839.95
476.048	5434.46
476.258	5246.04
476.467	6214.73
476.677	5807.19
476.886	5946.45
477.096	5839.95
477.306	5942.35
477.515	6399.05
477.725	5960.78
477.935	5905.49
478.144	6646.85
478.354	6120.53
478.563	6272.07
478.773	5960.78
478.982	6861.89
479.192	6878.27
479.401	6683.72
479.611	6476.87
479.82	6532.17
480.03	6972.48
480.239	6597.7
480.449	6571.08
480.658	7531.58
480.868	7132.22
481.077	7091.26
481.287	6884.42
481.496	7466.04
481.705	7803.96
481.915	7414.84
482.124	7617.59
482.333	7578.68
482.543	7916.59
482.752	7492.66
482.961	7337.02
483.171	8092.72
483.38	7875.63
483.589	7693.37
483.799	7879.73
484.008	8154.16
484.217	8201.26
484.426	7842.87
484.636	7877.68
484.845	8442.92
485.054	8092.72
485.263	8533.03
485.472	8307.76
485.682	9032.74
485.891	8576.04
486.1	8182.83
486.309	8420.39
486.518	8729.64
486.727	9323.55
486.936	8625.19
487.146	8813.6
487.355	9514.01
487.564	9106.46
487.773	8993.83
487.982	9083.94
488.191	9270.3
488.4	9456.67
488.609	9090.08
488.818	9417.75
489.027	9950.23
489.236	10026
489.445	9503.77
489.654	9542.68
489.863	10118.16
490.072	9935.89
490.281	10099.73
490.49	10040.34
490.698	10433.55
490.907	10638.34
491.116	10038.29
491.325	9733.14
491.534	10683.4
491.743	10292.24
491.952	10298.38
492.16	10181.65
492.369	10755.08
492.578	10634.25
492.787	10490.89
492.996	10386.44
493.204	10636.3
493.413	11326.46
493.622	10619.91
493.831	10312.72
494.039	11594.75
494.248	11002.88
494.457	11004.93
494.665	10767.37
494.874	11310.08
495.083	11680.76
495.291	11244.54
495.5	11142.14
495.709	11684.86
495.917	11602.94
496.126	11367.42
496.335	11312.13
496.543	11686.9
496.752	11869.17
496.96	11734.01
497.169	11506.68
497.377	11899.89
497.586	12043.25
497.794	11811.83
498.003	11607.03
498.211	12372.97
498.42	12481.52
498.628	11760.63
498.837	12004.34
499.045	12499.95
499.254	12372.97
499.462	11836.41
499.671	12315.63
499.879	12868.58
500.087	12778.47
500.296	12379.12
500.504	12260.34
500.713	12942.31
500.921	13190.11
501.129	12469.23
501.338	12571.63
501.546	13288.42
501.754	12964.84
501.962	12809.19
502.171	12796.9
502.379	13405.15
502.587	13554.65
502.795	13079.52
503.004	12743.66
503.212	13378.53
503.42	13767.64
503.628	13224.93
503.837	13323.23
504.045	14062.55
504.253	13675.48
504.461	13265.89
504.669	13341.66
504.877	13753.3
505.085	14226.39
505.294	13345.76
505.502	13857.75
505.71	13964.25
505.918	14275.54
506.126	13695.96
506.334	13642.71
506.542	14218.19
506.75	14054.36
506.958	13986.77
507.166	13919.19
507.374	14097.36
507.582	15025.09
507.79	14126.04
507.998	14293.97
508.206	14601.16
508.414	14724.04
508.622	14347.22
508.83	14257.11
509.037	14783.43
509.245	14556.11
509.453	14234.58
509.661	14525.39
509.869	14889.93
510.077	14662.6
510.285	14578.64
510.492	14197.71
510.7	15422.4
510.908	14828.49
511.116	14724.04
511.324	14656.46
511.531	14941.13
511.739	15451.07
511.947	15057.86
512.155	15354.82
512.362	15174.6
512.57	14971.85
512.778	15092.68
512.985	14773.19
513.193	15492.03
513.401	15795.13
513.608	15344.58
513.816	15184.83
514.024	15608.76
514.231	15739.83
514.439	15186.88
514.646	15188.93
514.854	15926.2
515.061	15860.66
515.269	15455.17
515.477	15449.02
515.684	15717.31
515.892	16149.43
516.099	15530.94
516.307	15451.07
516.514	16358.32
516.722	16511.92
516.929	15918.01
517.136	15942.58
517.344	16436.14
517.551	16335.79
517.759	15979.45
517.966	16110.52
518.173	16356.27
518.381	16581.55
518.588	16044.98
518.796	16411.57
519.003	16585.65
519.21	16634.8
519.418	16436.14
519.625	16563.12
519.832	16665.52
520.039	16829.35
520.247	16401.33
520.454	16683.95
520.661	17097.64
520.868	17046.44
521.076	16796.59
521.283	17071.01
521.49	17798.04
521.697	17236.9
521.904	17148.84
522.112	17259.43
522.319	17746.84
522.526	17443.74
522.733	17206.18
522.94	16923.56
523.147	17445.79
523.354	17800.09
523.561	17388.45
523.768	17333.15
523.975	18207.64
524.183	17871.77
524.39	17468.32
524.597	17546.14
524.804	17945.5
525.011	17646.49
525.218	17607.58
525.425	17849.24
525.632	18224.02
525.838	17800.09
526.045	17920.92
526.252	17978.26
526.459	19442.56
526.666	19207.05
526.873	17953.69
527.08	18058.14
527.287	18725.77
527.494	18502.54
527.701	18181.01
527.907	18029.46
528.114	18592.65
528.321	18631.57
528.528	18279.32
528.735	18514.83
528.941	18623.37
529.148	18367.38
529.355	18801.55
529.562	18398.1
529.768	19489.67
529.975	18539.41
530.182	18887.56
530.388	18604.94
530.595	19288.96
530.802	18834.32
531.008	19180.42
531.215	19155.85
531.422	20249.46
531.628	20104.06
531.835	19264.39
532.042	19323.78
532.248	19313.54
532.455	19598.21
532.661	19370.88
532.868	19544.96
533.074	19897.21
533.281	20052.86
533.487	19553.15
533.694	19688.32
533.9	19639.17
534.107	19846.01
534.313	19880.83
534.52	19630.98
534.726	20575.09
534.933	20454.26
535.139	19870.59
535.345	19860.35
535.552	20177.78
535.758	20491.12
535.965	19942.27
536.171	20083.58
536.377	20820.84
536.584	20867.95
536.79	20179.83
536.996	20700.01
537.203	20691.82
537.409	20738.93
537.615	20550.51
537.821	20657.01
538.028	21144.42
538.234	20986.73
538.44	20620.14
538.646	20794.22
538.853	21173.1
539.059	20831.08
539.265	21302.12
539.471	20720.49
539.677	21525.35
539.883	21443.43
540.09	20689.77
540.296	21519.2
540.502	21447.52
540.708	21369.7
540.914	21687.14
541.12	21408.61
541.326	21984.09
541.532	21754.72
541.738	21644.13
541.944	21502.82
542.15	22014.81
542.356	21914.46
542.562	21584.74
542.768	21832.54
542.974	22750.03
543.18	22807.37
543.386	21609.31
543.592	22037.34
543.798	22936.4
544.004	22651.73
544.21	22166.36
544.415	22115.16
544.621	22549.33
544.827	22530.9
545.033	22127.45
545.239	22399.83
545.445	22647.63
545.651	22934.35
545.856	22299.48
546.062	22696.78
546.268	22803.28
546.474	22815.57
546.679	22739.79
546.885	22934.35
547.091	22655.82
547.297	23368.52
547.502	23010.12
547.708	22428.5
547.914	22459.22
548.119	23436.1
548.325	22666.06
548.531	22811.47
548.736	23632.71
548.942	23042.89
549.147	22643.54
549.353	23343.94
549.559	23315.27
549.764	23565.12
549.97	22897.49
550.175	23069.51
550.381	23405.38
550.586	23280.46
550.792	23331.65
550.997	23358.28
551.203	23896.89
551.408	23808.83
551.614	23532.36
551.819	23589.7
552.025	24394.55
552.23	24607.54
552.435	23722.82
552.641	24136.51
552.846	23991.1
553.052	24662.83
553.257	24079.16
553.462	24015.68
553.668	24259.38
553.873	24701.75
554.078	24199.99
554.283	24216.38
554.489	24703.79
554.694	24146.75
554.899	23792.45
555.105	24505.14
555.31	24898.35
555.515	24777.52
555.72	24564.53
555.925	24566.58
556.131	25000.75
556.336	24982.32
556.541	24597.3
556.746	24605.49
556.951	25168.68
557.156	25158.44
557.361	24791.86
557.567	25439.01
557.772	25549.6
557.977	25238.31
558.182	24666.93
558.387	24963.89
558.592	25004.85
558.797	25717.54
559.002	24935.21
559.207	25123.63
559.412	25113.39
559.617	25981.73
559.822	25414.44
560.027	25113.39
560.232	25662.24
560.437	25910.05
560.642	25228.07
560.847	25465.64
561.051	25770.79
561.256	25658.15
561.461	25645.86
561.666	25223.98
561.871	25830.18
562.076	26166.04
562.281	25807.65
562.485	25539.36
562.69	26159.9
562.895	26407.7
563.1	25654.05
563.305	25760.55
563.509	26305.31
563.714	27038.48
563.919	25799.46
564.123	25856.8
564.328	26151.71
564.533	26770.19
564.737	25606.95
564.942	26145.56
565.147	26974.99
565.351	27069.2
565.556	26243.87
565.761	25996.06
565.965	26520.34
566.17	26329.88
566.374	26600.21
566.579	26082.08
566.784	26682.13
566.988	26538.77
567.193	26637.08
567.397	26530.58
567.602	26632.98
567.806	26733.33
568.011	26317.59
568.215	27046.67
568.42	27093.77
568.624	27169.55
568.828	26692.37
569.033	26837.78
569.237	27235.08
569.442	27407.11
569.646	26422.04
569.85	27171.6
570.055	27564.81
570.259	27370.25
570.463	27075.34
570.668	26972.94
570.872	27593.48
571.076	27626.25
571.281	27298.57
571.485	27331.34
571.689	27656.96
571.893	27620.1
572.098	27654.92
572.302	27427.59
572.506	27499.27
572.71	27785.99
572.914	27273.99
573.119	27499.27
573.323	27656.96
573.527	28226.3
573.731	27861.76
573.935	27699.97
574.139	28130.05
574.343	27814.66
574.547	27869.95
574.751	27980.54
574.955	28396.28
575.159	28435.19
575.364	27769.6
575.568	27958.02
575.772	28371.71
575.976	29061.87
576.18	27773.7
576.383	28128
576.587	29006.58
576.791	28510.97
576.995	28033.79
577.199	28115.71
577.403	28756.72
577.607	29002.48
577.811	28506.87
578.015	28654.33
578.219	28936.95
578.422	28828.4
578.626	28668.66
578.83	29037.3
579.034	29063.92
579.238	28998.38
579.442	28605.17
579.645	29074.16
579.849	29102.83
580.053	29090.54
580.257	28812.02
580.46	29014.77
580.664	29483.75
580.868	29530.86
581.071	29461.23
581.275	29491.94
581.479	29002.48
581.682	29442.79
581.886	29219.56
582.09	29410.03
582.293	29637.35
582.497	29735.65
582.7	29575.91
582.904	29584.1
583.107	29557.48
583.311	29663.97
583.515	29326.06
583.718	29700.84
583.922	29637.35
584.125	30397.15
584.329	29426.41
584.532	29639.4
584.735	30466.78
584.939	29967.07
585.142	29749.99
585.346	29745.89
585.549	30276.32
585.753	30092
585.956	30173.92
586.159	30448.35
586.363	31034.07
586.566	30247.65
586.769	29879.01
586.973	29948.64
587.176	30503.64
587.379	30704.34
587.582	30704.34
587.786	30692.05
587.989	30589.66
588.192	31369.93
588.395	30257.88
588.599	30771.93
588.802	30776.02
589.005	31093.46
589.208	31167.18
589.411	30950.1
589.615	30591.7
589.818	31294.16
590.021	31124.18
590.224	31206.09
590.427	31572.68
590.63	31277.77
590.833	30759.64
591.036	31032.02
591.239	31546.06
591.442	31345.36
591.645	31398.6
591.848	31724.23
592.051	31513.29
592.254	31701.7
592.457	31419.08
592.66	31335.12
592.863	31396.56
593.066	31943.36
593.269	31519.43
593.472	31722.18
593.675	31967.94
593.878	31974.08
594.081	31986.37
594.284	31728.33
594.486	32381.63
594.689	32084.67
594.892	32006.85
595.095	32021.19
595.298	32279.23
595.5	32058.05
595.703	32299.71
595.906	32047.81
596.109	33018.55
596.311	32967.35
596.514	31857.35
596.717	32447.16
596.92	32744.12
597.122	32957.11
597.325	32158.4
597.528	32066.24
597.73	33331.89
597.933	32981.68
598.136	32367.29
598.338	32002.75
598.541	32983.73
598.743	33602.22
598.946	32426.68
599.148	33147.57
599.351	33141.42
599.554	33385.13
599.756	32690.87
599.959	33100.47
600.161	33473.2
600.363	33710.76
600.566	33266.35
600.768	32983.73
600.971	33761.96
601.173	33333.93
601.376	32993.97
601.578	33161.9
601.78	33528.49
601.983	33702.57
602.185	32821.94
602.388	33708.71
602.59	33702.57
602.792	33538.73
602.995	33217.2
603.197	33084.08
603.399	33462.96
603.601	33694.38
603.804	33395.37
604.006	33002.16
604.208	33686.18
604.41	33405.61
604.613	33583.79
604.815	33419.95
605.017	34339.49
605.219	33448.62
605.421	33657.51
605.623	33870.5
605.826	34579.1
606.028	34165.41
606.23	33866.41
606.432	33272.49
606.634	34099.87
606.836	34536.09
607.038	33522.35
607.24	34052.77
607.442	34382.49
607.644	34005.67
607.846	33901.22
608.048	33905.32
608.25	34155.17
608.452	33737.38
608.654	33995.43
608.856	33731.24
609.058	34091.68
609.26	34228.9
609.462	33770.15
609.664	34312.86
609.866	34552.48
610.067	34622.11
610.269	34388.64
610.471	33999.52
610.673	34550.43
610.875	34437.79
611.077	34310.82
611.278	34241.18
611.48	34302.62
611.682	34904.73
611.884	34540.19
612.085	34063.01
612.287	34568.86
612.489	34521.76
612.69	33702.57
612.892	34159.27
613.094	35234.45
613.295	34534.04
613.497	34230.94
613.699	34124.45
613.9	35087
614.102	35259.02
614.304	34181.79
614.505	34130.59
614.707	34841.24
614.908	34646.68
615.11	34333.34
615.311	34618.01
615.513	34402.97
615.714	34888.34
615.916	34431.65
616.117	34351.77
616.319	34468.51
616.52	34720.41
616.722	34509.47
616.923	34468.51
617.124	35048.08
617.326	34775.7
617.527	34689.69
617.729	34892.44
617.93	34837.14
618.131	35203.73
618.333	34525.85
618.534	34644.63
618.735	34474.65
618.937	35134.1
619.138	34499.23
619.339	34665.11
619.54	35363.47
619.742	34710.17
619.943	35082.9
620.144	34904.73
620.345	35316.37
620.546	35115.67
620.748	34888.34
620.949	34937.49
621.15	35252.88
621.351	35082.9
621.552	34390.69
621.753	34179.75
621.954	34943.64
622.155	35410.57
622.356	34548.38
622.558	35111.57
622.759	35336.85
622.96	35768.97
623.161	34847.38
623.362	34742.94
623.563	35480.21
623.764	35340.94
623.965	35084.95
624.166	35598.99
624.366	34982.55
624.567	35412.62
624.768	34869.91
624.969	34523.8
625.17	35316.37
625.371	36084.36
625.572	34892.44
625.773	34888.34
625.973	35838.6
626.174	35734.15
626.375	35459.73
626.576	35721.87
626.777	35680.91
626.977	35869.32
627.178	35246.74
627.379	35486.35
627.58	35048.08
627.78	35455.63
627.981	35322.51
628.182	35492.49
628.382	35635.85
628.583	35386
628.784	35207.83
628.984	35295.89
629.185	36250.24
629.386	35840.65
629.586	35654.28
629.787	35398.29
629.987	36076.16
630.188	35873.42
630.388	35738.25
630.589	35492.49
630.79	36336.26
630.99	35760.78
631.191	35455.63
631.391	36096.64
631.591	35943.05
631.792	36389.5
631.992	36178.56
632.193	35930.76
632.393	36565.63
632.594	35848.84
632.794	35662.47
632.994	35963.53
633.195	36153.99
633.395	36283.01
633.595	35711.63
633.796	36016.77
633.996	36106.88
634.196	36436.61
634.397	35873.42
634.597	36502.14
634.797	36266.63
634.997	37048.95
635.198	36237.95
635.398	35885.7
635.598	36891.26
635.798	36786.81
635.998	36465.28
636.199	36166.27
636.399	36485.76
636.599	36110.98
636.799	35949.19
636.999	36334.21
637.199	36485.76
637.399	36336.26
637.599	36248.19
637.799	36375.17
637.999	36381.31
638.199	37010.04
638.399	36670.08
638.599	36092.55
638.799	37030.52
638.999	37401.2
639.199	36620.92
639.399	37077.62
639.599	37040.76
639.799	36555.39
639.999	36854.39
640.199	36545.15
640.399	36942.45
640.599	35990.15
640.799	37251.7
640.998	37046.9
641.198	36815.48
641.398	36696.7
641.598	36665.98
641.798	36907.64
641.997	37677.68
642.197	36743.8
642.397	36907.64
642.597	36178.56
642.796	37073.52
642.996	37614.19
643.196	37081.72
643.395	36618.88
643.595	37159.54
643.795	36817.53
643.994	36844.15
644.194	37132.92
644.394	37585.52
644.593	37421.68
644.793	37024.37
644.992	37423.73
645.192	37180.02
645.392	37352.05
645.591	37487.21
645.791	37190.26
645.99	37601.9
646.19	37595.76
646.389	37161.59
646.589	37132.92
646.788	37644.91
646.987	37603.95
647.187	37628.52
647.386	37423.73
647.586	38025.83
647.785	37913.19
647.984	37386.86
648.184	37622.38
648.383	37587.57
648.582	37655.15
648.782	37556.85
648.981	37651.05
649.18	37440.11
649.38	37995.11
649.579	37714.54
649.778	37497.45
649.977	38359.65
650.177	38189.67
650.376	37347.95
650.575	37575.28
650.774	38126.18
650.973	37274.23
651.173	37562.99
651.372	37499.5
651.571	37931.62
651.77	38050.41
651.969	37788.27
652.168	37763.69
652.367	37810.79
652.566	37900.9
652.765	38060.65
652.964	38150.76
653.163	38660.7
653.362	37888.62
653.561	38189.67
653.76	37880.42
653.959	37976.68
654.158	38670.94
654.357	38161
654.556	37509.74
654.755	38578.78
654.954	38167.14
655.153	37765.74
655.352	38136.42
655.551	38486.62
655.749	38130.28
655.948	38042.21
656.147	38341.22
656.346	38654.56
656.545	38204
656.743	38171.24
656.942	38161
657.141	38548.06
657.34	37982.82
657.538	38247.01
657.737	38572.64
657.936	38523.49
658.135	38523.49
658.333	38195.81
658.532	37960.3
658.731	38822.49
658.929	38705.76
659.128	38605.41
659.326	38236.77
659.525	39109.21
659.724	38322.79
659.922	38265.44
660.121	38185.57
660.319	38503.01
660.518	38208.1
660.716	38253.15
660.915	38359.65
661.113	39019.1
661.312	38380.13
661.51	38570.59
661.709	38244.96
661.907	38589.02
662.105	39043.67
662.304	38464.1
662.502	38916.7
662.701	38888.03
662.899	38679.13
663.097	38791.77
663.296	38136.42
663.494	39055.96
663.692	38971.99
663.891	38480.48
664.089	38208.1
664.287	38756.96
664.485	39027.29
664.684	39035.48
664.882	38716
665.08	38541.92
665.278	38640.22
665.476	38283.87
665.675	38787.67
665.873	39117.4
666.071	39098.97
666.269	38523.49
666.467	38271.59
666.665	39090.77
666.863	38029.93
667.061	38566.49
667.259	38378.08
667.457	39348.82
667.655	39119.45
667.853	38578.78
668.051	38396.51
668.249	38222.44
668.447	39094.87
668.645	37843.56
668.843	38916.7
669.041	38937.18
669.239	38042.21
669.437	38679.13
669.635	38875.74
669.833	38652.51
670.031	38859.35
670.229	38283.87
670.426	38654.56
670.624	38730.33
670.822	38314.59
671.02	38249.06
671.218	38554.21
671.415	38464.1
671.613	38744.67
671.811	38382.18
672.009	38806.11
672.206	39526.99
672.404	38836.83
672.602	38818.39
672.799	38759
672.997	38863.45
673.195	38740.57
673.392	38965.85
673.59	38371.94
673.788	38296.16
673.985	37802.6
674.183	38124.13
674.38	38081.13
674.578	38982.23
674.775	37966.44
674.973	37896.81
675.17	38650.46
675.368	38552.16
675.565	38713.95
675.763	38339.17
675.96	38414.94
676.158	38664.8
676.355	38056.55
676.553	38449.76
676.75	38064.74
676.947	38722.14
677.145	38359.65
677.342	38179.43
677.539	38359.65
677.737	38433.38
677.934	38814.3
678.131	38242.92
678.329	37853.8
678.526	38623.84
678.723	38605.41
678.92	38357.6
679.118	37878.38
679.315	38361.7
679.512	38718.04
679.709	38019.69
679.906	37945.96
680.104	38556.25
680.301	38380.13
680.498	37853.8
680.695	37962.34
680.892	38005.35
681.089	38097.51
681.286	38404.7
681.483	37638.76
681.68	37939.82
681.877	38253.15
682.075	37773.93
682.272	38263.39
682.469	38357.6
682.665	37784.17
682.862	37585.52
683.059	37483.12
683.256	38148.71
683.453	38126.18
683.65	37661.29
683.847	37952.1
684.044	37673.58
684.241	37513.84
684.438	37988.97
684.635	37534.32
684.831	38546.01
685.028	38304.35
685.225	37476.97
685.422	37569.13
685.619	37593.71
685.815	37603.95
686.012	37599.85
686.209	37087.86
686.405	37577.33
686.602	37984.87
686.799	36987.51
686.996	37388.91
687.192	37337.71
687.389	37673.58
687.586	37130.87
687.782	37597.8
687.979	38025.83
688.175	37636.72
688.372	37542.51
688.568	37399.15
688.765	36885.11
688.962	37667.44
689.158	37345.9
689.355	37491.31
689.551	37311.09
689.748	37597.8
689.944	36919.93
690.14	37014.13
690.337	37362.29
690.533	37390.96
690.73	36973.17
690.926	37147.25
691.123	37112.44
691.319	37177.97
691.515	36878.97
691.712	36854.39
691.908	37481.07
692.104	37421.68
692.301	36870.78
692.497	36577.92
692.693	37220.98
692.889	37675.63
693.086	36622.97
693.282	36895.35
693.478	36711.03
693.674	37173.88
693.87	37229.17
694.067	36897.4
694.263	37024.37
694.459	36721.27
694.655	36993.65
694.851	37069.43
695.047	37010.04
695.243	37175.92
695.439	36330.11
695.635	36676.22
695.831	36930.17
696.027	36885.11
696.224	36446.85
696.42	36999.8
696.615	37622.38
696.811	37186.16
697.007	36725.37
697.203	36795
697.399	36825.72
697.595	36991.61
697.791	36373.12
697.987	36326.02
698.183	36942.45
698.379	36346.5
698.575	36438.65
698.77	36270.72
698.966	36620.92
699.162	37028.47
699.358	36489.85
699.554	36280.96
699.749	36737.66
699.945	36831.86
700.141	36508.29
700.337	36215.43
700.532	36606.59
700.728	36340.35
700.924	35814.02
701.119	35836.55
701.315	36692.6
701.511	36213.38
701.706	36686.46
701.902	35826.31
702.097	36276.87
702.293	36577.92
702.489	36151.94
702.684	36135.56
702.88	36739.71
703.075	36041.35
703.271	35885.7
703.466	35941
703.662	36174.47
703.857	36651.64
704.053	36242.05
704.248	36203.14
704.443	36477.57
704.639	36346.5
704.834	36039.3
705.03	35967.62
705.225	36272.77
705.42	36317.82
705.616	36102.79
705.811	35570.32
706.006	35943.05
706.202	36002.44
706.397	35799.69
706.592	35492.49
706.787	36078.21
706.983	35906.18
707.178	36108.93
707.373	35844.74
707.568	36053.64
707.763	36143.75
707.959	36158.08
708.154	35711.63
708.349	35705.48
708.544	36160.13
708.739	35979.91
708.934	35478.16
709.129	35969.67
709.324	35572.36
709.519	35537.55
709.714	35304.08
709.909	36665.98
710.104	35807.88
710.299	35598.99
710.494	35738.25
710.689	35719.82
710.884	35676.81
711.079	35992.2
711.274	35117.71
711.469	35785.35
711.664	35764.87
711.859	35588.75
712.054	35930.76
712.249	35402.38
712.443	35756.68
712.638	35422.86
712.833	35130
713.028	35584.65
713.223	35256.98
713.417	35279.5
713.612	35572.36
713.807	35637.9
714.002	35756.68
714.196	35291.79
714.391	35480.21
714.586	35938.95
714.78	35347.09
714.975	34939.54
715.17	34661.02
715.364	35310.22
715.559	35451.53
715.754	34327.2
715.948	34878.1
716.143	35478.16
716.337	35402.38
716.532	35334.8
716.726	35027.6
716.921	35201.68
717.115	35631.75
717.31	34831
717.504	35484.3
717.699	35062.42
717.893	35342.99
718.088	34673.31
718.282	34656.92
718.476	34927.25
718.671	34613.91
718.865	34407.07
719.059	34378.4
719.254	34476.7
719.448	34847.38
719.642	34646.68
719.837	33995.43
720.031	34876.05
720.225	34503.32
720.419	34327.2
720.614	33862.31
720.808	34562.72
721.002	34046.63
721.196	33821.35
721.39	34241.18
721.585	34419.36
721.779	34427.55
721.973	33710.76
722.167	33307.31
722.361	34247.33
722.555	34192.03
722.749	33663.66
722.943	33827.49
723.137	33942.18
723.331	33899.17
723.525	33858.21
723.719	33510.06
723.913	34263.71
724.107	34239.14
724.301	33985.19
724.495	33882.79
724.689	34400.93
724.883	34026.15
725.077	33573.55
725.271	33925.8
725.465	34106.02
725.659	33999.52
725.853	33864.36
726.046	33522.35
726.24	33809.06
726.434	33759.91
726.628	33450.67
726.822	33462.96
727.015	34151.07
727.209	34120.35
727.403	33577.64
727.596	33419.95
727.79	33831.59
727.984	34673.31
728.177	33378.99
728.371	33792.68
728.565	34120.35
728.758	34151.07
728.952	33598.12
729.146	33575.59
729.339	34327.2
729.533	33790.63
729.726	33180.34
729.92	33266.35
730.113	34136.74
730.307	34011.81
730.5	33372.85
730.694	33389.23
730.887	33477.29
731.081	34241.18
731.274	33252.02
731.468	33249.97
731.661	33567.4
731.854	33532.59
732.048	33182.38
732.241	33534.63
732.435	33821.35
732.628	33684.14
732.821	33669.8
733.014	33485.48
733.208	33346.22
733.401	33489.58
733.594	33643.18
733.788	33340.08
733.981	34138.79
734.174	33788.58
734.367	33288.88
734.56	33467.05
734.754	33555.11
734.947	33725.1
735.14	33309.36
735.333	33624.75
735.526	33907.37
735.719	33383.09
735.912	33204.91
736.105	33170.1
736.298	33505.96
736.491	33532.59
736.684	32944.82
736.877	33258.16
737.07	33557.16
737.263	33989.28
737.456	33176.24
737.649	32991.92
737.842	33278.64
738.035	33229.49
738.228	32889.52
738.421	33229.49
738.614	33518.25
738.807	33845.93
739	32713.4
739.192	32533.18
739.385	33645.23
739.578	33370.8
739.771	33487.53
739.964	32807.61
740.156	33364.65
740.349	33014.45
740.542	33184.43
740.735	32879.28
740.927	33323.69
741.12	33198.77
741.313	33178.29
741.505	33288.88
741.698	32901.81
741.891	33399.47
742.083	32903.86
742.276	32703.16
742.468	33376.94
742.661	32955.06
742.854	33227.44
743.046	32873.14
743.239	33538.73
743.431	33321.65
743.624	32764.6
743.816	32234.17
744.009	32811.7
744.201	32975.54
744.393	32623.29
744.586	32647.86
744.778	32932.53
744.971	32662.2
745.163	32807.61
745.355	32453.31
745.548	32586.43
745.74	32617.14
745.932	32219.84
746.125	32578.23
746.317	33325.74
746.509	32662.2
746.702	32760.5
746.894	32336.57
747.086	32340.67
747.278	32944.82
747.471	32262.85
747.663	32277.18
747.855	32678.58
748.047	32821.94
748.239	32574.14
748.431	32176.83
748.623	32938.68
748.815	32498.36
749.008	32252.61
749.2	31881.92
749.392	32920.24
749.584	32293.57
749.776	32328.38
749.968	32168.64
750.16	32539.32
750.352	32111.3
750.544	31976.13
750.736	31883.97
750.928	32086.72
751.12	32078.53
751.311	31787.72
751.503	32582.33
751.695	31974.08
751.887	31902.4
752.079	31875.78
752.271	31566.54
752.463	32766.65
752.654	31601.35
752.846	31681.22
753.038	31417.04
753.23	31935.17
753.421	31996.61
753.613	31259.34
753.805	31744.71
753.997	32076.48
754.188	31865.54
754.38	31527.63
754.572	31564.49
754.763	31881.92
754.955	31396.56
755.146	31451.85
755.338	31171.28
755.53	31589.06
755.721	31126.22
755.913	31126.22
756.104	30915.28
756.296	31445.71
756.487	31634.12
756.679	31462.09
756.87	31249.1
757.062	31138.51
757.253	31738.57
757.445	31140.56
757.636	31494.86
757.827	31326.92
758.019	31849.16
758.21	30677.72
758.401	31054.54
758.593	31564.49
758.784	31222.48
758.975	30304.99
759.167	30644.95
759.358	31218.38
759.549	31656.65
759.74	30442.2
759.932	30651.09
760.123	30976.72
760.314	30851.8
760.505	30368.48
760.696	30081.76
760.888	31288.01
761.079	30638.81
761.27	30669.53
761.461	30483.16
761.652	30722.77
761.843	30505.69
762.034	30583.51
762.225	30647
762.416	30493.4
762.607	30298.84
762.798	30454.49
762.989	29954.79
763.18	31169.23
763.371	29811.43
763.562	30059.23
763.753	29999.84
763.944	30372.57
764.135	30290.65
764.326	30345.95
764.517	29905.63
764.708	30317.28
764.899	30042.85
765.089	29410.03
765.28	29676.26
765.471	30448.35
765.662	30218.97
765.853	29627.11
766.043	29227.76
766.234	30048.99
766.425	30067.42
766.615	29539.05
766.806	29387.5
766.997	29922.02
767.187	29866.72
767.378	29541.1
767.569	29057.78
767.759	29510.38
767.95	29680.36
768.141	29797.09
768.331	29651.69
768.522	29475.56
768.712	29934.31
768.903	29244.14
769.093	29055.73
769.284	29717.22
769.474	29313.77
769.665	28769.01
769.855	28869.36
770.046	29373.16
770.236	29070.06
770.426	29000.43
770.617	28885.75
770.807	29209.32
770.998	28990.19
771.188	28916.47
771.378	28730.1
771.569	29301.48
771.759	28895.99
771.949	28261.12
772.139	28541.69
772.33	28422.9
772.52	29403.88
772.71	28451.58
772.9	28205.82
773.09	28846.83
773.281	29147.89
773.471	28476.15
773.661	28236.54
773.851	28441.34
774.041	28304.12
774.231	28214.01
774.421	28195.58
774.611	29006.58
774.802	28488.44
774.992	28293.88
775.182	28025.6
775.372	28351.23
775.562	28435.19
775.752	28261.12
775.942	27929.34
776.131	28510.97
776.321	27978.5
776.511	28123.9
776.701	27669.25
776.891	28281.6
777.081	27921.15
777.271	27773.7
777.461	27728.64
777.651	28111.61
777.84	28289.79
778.03	27147.02
778.22	27333.39
778.41	28209.92
778.599	27745.03
778.789	27534.09
778.979	27648.77
779.169	27740.93
779.358	27691.78
779.548	27634.44
779.738	27347.72
779.927	27654.92
780.117	27376.39
780.307	26917.65
780.496	26870.54
780.686	27550.47
780.875	27628.29
781.065	27065.1
781.254	27216.65
781.444	27214.6
781.633	27054.86
781.823	27110.16
782.012	27022.09
782.202	27052.81
782.391	27183.88
782.581	26753.81
782.77	26897.17
782.96	27728.64
783.149	26778.39
783.338	26733.33
783.528	26430.23
783.717	26833.68
783.906	27040.53
784.096	26651.41
784.285	26819.35
784.474	26481.43
784.663	26700.56
784.853	26219.29
785.042	26463
785.231	26452.76
785.42	26833.68
785.61	26381.08
785.799	26563.35
785.988	26641.17
786.177	26454.81
786.366	26145.56
786.555	26104.6
786.744	26876.69
786.933	26344.22
787.122	26364.7
787.312	26006.3
787.501	26428.18
787.69	26356.5
787.879	26485.53
788.068	25899.81
788.257	26264.35
788.445	25850.66
788.634	25948.96
788.823	26164
789.012	26772.24
789.201	26659.6
789.39	25959.2
789.579	25627.43
789.768	26188.57
789.957	26207
790.145	25815.84
790.334	25563.94
790.523	25836.32
790.712	25688.87
790.9	25883.42
791.089	25492.26
791.278	26102.56
791.467	25826.08
791.655	25934.62
791.844	26166.04
792.033	25525.03
792.221	25271.08
792.41	25510.69
792.599	25066.28
792.787	26030.88
792.976	25789.22
793.164	25158.44
793.353	25406.25
793.541	25707.3
793.73	25838.37
793.918	25570.08
794.107	25031.47
794.295	25316.14
794.484	25277.22
794.672	25060.14
794.861	24855.34
795.049	25273.13
795.238	25588.52
795.426	24709.94
795.614	24830.77
795.803	25309.99
795.991	25574.18
796.179	24728.37
796.368	24955.69
796.556	25633.57
796.744	24918.83
796.932	24617.78
797.121	24709.94
797.309	24967.98
797.497	25396.01
797.685	24834.86
797.874	24519.48
798.062	24939.31
798.25	25465.64
798.438	24777.52
798.626	24763.18
798.814	25086.76
799.002	25504.55
799.19	24798
799.378	24775.47
799.566	24783.66
799.755	25051.95
799.943	24873.78
800.131	24503.09
800.318	24582.96
800.506	24890.16
800.694	24269.62
800.882	24517.43
801.07	25508.65
801.258	25078.57
801.446	24814.38
801.634	24353.59
801.822	25027.37
802.01	24965.93
802.197	24730.42
802.385	24955.69
802.573	24955.69
802.761	25109.29
802.949	24867.63
803.136	24644.4
803.324	25164.59
803.512	25094.96
803.699	24791.86
803.887	24828.72
804.075	25989.92
804.262	24576.82
804.45	24832.82
804.638	25023.28
804.825	25025.32
805.013	24656.69
805.201	25015.08
805.388	24458.04
805.576	25287.46
805.763	25895.71
805.951	25074.48
806.138	25250.6
806.326	25633.57
806.513	25568.04
806.701	24998.7
806.888	25213.74
807.075	25463.59
807.263	25697.06
807.45	25195.31
807.638	24941.36
807.825	25799.46
808.012	25379.62
808.2	24767.28
808.387	25353
808.574	25641.76
808.761	25619.24
808.949	25019.18
809.136	25176.87
809.323	25148.2
809.51	25723.68
809.698	25469.73
809.885	25203.5
810.072	25449.25
810.259	25973.53
810.446	25027.37
810.633	25301.8
810.82	25871.14
811.008	25793.31
811.195	25525.03
811.382	25461.54
811.569	25852.7
811.756	24822.58
811.943	25582.37
812.13	25170.73
812.317	25535.27
812.504	25273.13
812.691	25647.91
812.878	25291.56
813.064	26088.22
813.251	25568.04
813.438	25533.22
813.625	25375.53
813.812	25197.35
813.999	25490.21
814.186	25445.16
814.372	25744.16
814.559	25512.74
814.746	25719.59
814.933	24892.21
815.12	25477.93
815.306	25359.14
815.493	25533.22
815.68	25711.39
815.866	25414.44
816.053	25621.28
816.24	25944.86
816.426	25346.86
816.613	25293.61
816.799	25699.11
816.986	25768.74
817.173	25013.04
817.359	25363.24
817.546	25457.45
817.732	24912.69
817.919	25027.37
818.105	24773.42
818.292	25361.19
818.478	25721.63
818.665	25082.67
818.851	25039.66
819.037	26077.98
819.224	25617.19
819.41	24826.67
819.597	24834.86
819.783	25555.75
819.969	25408.29
820.156	25109.29
820.342	24869.68
820.528	25879.33
820.714	25127.72
820.901	25535.27
821.087	24613.68
821.273	25576.23
821.459	24957.74
821.646	24783.66
821.832	24703.79
822.018	25072.43
822.204	24982.32
822.39	24822.58
822.576	24798
822.762	24699.7
822.948	24961.84
823.134	24994.61
823.32	24611.64
823.507	24585.01
823.693	24318.78
823.879	24662.83
824.065	24445.75
824.25	24754.99
824.436	24199.99
824.622	24226.62
824.808	24593.2
824.994	24687.41
825.18	24222.52
825.366	23843.65
825.552	24349.5
825.738	24673.07
825.923	24908.59
826.109	24220.47
826.295	24208.19
826.481	24165.18
826.667	24111.93
826.852	24267.58
827.038	23872.32
827.224	24394.55
827.409	24628.02
827.595	23778.11
827.781	24183.61
827.966	24339.26
828.152	24355.64
828.338	23941.95
828.523	23481.16
828.709	23860.03
828.894	24011.58
829.08	23962.43
829.266	23536.45
829.451	24124.22
829.637	23941.95
829.822	23819.07
830.008	23477.06
830.193	24154.94
830.378	24208.19
830.564	23747.39
830.749	23063.37
830.935	23946.05
831.12	23950.14
831.305	23386.95
831.491	23245.64
831.676	23212.87
831.861	23821.12
832.047	23507.78
832.232	22836.05
832.417	23765.82
832.602	23411.53
832.788	22838.09
832.973	22922.06
833.158	23274.31
833.343	23122.76
833.528	22971.21
833.714	23290.7
833.899	23526.21
834.084	23380.81
834.269	23051.08
834.454	22938.44
834.639	23200.58
834.824	23221.06
835.009	22997.84
835.194	22782.8
835.379	23042.89
835.564	22973.26
835.749	22954.83
835.934	22649.68
836.119	23186.25
836.304	23012.17
836.489	22817.61
836.674	22727.5
836.859	22512.47
837.044	23149.39
837.228	22547.28
837.413	22389.59
837.598	22733.65
837.783	22985.55
837.968	22680.4
838.152	22188.89
838.337	22188.89
838.522	22836.05
838.707	23053.13
838.891	22369.11
839.076	22545.23
839.261	22870.86
839.445	22315.86
839.63	22248.28
839.815	22528.85
839.999	22211.42
840.184	21992.28
840.368	22080.35
840.553	22473.56
840.737	22463.32
840.922	21908.32
841.106	22029.15
841.291	21472.1
841.475	22348.63
841.66	21932.89
841.844	21832.54
842.029	22905.68
842.213	21650.27
842.397	21664.61
842.582	21535.59
842.766	22299.48
842.951	22139.74
843.135	21492.58
843.319	21668.7
843.504	21734.24
843.688	22270.81
843.872	21402.47
844.056	21609.31
844.241	22008.67
844.425	21617.5
844.609	21824.35
844.793	21482.34
844.977	22078.3
845.161	21332.84
845.346	20937.58
845.53	21132.14
845.714	21807.97
845.898	21750.62
846.082	21220.2
846.266	21377.89
846.45	21449.57
846.634	21388.13
846.818	21001.07
847.002	21009.26
847.186	21541.73
847.37	20960.11
847.554	20730.73
847.738	20908.91
847.922	21447.52
848.106	21314.41
848.29	20804.46
848.473	20824.94
848.657	20978.54
848.841	21252.97
849.025	20837.23
849.209	20614
849.392	21005.16
849.576	21146.47
849.76	20315
849.944	20790.13
850.127	21459.81
850.311	20607.86
850.495	20630.38
850.678	20585.33
850.862	21179.24
851.046	21502.82
851.229	20829.04
851.413	20353.91
851.596	20740.97
851.78	20783.98
851.964	20941.68
852.147	20570.99
852.331	21590.88
852.514	20968.3
852.698	20280.18
852.881	20161.4
853.065	20646.77
853.248	20411.25
853.431	20302.71
853.615	20421.49
853.798	21140.33
853.982	20720.49
854.165	20339.57
854.348	19862.4
854.532	20001.66
854.715	20173.69
854.898	20056.95
855.081	19809.15
855.265	20570.99
855.448	20577.14
855.631	19678.08
855.814	19630.98
855.997	20284.28
856.181	19958.65
856.364	19923.83
856.547	19866.49
856.73	19925.88
856.913	20259.7
857.096	19338.12
857.279	19704.7
857.462	19608.45
857.645	20018.04
857.828	19706.75
858.011	20011.9
858.194	19434.37
858.377	19659.65
858.56	19133.32
858.743	19377.03
858.926	19190.66
859.109	19549.06
859.292	19497.86
859.475	19280.77
859.658	20112.25
859.841	19813.24
860.023	19018.63
860.206	19022.73
860.389	19618.69
860.572	19776.38
860.755	19248
860.937	19086.22
861.12	19510.14
861.303	19362.69
861.486	19198.85
861.668	18867.08
861.851	19248
862.034	19264.39
862.216	18922.38
862.399	18291.6
862.581	18946.95
862.764	19258.24
862.947	18527.12
863.129	18604.94
863.312	18469.78
863.494	19219.33
863.677	18693.01
863.859	18316.18
864.042	18690.96
864.224	19137.41
864.406	18459.54
864.589	17957.78
864.771	18539.41
864.954	18113.43
865.136	18078.61
865.318	17994.65
865.501	18609.04
865.683	17771.42
865.865	18307.99
866.048	18082.71
866.23	18334.61
866.412	18281.36
866.594	17873.82
866.777	17974.17
866.959	18418.58
867.141	17816.47
867.323	18051.99
867.505	18346.9
867.687	18156.44
867.869	18113.43
868.052	17836.95
868.234	18064.28
868.416	17925.02
868.598	18019.22
868.78	17931.16
868.962	17849.24
869.144	18217.88
869.326	18518.93
869.508	17707.93
869.69	17707.93
869.872	18031.51
870.054	18256.79
870.236	17619.87
870.417	17861.53
870.599	17912.73
870.781	18291.6
870.963	17396.64
871.145	17509.28
871.327	17488.8
871.508	17970.07
871.69	17458.08
871.872	17828.76
872.054	18027.42
872.235	18092.95
872.417	17472.42
872.599	17775.52
872.78	18408.34
872.962	18164.63
873.144	17245.09
873.325	17316.77
873.507	18193.3
873.689	17941.4
873.87	17329.06
874.052	17669.02
874.233	17632.16
874.415	18060.18
874.596	17894.3
874.778	17267.62
874.959	17830.81
875.141	18242.45
875.322	17517.47
875.503	17542.05
875.685	17693.6
875.866	17453.98
876.048	17359.78
876.229	17286.05
876.41	17599.39
876.592	17718.17
876.773	17580.96
876.954	17466.27
877.136	18291.6
877.317	17519.52
877.498	17644.45
877.679	17748.89
877.86	17937.3
878.042	17707.93
878.223	17476.51
878.404	17943.45
878.585	17974.17
878.766	18267.03
878.947	18111.38
879.128	17798.04
879.309	18224.02
879.49	18414.48
879.672	18078.61
879.853	17656.73
880.034	17986.46
880.215	18033.56
880.396	17920.92
880.576	17857.43
880.757	17998.74
880.938	18412.43
881.119	17943.45
881.3	18045.85
881.481	18105.24
881.662	19237.77
881.843	17900.44
882.023	17920.92
882.204	18283.41
882.385	18250.64
882.566	18035.61
882.747	18240.4
882.927	18314.13
883.108	18615.18
883.289	18312.08
883.469	18252.69
883.65	18621.33
883.831	18549.65
884.011	18213.78
884.192	18459.54
884.373	18590.61
884.553	18760.59
884.734	18469.78
884.914	18432.91
885.095	19262.34
885.275	19114.89
885.456	18695.05
885.636	18170.77
885.817	18711.44
885.997	18373.52
886.178	18537.36
886.358	18588.56
886.538	18733.96
886.719	19499.91
886.899	18398.1
887.08	18789.26
887.26	18979.72
887.44	18496.4
887.621	18428.82
887.801	18439.06
887.981	19544.96
888.161	19317.64
888.342	18797.45
888.522	18774.92
888.702	19207.05
888.882	19436.42
889.062	18920.33
889.242	18660.24
889.423	19184.52
889.603	19383.17
889.783	19094.41
889.963	18809.74
890.143	19397.51
890.323	19252.1
890.503	18678.67
890.683	18856.84
890.863	19098.5
891.043	19026.82
891.223	19020.68
891.403	19080.07
891.583	19280.77
891.763	19235.72
891.943	19131.27
892.122	18754.44
892.302	19231.62
892.482	19225.48
892.662	19266.44
892.842	19110.79
893.022	19317.64
893.201	19170.18
893.381	19121.03
893.561	19129.22
893.741	19370.88
893.92	19198.85
894.1	18899.85
894.28	19069.83
894.459	19245.96
894.639	19303.3
894.819	18873.23
894.998	18987.91
895.178	19348.36
895.357	19325.83
895.537	18844.56
895.716	18701.2
895.896	19014.54
896.075	19383.17
896.255	18731.92
896.434	18408.34
896.614	19338.12
896.793	19305.35
896.973	19049.35
897.152	18688.91
897.331	19174.28
897.511	19276.68
897.69	18744.2
897.87	18889.61
898.049	19141.51
898.228	18969.48
898.407	18936.71
898.587	18840.46
898.766	18895.75
898.945	19092.36
899.124	18496.4
899.304	18639.76
899.483	18971.53
899.662	19340.16
899.841	18238.36
900.02	18480.02
900.199	18924.43
900.378	18795.4
900.557	18363.28
900.737	18437.01
900.916	18930.57
901.095	18924.43
901.274	18635.66
901.453	18310.04
901.632	18279.32
901.811	18230.16
901.989	18416.53
902.168	18275.22
902.347	18856.84
902.526	18355.09
902.705	18246.55
902.884	18242.45
903.063	18756.49
903.242	18547.6
903.42	17855.39
903.599	18334.61
903.778	18543.5
903.957	18709.39
904.135	18047.9
904.314	17818.52
904.493	18228.12
904.672	18529.17
904.85	17855.39
905.029	18084.76
905.207	18174.87
905.386	18680.72
905.565	17570.72
905.743	17681.31
905.922	17789.85
906.1	18158.49
906.279	17925.02
906.457	17544.09
906.636	18013.08
906.814	17849.24
906.993	17570.72
907.171	17724.32
907.35	17914.78
907.528	17834.91
907.707	18051.99
907.885	17261.48
908.063	18238.36
908.242	17427.36
908.42	17451.94
908.598	16872.36
908.777	17685.4
908.955	17408.93
909.133	17263.52
909.311	16950.18
909.49	17238.95
909.668	17474.46
909.846	17089.45
910.024	16864.17
910.202	17238.95
910.38	17216.42
910.559	16677.8
910.737	16599.98
910.915	17238.95
911.093	17265.57
911.271	16985
911.449	16868.27
911.627	17068.97
911.805	17372.07
911.983	16634.8
912.161	16534.45
912.339	16718.76
912.517	17105.83
912.695	16876.46
912.872	16348.08
913.05	16423.86
913.228	16778.15
913.406	16407.47
913.584	16110.52
913.762	16829.35
913.939	16155.57
914.117	16313.27
914.295	16016.31
914.473	16507.82
914.65	16470.96
914.828	15961.02
915.006	15928.25
915.184	16178.1
915.361	16194.48
915.539	16214.96
915.716	15762.36
915.894	16206.77
916.072	16286.64
916.249	15946.68
916.427	15797.18
916.604	15723.45
916.782	16348.08
916.959	15535.04
917.137	15559.61
917.314	15791.03
917.492	15881.14
917.669	15453.12
917.847	15514.56
918.024	15721.4
918.201	15264.71
918.379	15432.64
918.556	15559.61
918.733	15647.68
918.911	15195.07
919.088	15643.58
919.265	15115.2
919.442	15356.86
919.62	15186.88
919.797	15094.72
919.974	14623.69
920.151	15209.41
920.328	15066.05
920.506	14939.08
920.683	15203.27
920.86	14758.86
921.037	15053.76
921.214	14848.97
921.391	14574.54
921.568	15074.24
921.745	14418.89
921.922	14627.79
922.099	14429.13
922.276	14996.42
922.453	14595.02
922.63	14306.26
922.807	14523.34
922.984	14304.21
923.161	14257.11
923.338	13980.63
923.514	13898.71
923.691	14228.43
923.868	14166.99
924.045	13923.29
924.222	13845.46
924.399	14115.8
924.575	14265.3
924.752	13827.03
924.929	13759.45
925.105	14195.67
925.282	13530.08
925.459	13435.87
925.635	13495.26
925.812	13722.59
925.989	13403.1
926.165	13485.02
926.342	12956.64
926.518	13292.51
926.695	13261.79
926.871	13050.85
927.048	12977.12
927.224	13466.59
927.401	13104.1
927.577	12948.45
927.754	12610.54
927.93	13272.03
928.107	13431.77
928.283	12547.05
928.459	12815.34
928.636	12919.78
928.812	12858.34
928.988	12481.52
929.165	12485.61
929.341	12809.19
929.517	12737.51
929.693	12770.28
929.87	12006.39
930.046	12809.19
930.222	12248.05
930.398	12018.68
930.574	12084.21
930.751	12235.76
930.927	12067.83
931.103	12041.2
931.279	12028.92
931.455	12018.68
931.631	11924.47
931.807	11441.15
931.983	11490.3
932.159	11510.78
932.335	11631.61
932.511	11621.37
932.687	11451.39
932.863	11439.1
933.039	11340.8
933.215	11064.32
933.391	10837
933.566	11174.91
933.742	11037.7
933.918	10875.91
934.094	10738.69
934.27	10867.72
934.445	10644.49
934.621	10683.4
934.797	10191.89
934.973	10802.18
935.148	10662.92
935.324	9849.88
935.5	9640.98
935.675	10472.46
935.851	10091.54
936.027	9577.5
936.202	9374.75
936.378	9507.87
936.553	9550.87
936.729	9700.37
936.904	8926.24
937.08	8885.28
937.255	8838.18
937.431	8340.52
937.606	8176.69
937.782	8410.15
937.957	8490.03
938.133	8105.01
938.308	7715.89
938.483	8053.81
938.659	7910.45
938.834	7670.84
939.009	7517.24
939.185	7595.06
939.36	7334.97
939.535	7048.26
939.71	7158.85
939.886	7541.82
940.061	7328.83
940.236	7013.44
940.411	6939.71
940.586	7101.5
940.761	7068.73
940.937	6669.38
941.112	6483.02
941.287	6687.81
941.462	6665.28
941.637	6286.41
941.812	6157.39
941.987	6528.07
942.162	6444.1
942.337	6218.83
942.512	6165.58
942.687	6464.58
942.862	6491.21
943.037	5715.03
943.212	5616.72
943.386	6083.66
943.561	6108.24
943.736	5987.41
943.911	5983.31
944.086	6153.29
944.26	6026.32
944.435	5690.45
944.61	5788.75
944.785	6210.64
944.959	6278.22
945.134	5788.75
945.309	5569.62
945.483	5596.25
945.658	6075.47
945.833	5383.26
946.007	5543
946.182	6235.21
946.357	5604.44
946.531	5465.18
946.706	5373.02
946.88	5321.82
947.055	5960.78
947.229	5577.81
947.404	5510.23
947.578	6104.14
947.752	5805.14
947.927	5518.42
948.101	5450.84
948.276	5975.12
948.45	5749.84
948.624	5796.95
948.799	5510.23
948.973	6024.27
949.147	5450.84
949.321	5686.36
949.496	5637.2
949.67	6095.95
949.844	5678.16
950.018	5657.68
950.193	5520.47
950.367	6147.15
950.541	5672.02
950.715	5786.71
950.889	5874.77
951.063	5911.63
951.237	5948.5
951.411	5352.54
951.585	5473.37
951.759	5885.01
951.933	5749.84
952.107	5479.51
952.281	5741.65
952.455	6169.68
952.629	5962.83
952.803	5409.88
952.977	5538.9
953.151	5915.73
953.325	6018.13
953.499	5645.4
953.672	5459.03
953.846	5528.66
954.02	5669.97
954.194	5477.46
954.368	5432.41
954.541	5938.26
954.715	5629.01
954.889	5618.77
955.062	5438.55
955.236	5700.69
955.41	5586.01
955.583	5649.49
955.757	5356.63
955.93	5543
956.104	5385.3
956.278	5393.5
956.451	5375.06
956.625	5653.59
956.798	6149.2
956.972	5551.19
957.145	5381.21
957.319	5579.86
957.492	5655.64
957.665	5540.95
957.839	5397.59
958.012	5747.79
958.185	5583.96
958.359	5403.74
958.532	5592.15
958.705	5717.08
958.879	5604.44
959.052	5246.04
959.225	5301.34
959.398	5508.18
959.572	5676.12
959.745	5366.87
959.918	5456.98
960.091	5635.16
960.264	5702.74
960.438	5174.36
960.611	5225.56
960.784	5645.4
960.957	5514.33
961.13	5684.31
961.303	5315.67
961.476	5321.82
961.649	5641.3
961.822	5153.88
961.995	5416.02
962.168	5483.61
962.341	5629.01
962.514	5317.72
962.686	5289.05
962.859	5411.93
963.032	5639.25
963.205	4994.14
963.378	5162.08
963.551	5538.9
963.723	5176.41
963.896	5305.43
964.069	5221.47
964.242	5325.91
964.414	5502.04
964.587	5135.45
964.76	5108.83
964.932	5350.49
965.105	5233.75
965.278	5100.64
965.45	4887.65
965.623	5393.5
965.795	5323.87
965.968	5100.64
966.14	5022.81
966.313	5182.56
966.485	5135.45
966.658	5014.62
966.83	4883.55
967.003	5432.41
967.175	5305.43
967.348	4928.61
967.52	4973.66
967.692	5672.02
967.865	5303.39
968.037	4901.98
968.209	5186.65
968.382	5225.56
968.554	5323.87
968.726	4881.5
968.898	4879.46
969.071	5323.87
969.243	5131.36
969.415	4924.51
969.587	5106.78
969.759	5577.81
969.932	5354.58
970.104	4983.9
970.276	4594.79
970.448	5039.2
970.62	4977.76
970.792	4881.5
970.964	4732
971.136	5592.15
971.308	5149.79
971.48	4785.25
971.652	4785.25
971.824	5483.61
971.996	4809.83
972.168	4777.06
972.339	4662.37
972.511	5188.7
972.683	4875.36
972.855	4979.81
973.027	4605.03
973.199	4887.65
973.37	5035.1
973.542	4871.26
973.714	4670.56
973.886	4760.67
974.057	4985.95
974.229	4430.95
974.401	4643.94
974.572	4580.45
974.744	4488.29
974.915	4502.63
975.087	4277.35
975.259	5139.55
975.43	4797.54
975.602	4535.4
975.773	4320.36
975.945	4641.89
976.116	4949.09
976.288	4471.91
976.459	4527.21
976.63	4680.8
976.802	4752.48
976.973	4512.87
977.145	4576.36
977.316	5305.43
977.487	4951.14
977.659	4689
977.83	4504.68
978.001	4944.99
978.172	4637.8
978.344	4379.75
978.515	4463.72
978.686	4570.21
978.857	4994.14
979.028	4527.21
979.2	4322.41
979.371	4793.44
979.542	4592.74
979.713	4605.03
979.884	3982.45
980.055	4353.13
980.226	4559.97
980.397	4359.27
980.568	4285.55
980.739	4826.21
980.91	4355.18
981.081	4363.37
981.252	3986.54
981.423	4484.2
981.594	4625.51
981.765	4043.88
981.936	4260.97
982.106	4416.62
982.277	4680.8
982.448	4154.48
982.619	4322.41
982.79	4289.64
982.96	4576.36
983.131	4177
983.302	3818.61
983.472	4207.72
983.643	4295.79
983.814	4166.76
983.984	3974.25
984.155	4232.3
984.326	4322.41
984.496	4080.75
984.667	4058.22
984.837	4318.31
985.008	4625.51
985.178	4068.46
985.349	4052.08
985.519	4232.3
985.69	3939.44
985.86	4002.93
986.031	3906.67
986.201	4187.24
986.371	4248.68
986.542	3777.65
986.712	3579
986.882	4322.41
987.053	4248.68
987.223	3839.09
987.393	3912.81
987.563	3949.68
987.734	4148.33
987.904	4086.89
988.074	3699.83
988.244	4004.97
988.414	3894.38
988.585	3693.68
988.755	3871.86
988.925	3978.35
989.095	4420.71
989.265	3626.1
989.435	3798.13
989.605	4074.6
989.775	3990.64
989.945	3859.57
990.115	3601.52
990.285	3947.63
990.455	4025.45
990.625	3648.63
990.795	3552.37
990.965	4031.6
991.134	3855.47
991.304	3634.29
991.474	3560.56
991.644	3990.64
991.814	4215.91
991.984	3286.14
992.153	3394.68
992.323	3601.52
992.493	3677.3
992.662	3239.03
992.832	3736.69
993.002	3728.5
993.171	3789.94
993.341	3366.01
993.511	3591.28
993.68	3427.45
993.85	3806.32
994.019	3208.31
994.189	3294.33
994.358	3689.59
994.528	3454.07
994.697	3161.21
994.867	3253.37
995.036	3722.35
995.206	3519.6
995.375	3298.42
995.544	3490.93
995.714	3613.81
995.883	3529.84
996.052	3495.03
996.222	3171.45
996.391	3953.77
996.56	3554.42
996.73	3263.61
996.899	3118.2
997.068	3810.42
997.237	3554.42
997.406	3140.73
997.576	3091.58
997.745	3605.62
997.914	3566.71
998.083	3001.47
998.252	3191.93
998.421	3308.66
998.59	3310.71
998.759	3003.52
998.928	2948.22
999.097	3718.26
999.266	3488.89
999.435	3081.34
999.604	2845.82
999.773	3959.92
999.942	3159.16
1000.111	2847.87
1000.28	2806.91
1000.448	3058.81
1000.617	3069.05
1000.786	3175.55
1000.955	2823.3
1001.124	3185.79
1001.292	4031.6
1001.461	2942.08
1001.63	2688.13
1001.798	3542.13
1001.967	3454.07
1002.136	2667.65
1002.304	2819.2
1002.473	3249.27
1002.642	3157.11
1002.81	2835.58
1002.979	2811.01
1003.147	3308.66
1003.316	3642.48
1003.484	2804.86
1003.653	2782.34
1003.821	3290.23
1003.99	3179.64
1004.158	2972.8
1004.327	2831.49
1004.495	3236.99
1004.663	2880.64
1004.832	2837.63
1005	2604.16
1005.168	3132.54
1005.337	3060.86
1005.505	2593.92
1005.673	2839.68
1005.842	3191.93
1006.01	3087.48
1006.178	2641.03
1006.346	2491.52
1006.514	3036.28
1006.683	3216.51
1006.851	2487.43
1007.019	2538.63
1007.187	2774.14
1007.355	2454.66
1007.523	2397.32
1007.691	2395.27
1007.859	2538.63
1008.027	3138.68
1008.195	2512
1008.363	2290.82
1008.531	2937.98
1008.699	2661.51
1008.867	2503.81
1009.035	2430.09
1009.203	3163.26
1009.37	2665.6
1009.538	2415.75
1009.706	2858.11
1009.874	2931.84
1010.042	2618.5
1010.209	2266.25
1010.377	2325.64
1010.545	2960.51
1010.713	2811.01
1010.88	2405.51
1011.048	2413.7
1011.216	2618.5
1011.383	2837.63
1011.551	2272.39
1011.718	2229.38
1011.886	2778.24
1012.054	2651.27
1012.221	2253.96
1012.389	2188.43
1012.556	2569.35
1012.724	3036.28
1012.891	2299.02
1013.058	2108.55
1013.226	2708.61
1013.393	2724.99
1013.561	1983.63
1013.728	2110.6
1013.895	2737.28
1014.063	2534.53
1014.23	2004.11
1014.397	2004.11
1014.565	2512
1014.732	2331.78
1014.899	2030.73
1015.066	1993.87
1015.233	2518.15
1015.401	2548.87
1015.568	2131.08
1015.735	2221.19
1015.902	2436.23
1016.069	2567.3
1016.236	2073.74
1016.403	2131.08
1016.57	2235.53
1016.737	2567.3
1016.904	1954.96
1017.071	1940.62
1017.238	2172.04
1017.405	2569.35
1017.572	2010.25
1017.739	2237.58
1017.906	2385.03
1018.073	2618.5
1018.24	1819.79
1018.407	1891.47
1018.573	2471.04
1018.74	2184.33
1018.907	1864.85
1019.074	1858.7
1019.241	2432.13
1019.407	2370.69
1019.574	1768.59
1019.741	1848.46
1019.907	2315.4
1020.074	2319.5
1020.241	1565.84
1020.407	1645.71
1020.574	2348.17
1020.74	2262.15
1020.907	1801.36
1021.073	1696.91
1021.24	2620.55
1021.406	2485.38
1021.573	1721.49
1021.739	1784.98
1021.906	2315.4
1022.072	1930.38
1022.239	1684.62
1022.405	1662.1
1022.571	2180.23
1022.738	1944.72
1022.904	1684.62
1023.07	1881.23
1023.237	2188.43
1023.403	2296.97
1023.569	1569.94
1023.735	1664.15
1023.902	1987.72
1024.068	2012.3
1024.234	1551.51
1024.4	1688.72
1024.566	2020.49
1024.732	2192.52
1024.898	1574.03
1025.065	1455.25
1025.231	2120.84
1025.397	1682.58
1025.563	1584.27
1025.729	1416.34
1025.895	1455.25
1026.061	1701.01
1026.227	1369.24
1026.392	1402.01
1026.558	2110.6
1026.724	2024.59
1026.89	1445.01
1027.056	1535.12
1027.222	1897.61
1027.388	1682.58
1027.553	1434.77
1027.719	1453.2
1027.885	2337.93
1028.051	1870.99
1028.216	1236.12
1028.382	1397.91
1028.548	1991.82
1028.713	1664.15
1028.879	1356.95
1029.045	1561.75
1029.21	2045.07
1029.376	1922.19
1029.541	1447.06
1029.707	1502.36
1029.873	1967.24
1030.038	1842.32
1030.204	1356.95
1030.369	1410.2
1030.534	1928.33
1030.7	1565.84
1030.865	1270.94
1031.031	1367.19
1031.196	1895.57
1031.361	1803.41
1031.527	1250.46
1031.692	1180.82
1031.857	1236.12
1032.023	1813.65
1032.188	1131.67
1032.353	1289.37
1032.518	2124.94
1032.684	1799.31
1032.849	1080.47
1033.014	1367.19
1033.179	1768.59
1033.344	1664.15
1033.509	1227.93
1033.674	1209.5
1033.839	1848.46
1034.004	1694.86
1034.17	1223.83
1034.335	1021.08
1034.5	1428.63
1034.664	1326.23
1034.829	1178.78
1034.994	1070.23
1035.159	1569.94
1035.324	1662.1
1035.489	1072.28
1035.654	1035.42
1035.819	1760.4
1035.984	1574.03
1036.148	1150.11
1036.313	1236.12
1036.478	1799.31
1036.643	1578.13
1036.807	988.32
1036.972	941.21
1037.137	1748.11
1037.301	1508.5
1037.466	910.49
1037.631	1103
1037.795	1692.82
1037.96	1488.02
1038.124	1217.69
1038.289	943.26
1038.454	1569.94
1038.618	1553.55
1038.783	1090.71
1038.947	1135.77
1039.111	1451.16
1039.276	1383.57
1039.44	1053.85
1039.605	1440.92
1039.769	1258.65
1039.933	1238.17
1040.098	996.51
1040.262	1164.44
1040.426	1453.2
1040.591	1488.02
1040.755	908.44
1040.919	998.56
1041.083	1434.77
1041.248	1268.89
1041.412	668.83
1041.576	867.49
1041.74	1291.41
1041.904	1469.59
1042.068	795.81
1042.232	906.4
1042.397	1500.31
1042.561	1301.65
1042.725	689.31
1042.889	1072.28
1043.053	1354.9
1043.217	1418.39
1043.381	937.12
1043.544	752.8
1043.708	1528.98
1043.872	877.73
1044.036	631.97
1044.2	695.46
1044.364	1451.16
1044.528	1580.18
1044.691	4088.94
1044.855	726.18
1045.019	1397.91
1045.183	1365.14
1045.346	867.49
1045.51	785.57
1045.674	1266.84
1045.837	1324.18
1046.001	728.22
1046.165	783.52
1046.328	1795.22
1046.492	1172.63
1046.655	955.55
1046.819	840.86
1046.983	988.32
1047.146	1174.68
1047.31	902.3
1047.473	562.34
1047.636	1100.95
1047.8	963.74
1047.963	840.86
1048.127	623.78
1048.29	957.6
