Data from Ink_Intensity_USB4F045381__167__00167.txt Node

Date: Mon Jul 17 11:35:25 EDT 2023
User: mmckonesweet
Spectrometer: USB4F04538
Trigger mode: 4
Integration Time (sec): 9.000000E-1
Scans to average: 1
Electric dark correction enabled: true
Nonlinearity correction enabled: false
Boxcar width: 0
XAxis mode: Wavelengths
Number of Pixels in Spectrum: 3648
>>>>>Begin Spectral Data<<<<<
345.52	-974.66
345.736	-974.66
345.952	-974.66
346.168	-1050.44
346.384	-1029.96
346.6	-137.04
346.816	-167.76
347.032	-225.11
347.248	301.22
347.464	-180.05
347.68	-135
347.896	110.76
348.112	352.42
348.328	-135
348.544	-44.88
348.76	10.41
348.975	250.02
349.191	-192.34
349.407	-143.19
349.623	45.23
349.839	-20.31
350.055	-122.71
350.27	106.67
350.486	178.34
350.702	395.43
350.918	135.34
351.133	-135
351.349	116.9
351.565	362.66
351.781	-208.72
351.996	-16.21
352.212	305.32
352.428	-106.32
352.644	-255.83
352.859	-216.91
353.075	305.32
353.291	123.05
353.506	-153.43
353.722	-196.43
353.938	6.31
354.153	297.13
354.369	102.57
354.584	-192.34
354.8	225.45
355.016	-298.83
355.231	-317.26
355.447	-94.04
355.662	190.63
355.878	868.51
356.093	-350.03
356.309	-16.21
356.524	-202.58
356.74	329.89
356.955	-182.1
357.171	-61.27
357.386	207.02
357.602	-216.91
357.817	-69.46
358.033	-135
358.248	460.96
358.464	172.2
358.679	-178
358.895	-276.31
359.11	14.51
359.325	299.17
359.541	-34.64
359.756	37.03
359.972	-231.25
360.187	219.3
360.402	-196.43
360.618	-137.04
360.833	940.19
361.048	106.67
361.264	-167.76
361.479	-91.99
361.694	-12.12
361.909	108.71
362.125	-147.28
362.34	-221.01
362.555	282.79
362.77	32.94
362.986	-321.36
363.201	-204.63
363.416	211.11
363.631	82.09
363.847	-192.34
364.062	-157.52
364.277	180.39
364.492	161.96
364.707	-182.1
364.922	-380.75
365.138	250.02
365.353	278.69
365.568	-212.82
365.783	-200.53
365.998	100.52
366.213	587.94
366.428	-208.72
366.643	112.81
366.858	231.59
367.073	290.98
367.288	-186.19
367.503	-237.39
367.718	82.09
367.933	307.37
368.148	-241.49
368.363	-20.31
368.578	53.42
368.793	487.59
369.008	-173.91
369.223	-249.68
369.438	180.39
369.653	319.65
369.868	-278.35
370.083	-247.63
370.298	75.95
370.513	389.28
370.728	12.46
370.943	-192.34
371.157	-87.89
371.372	546.98
371.587	-270.16
371.802	-255.83
372.017	-12.12
372.232	481.44
372.446	-108.37
372.661	-276.31
372.876	223.4
373.091	200.87
373.306	-42.84
373.52	-257.87
373.735	-167.76
373.95	475.3
374.165	-71.51
374.379	-116.56
374.594	-169.81
374.809	88.23
375.023	106.67
375.238	-235.35
375.453	336.04
375.667	-237.39
375.882	-149.33
376.097	-208.72
376.311	26.79
376.526	-12.12
376.741	-255.83
376.955	53.42
377.17	594.08
377.384	538.79
377.599	-83.8
377.813	-284.5
378.028	587.94
378.242	123.05
378.457	-81.75
378.672	-341.84
378.886	73.9
379.101	-14.17
379.315	-276.31
379.53	-151.38
379.744	235.69
379.958	200.87
380.173	-85.84
380.387	-315.22
380.602	147.62
380.816	-120.66
381.031	-167.76
381.245	-139.09
381.459	157.86
381.674	2871.42
381.888	-241.49
382.103	131.24
382.317	-216.91
382.531	512.16
382.746	-126.8
382.96	-239.44
383.174	-98.13
383.388	516.26
383.603	45.23
383.817	-298.83
384.031	139.43
384.246	497.83
384.46	-3.93
384.674	250.02
384.888	94.38
385.103	-24.4
385.317	-313.17
385.531	-57.17
385.745	352.42
385.959	286.89
386.174	-253.78
386.388	-264.02
386.602	-102.23
386.816	-182.1
387.03	-98.13
387.244	-143.19
387.458	75.95
387.672	340.13
387.887	-284.5
388.101	-319.31
388.315	311.46
388.529	90.28
388.743	-178
388.957	-206.67
389.171	395.43
389.385	-137.04
389.599	-116.56
389.813	77.99
390.027	217.26
390.241	690.34
390.455	-167.76
390.669	-59.22
390.883	-65.36
391.097	342.18
391.311	-26.45
391.525	-227.15
391.738	133.29
391.952	211.11
392.166	-18.26
392.38	-202.58
392.594	223.4
392.808	325.8
393.022	-36.69
393.236	-85.84
393.449	186.54
393.663	170.15
393.877	-347.98
394.091	-69.46
394.305	65.71
394.518	-126.8
394.732	-212.82
394.946	-108.37
395.16	495.78
395.373	96.43
395.587	-251.73
395.801	-118.61
396.015	237.74
396.228	229.54
396.442	-249.68
396.656	-300.88
396.869	360.61
397.083	467.11
397.297	-51.03
397.51	-167.76
397.724	374.95
397.938	114.86
398.151	-255.83
398.365	-347.98
398.578	172.2
398.792	354.47
399.005	-116.56
399.219	-157.52
399.433	161.96
399.646	231.59
399.86	4.27
400.073	57.51
400.287	217.26
400.5	-16.21
400.714	-89.94
400.927	-108.37
401.141	241.83
401.354	1110.17
401.567	172.2
401.781	-206.67
401.994	280.74
402.208	540.83
402.421	-143.19
402.635	-171.86
402.848	104.62
403.061	284.84
403.275	-100.18
403.488	-229.2
403.701	458.92
403.915	204.97
404.128	-14.17
404.341	-67.41
404.555	155.82
404.768	57.51
404.981	-57.17
405.195	-175.95
405.408	467.11
405.621	190.63
405.834	10.41
406.048	-227.15
406.261	331.94
406.474	475.3
406.687	-319.31
406.9	10.41
407.114	143.53
407.327	180.39
407.54	-354.13
407.753	-313.17
407.966	-192.34
408.179	209.06
408.392	-163.67
408.605	-304.98
408.819	223.4
409.032	159.91
409.245	-192.34
409.458	-36.69
409.671	258.21
409.884	270.5
410.097	-223.06
410.31	24.75
410.523	180.39
410.736	-3.93
410.949	-57.17
411.162	-65.36
411.375	385.19
411.588	299.17
411.801	4.27
412.014	-110.42
412.227	61.61
412.44	2.22
412.653	-196.43
412.865	-20.31
413.078	221.35
413.291	192.68
413.504	-110.42
413.717	-208.72
413.93	135.34
414.143	-147.28
414.356	-98.13
414.568	-347.98
414.781	264.36
414.994	123.05
415.207	-77.65
415.42	-141.14
415.632	276.65
415.845	428.2
416.058	-327.5
416.271	-323.41
416.483	73.9
416.696	495.78
416.909	-155.47
417.121	-151.38
417.334	151.72
417.547	524.45
417.759	-182.1
417.972	-247.63
418.185	-67.41
418.397	211.11
418.61	-192.34
418.823	-196.43
419.035	409.76
419.248	53.42
419.46	-118.61
419.673	-46.93
419.885	198.82
420.098	-3.93
420.311	-130.9
420.523	-350.03
420.736	184.49
420.948	41.13
421.161	-149.33
421.373	-442.19
421.586	211.11
421.798	-67.41
422.01	-257.87
422.223	-79.7
422.435	-79.7
422.648	211.11
422.86	-227.15
423.073	-239.44
423.285	352.42
423.497	-274.26
423.71	-208.72
423.922	-251.73
424.134	168.1
424.347	399.52
424.559	-55.12
424.771	143.53
424.984	45.23
425.196	250.02
425.408	-323.41
425.621	-323.41
425.833	280.74
426.045	424.1
426.257	-282.45
426.47	-204.63
426.682	73.9
426.894	245.93
427.106	-161.62
427.318	-126.8
427.531	-20.31
427.743	272.55
427.955	-139.09
428.167	260.26
428.379	202.92
428.591	96.43
428.804	-81.75
429.016	-237.39
429.228	55.47
429.44	82.09
429.652	32.94
429.864	-298.83
430.076	-5.97
430.288	28.84
430.5	-257.87
430.712	-63.32
430.924	204.97
431.136	37.03
431.348	-345.94
431.56	-147.28
431.772	75.95
431.984	-14.17
432.196	-249.68
432.408	-200.53
432.62	-10.07
432.832	166.06
433.044	100.52
433.256	-30.55
433.468	262.31
433.679	-300.88
433.891	-261.97
434.103	-71.51
434.315	362.66
434.527	178.34
434.739	-69.46
434.95	-194.39
435.162	233.64
435.374	-61.27
435.586	-48.98
435.798	-190.29
436.009	-223.06
436.221	-3.93
436.433	-180.05
436.645	-204.63
436.856	-104.28
437.068	305.32
437.28	-249.68
437.491	61.61
437.703	219.3
437.915	200.87
438.126	-124.76
438.338	123.05
438.55	28.84
438.761	243.88
438.973	-141.14
439.184	-126.8
439.396	30.89
439.608	280.74
439.819	-257.87
440.031	-151.38
440.242	252.07
440.454	211.11
440.665	-175.95
440.877	-65.36
441.088	157.86
441.3	-10.07
441.511	-311.12
441.723	-231.25
441.934	112.81
442.146	4.27
442.357	-18.26
442.569	164.01
442.78	30.89
442.991	372.9
443.203	24.75
443.414	-282.45
443.626	395.43
443.837	-122.71
444.048	-231.25
444.26	-294.74
444.471	-16.21
444.682	245.93
444.894	-395.09
445.105	-321.36
445.316	307.37
445.528	229.54
445.739	-55.12
445.95	-184.15
446.161	94.38
446.373	315.56
446.584	-229.2
446.795	-145.24
447.006	194.73
447.217	436.39
447.429	-368.46
447.64	-223.06
447.851	393.38
448.062	69.8
448.273	-323.41
448.484	-229.2
448.695	239.78
448.907	-69.46
449.118	-98.13
449.329	110.76
449.54	-57.17
449.751	-175.95
449.962	-184.15
450.173	-180.05
450.384	319.65
450.595	358.57
450.806	-247.63
451.017	-141.14
451.228	307.37
451.439	354.47
451.65	-208.72
451.861	-425.81
452.072	-163.67
452.283	-1.88
452.494	-34.64
452.705	-257.87
452.915	426.15
453.126	217.26
453.337	-175.95
453.548	-216.91
453.759	268.45
453.97	592.03
454.181	-5.97
454.391	-186.19
454.602	98.47
454.813	268.45
455.024	-75.6
455.235	-278.35
455.445	176.3
455.656	200.87
455.867	-10.07
456.078	-229.2
456.288	51.37
456.499	123.05
456.71	-319.31
456.921	53.42
457.131	147.62
457.342	84.14
457.553	-67.41
457.763	-208.72
457.974	196.78
458.184	270.5
458.395	-276.31
458.606	-403.28
458.816	340.13
459.027	499.88
459.237	-126.8
459.448	-331.6
459.659	280.74
459.869	522.4
460.08	-317.26
460.29	-175.95
460.501	432.29
460.711	-40.79
460.922	-366.42
461.132	-155.47
461.343	708.77
461.553	-198.48
461.764	-227.15
461.974	-245.59
462.184	303.27
462.395	129.19
462.605	-151.38
462.816	-272.21
463.026	53.42
463.236	250.02
463.447	-288.59
463.657	-216.91
463.867	301.22
464.078	37.03
464.288	-208.72
464.498	-192.34
464.709	32.94
464.919	49.32
465.129	-165.71
465.339	-255.83
465.55	141.48
465.76	198.82
465.97	-141.14
466.18	-298.83
466.391	209.06
466.601	139.43
466.811	-198.48
467.021	-364.37
467.231	129.19
467.441	290.98
467.651	-175.95
467.862	-450.38
468.072	16.55
468.282	405.67
468.492	-171.86
468.702	-167.76
468.912	-53.08
469.122	522.4
469.332	127.14
469.542	-212.82
469.752	272.55
469.962	104.62
470.172	-261.97
470.382	-315.22
470.592	190.63
470.802	278.69
471.012	-120.66
471.222	-245.59
471.432	256.17
471.642	194.73
471.852	-124.76
472.062	-253.78
472.272	32.94
472.482	-249.68
472.691	-393.04
472.901	-317.26
473.111	135.34
473.321	594.08
473.531	-323.41
473.741	-98.13
473.95	86.19
474.16	213.16
474.37	-165.71
474.58	-257.87
474.79	456.87
474.999	233.64
475.209	-298.83
475.419	-233.3
475.628	24.75
475.838	364.71
476.048	-192.34
476.258	-282.45
476.467	319.65
476.677	-178
476.886	-20.31
477.096	-118.61
477.306	-63.32
477.515	286.89
477.725	-180.05
477.935	-122.71
478.144	372.9
478.354	-59.22
478.563	-204.63
478.773	-182.1
478.982	233.64
479.192	333.99
479.401	-182.1
479.611	-233.3
479.82	-85.84
480.03	104.62
480.239	-274.26
480.449	-302.93
480.658	518.31
480.868	-22.36
481.077	-175.95
481.287	-208.72
481.496	161.96
481.705	368.81
481.915	110.76
482.124	57.51
482.333	127.14
482.543	344.23
482.752	-114.52
482.961	-276.31
483.171	233.64
483.38	2.22
483.589	-139.09
483.799	-290.64
484.008	129.19
484.217	290.98
484.426	-102.23
484.636	-347.98
484.845	47.27
485.054	-141.14
485.263	110.76
485.472	-231.25
485.682	434.34
485.891	143.53
486.1	-249.68
486.309	-208.72
486.518	121
486.727	413.86
486.936	-286.54
487.146	-16.21
487.355	415.91
487.564	-184.15
487.773	-200.53
487.982	-165.71
488.191	-42.84
488.4	-14.17
488.609	-196.43
488.818	-202.58
489.027	573.6
489.236	352.42
489.445	-208.72
489.654	-241.49
489.863	286.89
490.072	207.02
490.281	116.9
490.49	-261.97
490.698	405.67
490.907	426.15
491.116	-165.71
491.325	-298.83
491.534	366.76
491.743	100.52
491.952	-94.04
492.16	-159.57
492.369	182.44
492.578	217.26
492.787	-114.52
492.996	-352.08
493.204	-48.98
493.413	518.31
493.622	-460.62
493.831	-360.27
494.039	364.71
494.248	-214.87
494.457	-173.91
494.665	-372.56
494.874	157.86
495.083	467.11
495.291	-130.9
495.5	-200.53
495.709	288.93
495.917	12.46
496.126	-126.8
496.335	-321.36
496.543	-38.74
496.752	207.02
496.96	-3.93
497.169	-335.7
497.377	57.51
497.586	282.79
497.794	-36.69
498.003	-360.27
498.211	-94.04
498.42	411.81
498.628	-184.15
498.837	-323.41
499.045	168.1
499.254	98.47
499.462	-227.15
499.671	-298.83
499.879	485.54
500.087	319.65
500.296	-229.2
500.504	-184.15
500.713	139.43
500.921	491.68
501.129	-175.95
501.338	-206.67
501.546	100.52
501.754	55.47
501.962	-200.53
502.171	-298.83
502.379	180.39
502.587	430.24
502.795	-188.24
503.004	-214.87
503.212	114.86
503.42	229.54
503.628	-270.16
503.837	-180.05
504.045	170.15
504.253	481.44
504.461	-245.59
504.669	-386.9
504.877	237.74
505.085	323.75
505.294	-354.13
505.502	-98.13
505.71	137.38
505.918	299.17
506.126	-221.01
506.334	-272.21
506.542	-16.21
506.75	137.38
506.958	-81.75
507.166	-235.35
507.374	-77.65
507.582	467.11
507.79	-167.76
507.998	-352.08
508.206	202.92
508.414	209.06
508.622	-264.02
508.83	-304.98
509.037	465.06
509.245	-14.17
509.453	-321.36
509.661	-284.5
509.869	143.53
510.077	-22.36
510.285	-61.27
510.492	-526.16
510.7	577.7
510.908	-98.13
511.116	-233.3
511.324	-264.02
511.531	67.75
511.739	110.76
511.947	-40.79
512.155	84.14
512.362	112.81
512.57	-208.72
512.778	-270.16
512.985	-374.61
513.193	245.93
513.401	458.92
513.608	-223.06
513.816	-237.39
514.024	127.14
514.231	305.32
514.439	-216.91
514.646	-186.19
514.854	159.91
515.061	311.46
515.269	-294.74
515.477	-221.01
515.684	-157.52
515.892	266.41
516.099	-405.33
516.307	-368.46
516.514	262.31
516.722	372.9
516.929	-223.06
517.136	-362.32
517.344	465.06
517.551	151.72
517.759	-235.35
517.966	-288.59
518.173	30.89
518.381	-8.02
518.588	-190.29
518.796	-192.34
519.003	186.54
519.21	-8.02
519.418	-268.11
519.625	4.27
519.832	53.42
520.039	153.77
520.247	-399.18
520.454	-280.4
520.661	307.37
520.868	243.88
521.076	-221.01
521.283	-200.53
521.49	620.71
521.697	176.3
521.904	-159.57
522.112	-266.07
522.319	250.02
522.526	153.77
522.733	-294.74
522.94	-218.96
523.147	77.99
523.354	233.64
523.561	-390.99
523.768	-135
523.975	213.16
524.183	125.1
524.39	-241.49
524.597	-366.42
524.804	106.67
525.011	-167.76
525.218	-276.31
525.425	-190.29
525.632	307.37
525.838	-165.71
526.045	-196.43
526.252	-249.68
526.459	1155.23
526.666	884.89
526.873	-331.6
527.08	-347.98
527.287	372.9
527.494	258.21
527.701	-347.98
527.907	-268.11
528.114	94.38
528.321	-24.4
528.528	-157.52
528.735	-245.59
528.941	-71.51
529.148	-114.52
529.355	-130.9
529.562	-280.4
529.768	356.52
529.975	28.84
530.182	-212.82
530.388	-302.93
530.595	323.75
530.802	-169.81
531.008	-83.8
531.215	-171.86
531.422	460.96
531.628	782.49
531.835	-163.67
532.042	-167.76
532.248	-61.27
532.455	135.34
532.661	-167.76
532.868	-239.44
533.074	118.95
533.281	295.08
533.487	-233.3
533.694	-372.56
533.9	-161.62
534.107	211.11
534.313	-247.63
534.52	-374.61
534.726	278.69
534.933	438.44
535.139	-294.74
535.345	-282.45
535.552	116.9
535.758	77.99
535.965	-212.82
536.171	-190.29
536.377	266.41
536.584	460.96
536.79	-208.72
536.996	-151.38
537.203	118.95
537.409	147.62
537.615	-249.68
537.821	-102.23
538.028	288.93
538.234	196.78
538.44	-163.67
538.646	-184.15
538.853	151.72
539.059	114.86
539.265	159.91
539.471	-515.92
539.677	331.94
539.883	-73.56
540.09	-276.31
540.296	225.45
540.502	108.71
540.708	-91.99
540.914	-16.21
541.12	-200.53
541.326	172.2
541.532	98.47
541.738	-85.84
541.944	-268.11
542.15	184.49
542.356	-1.88
542.562	-253.78
542.768	-135
542.974	696.48
543.18	565.41
543.386	-304.98
543.592	-390.99
543.798	452.77
544.004	282.79
544.21	-233.3
544.415	-118.61
544.621	104.62
544.827	409.76
545.033	-425.81
545.239	-10.07
545.445	-200.53
545.651	28.84
545.856	-261.97
546.062	-290.64
546.268	12.46
546.474	133.29
546.679	-286.54
546.885	-200.53
547.091	-36.69
547.297	651.42
547.502	-91.99
547.708	-313.17
547.914	-159.57
548.119	178.34
548.325	-311.12
548.531	-331.6
548.736	452.77
548.942	-71.51
549.147	-261.97
549.353	32.94
549.559	288.93
549.764	207.02
549.97	-204.63
550.175	-304.98
550.381	258.21
550.586	-67.41
550.792	-190.29
550.997	-251.73
551.203	145.58
551.408	211.11
551.614	-364.37
551.819	-309.07
552.025	495.78
552.23	544.93
552.435	-311.12
552.641	-53.08
552.846	-135
553.052	417.96
553.257	-3.93
553.462	-153.43
553.668	-116.56
553.873	280.74
554.078	-311.12
554.283	-231.25
554.489	159.91
554.694	45.23
554.899	-317.26
555.105	-61.27
555.31	178.34
555.515	315.56
555.72	-126.8
555.925	-307.02
556.131	254.12
556.336	2.22
556.541	-237.39
556.746	-321.36
556.951	489.64
557.156	475.3
557.361	-124.76
557.567	-89.94
557.772	524.45
557.977	170.15
558.182	-233.3
558.387	-208.72
558.592	-126.8
558.797	409.76
559.002	-169.81
559.207	-83.8
559.412	61.61
559.617	598.18
559.822	-247.63
560.027	-225.11
560.232	88.23
560.437	217.26
560.642	-337.74
560.847	-241.49
561.051	90.28
561.256	217.26
561.461	-173.91
561.666	-329.55
561.871	159.91
562.076	260.26
562.281	-253.78
562.485	-294.74
562.69	241.83
562.895	258.21
563.1	-221.01
563.305	-280.4
563.509	387.24
563.714	659.62
563.919	-188.24
564.123	-333.65
564.328	30.89
564.533	323.75
564.737	-89.94
564.942	-208.72
565.147	366.76
565.351	618.66
565.556	-139.09
565.761	-151.38
565.965	164.01
566.17	-106.32
566.374	-212.82
566.579	-264.02
566.784	88.23
566.988	-40.79
567.193	-376.66
567.397	-309.07
567.602	-243.54
567.806	18.6
568.011	-200.53
568.215	-132.95
568.42	-1.88
568.624	-34.64
568.828	-159.57
569.033	-69.46
569.237	235.69
569.442	190.63
569.646	-405.33
569.85	-180.05
570.055	77.99
570.259	209.06
570.463	-91.99
570.668	-272.21
570.872	61.61
571.076	4.27
571.281	-71.51
571.485	-149.33
571.689	110.76
571.893	245.93
572.098	-34.64
572.302	-171.86
572.506	274.6
572.71	67.75
572.914	-130.9
573.119	-188.24
573.323	495.78
573.527	397.48
573.731	-221.01
573.935	-198.48
574.139	256.17
574.343	-48.98
574.547	-173.91
574.751	-243.54
574.955	454.82
575.159	420
575.364	-180.05
575.568	-298.83
575.772	49.32
575.976	329.89
576.18	-208.72
576.383	-397.14
576.587	282.79
576.791	254.12
576.995	-374.61
577.199	-395.09
577.403	346.28
577.607	364.71
577.811	-300.88
578.015	-130.9
578.219	211.11
578.422	258.21
578.626	-34.64
578.83	-34.64
579.034	342.18
579.238	121
579.442	-255.83
579.645	207.02
579.849	49.32
580.053	170.15
580.257	-118.61
580.46	-91.99
580.664	366.76
580.868	233.64
581.071	61.61
581.275	-75.6
581.479	-186.19
581.682	223.4
581.886	-239.44
582.09	-139.09
582.293	274.6
582.497	354.47
582.7	6.31
582.904	-286.54
583.107	159.91
583.311	47.27
583.515	-149.33
583.718	-98.13
583.922	223.4
584.125	573.6
584.329	-221.01
584.532	12.46
584.735	372.9
584.939	170.15
585.142	-354.13
585.346	-261.97
585.549	250.02
585.753	-100.18
585.956	-124.76
586.159	-81.75
586.363	506.02
586.566	266.41
586.769	-296.78
586.973	-200.53
587.176	227.5
587.379	442.53
587.582	166.06
587.786	22.7
587.989	129.19
588.192	753.82
588.395	-57.17
588.599	145.58
588.802	250.02
589.005	331.94
589.208	-167.76
589.411	-178
589.615	370.85
589.818	516.26
590.021	90.28
590.224	-51.03
590.427	282.79
590.63	325.8
590.833	-309.07
591.036	-192.34
591.239	63.66
591.442	16.55
591.645	41.13
591.848	-225.11
592.051	166.06
592.254	344.23
592.457	10.41
592.66	-77.65
592.863	135.34
593.066	153.77
593.269	-259.92
593.472	-38.74
593.675	-26.45
593.878	344.23
594.081	-81.75
594.284	-229.2
594.486	307.37
594.689	137.38
594.892	-51.03
595.095	-34.64
595.298	256.17
595.5	80.04
595.703	6.31
595.906	-55.12
596.109	508.07
596.311	346.28
596.514	-339.79
596.717	-83.8
596.92	395.43
597.122	286.89
597.325	-362.32
597.528	-135
597.73	503.97
597.933	231.59
598.136	-141.14
598.338	-368.46
598.541	299.17
598.743	364.71
598.946	-143.19
599.148	-137.04
599.351	434.34
599.554	389.28
599.756	-34.64
599.959	-53.08
600.161	385.19
600.363	669.86
600.566	141.48
600.768	-132.95
600.971	676
601.173	342.18
601.376	-120.66
601.578	-124.76
601.78	268.45
601.983	641.18
602.185	-180.05
602.388	121
602.59	270.5
602.792	182.44
602.995	147.62
603.197	-106.32
603.399	346.28
603.601	204.97
603.804	4.27
604.006	-106.32
604.208	182.44
604.41	-198.48
604.613	18.6
604.815	-85.84
605.017	710.82
605.219	-28.5
605.421	360.61
605.623	-85.84
605.826	483.49
606.028	516.26
606.23	-100.18
606.432	-104.28
606.634	583.84
606.836	469.16
607.038	-200.53
607.24	73.9
607.442	168.1
607.644	227.5
607.846	49.32
608.048	-120.66
608.25	573.6
608.452	65.71
608.654	-16.21
608.856	-304.98
609.058	32.94
609.26	368.81
609.462	-3.93
609.664	-38.74
609.866	630.95
610.067	446.63
610.269	151.72
610.471	-26.45
610.673	137.38
610.875	354.47
611.077	-255.83
611.278	-14.17
611.48	247.97
611.682	663.71
611.884	6.31
612.085	80.04
612.287	28.84
612.489	352.42
612.69	-124.76
612.892	-59.22
613.094	446.63
613.295	153.77
613.497	-79.7
613.699	-12.12
613.9	624.8
614.102	471.2
614.304	86.19
614.505	-280.4
614.707	225.45
614.908	215.21
615.11	-157.52
615.311	-24.4
615.513	420
615.714	432.29
615.916	-167.76
616.117	-1.88
616.319	168.1
616.52	450.72
616.722	-116.56
616.923	16.55
617.124	491.68
617.326	346.28
617.527	30.89
617.729	243.88
617.93	358.57
618.131	417.96
618.333	32.94
618.534	32.94
618.735	102.57
618.937	592.03
619.138	-186.19
619.339	-106.32
619.54	405.67
619.742	180.39
619.943	200.87
620.144	-14.17
620.345	428.2
620.546	503.97
620.748	-102.23
620.949	34.99
621.15	313.51
621.351	313.51
621.552	-46.93
621.753	-151.38
621.954	-190.29
622.155	733.34
622.356	-14.17
622.558	233.64
622.759	268.45
622.96	737.44
623.161	-22.36
623.362	-61.27
623.563	293.03
623.764	254.12
623.965	20.65
624.166	155.82
624.366	264.36
624.567	333.99
624.768	-278.35
624.969	16.55
625.17	258.21
625.371	446.63
625.572	69.8
625.773	-44.88
625.973	503.97
626.174	458.92
626.375	65.71
626.576	151.72
626.777	450.72
626.977	870.56
627.178	-36.69
627.379	127.14
627.58	233.64
627.78	256.17
627.981	77.99
628.182	194.73
628.382	594.08
628.583	-42.84
628.784	-36.69
628.984	116.9
629.185	524.45
629.386	514.21
629.586	161.96
629.787	-120.66
629.987	428.2
630.188	295.08
630.388	43.18
630.589	170.15
630.79	872.61
630.99	366.76
631.191	114.86
631.391	135.34
631.591	479.4
631.792	721.06
631.992	164.01
632.193	16.55
632.393	678.05
632.594	372.9
632.794	61.61
632.994	213.16
633.195	374.95
633.395	282.79
633.595	-61.27
633.796	319.65
633.996	155.82
634.196	573.6
634.397	-51.03
634.597	104.62
634.797	108.71
634.997	684.19
635.198	278.69
635.398	-30.55
635.598	377
635.798	680.1
635.998	434.34
636.199	-16.21
636.399	190.63
636.599	166.06
636.799	63.66
636.999	331.94
637.199	434.34
637.399	587.94
637.599	-10.07
637.799	282.79
637.999	262.31
638.199	659.62
638.399	14.51
638.599	43.18
638.799	407.72
638.999	817.31
639.199	196.78
639.399	143.53
639.599	680.1
639.799	153.77
639.999	-53.08
640.199	-65.36
640.399	456.87
640.599	510.11
640.799	135.34
640.998	239.78
641.198	585.89
641.398	411.81
641.598	168.1
641.798	127.14
641.997	1317.01
642.197	358.57
642.397	245.93
642.597	20.65
642.796	557.22
642.996	637.09
643.196	305.32
643.395	-100.18
643.595	426.15
643.795	-36.69
643.994	155.82
644.194	145.58
644.394	585.89
644.593	413.86
644.793	-26.45
644.992	276.65
645.192	442.53
645.392	-3.93
645.591	217.26
645.791	153.77
645.99	501.92
646.19	352.42
646.389	168.1
646.589	114.86
646.788	514.21
646.987	606.37
647.187	432.29
647.386	219.3
647.586	372.9
647.785	616.61
647.984	166.06
648.184	161.96
648.383	262.31
648.582	200.87
648.782	170.15
648.981	288.93
649.18	112.81
649.38	352.42
649.579	102.57
649.778	88.23
649.977	452.77
650.177	512.16
650.376	137.38
650.575	129.19
650.774	782.49
650.973	209.06
651.173	22.7
651.372	141.48
651.571	487.59
651.77	632.99
651.969	161.96
652.168	235.69
652.367	174.25
652.566	315.56
652.765	194.73
652.964	522.4
653.163	891.04
653.362	356.52
653.561	229.54
653.76	151.72
653.959	319.65
654.158	501.92
654.357	444.58
654.556	243.88
654.755	581.79
654.954	643.23
655.153	184.49
655.352	211.11
655.551	827.55
655.749	288.93
655.948	262.31
656.147	202.92
656.346	544.93
656.545	403.62
656.743	204.97
656.942	266.41
657.141	452.77
657.34	192.68
657.538	202.92
657.737	202.92
657.936	293.03
658.135	575.65
658.333	145.58
658.532	227.5
658.731	839.84
658.929	608.42
659.128	579.75
659.326	155.82
659.525	858.27
659.724	391.33
659.922	53.42
660.121	135.34
660.319	520.35
660.518	250.02
660.716	106.67
660.915	194.73
661.113	794.78
661.312	180.39
661.51	331.94
661.709	49.32
661.907	645.28
662.105	858.27
662.304	188.58
662.502	229.54
662.701	716.96
662.899	379.04
663.097	557.22
663.296	39.08
663.494	772.25
663.692	735.39
663.891	159.91
664.089	143.53
664.287	641.18
664.485	909.47
664.684	233.64
664.882	372.9
665.08	532.64
665.278	389.28
665.476	18.6
665.675	614.56
665.873	948.38
666.071	733.34
666.269	229.54
666.467	442.53
666.665	622.75
666.863	487.59
667.061	393.38
667.259	252.07
667.457	487.59
667.655	749.73
667.853	108.71
668.051	368.81
668.249	336.04
668.447	628.9
668.645	192.68
668.843	381.09
669.041	604.32
669.239	381.09
669.437	399.52
669.635	379.04
669.833	463.01
670.031	639.14
670.229	301.22
670.426	407.72
670.624	401.57
670.822	346.28
671.02	250.02
671.218	381.09
671.415	278.69
671.613	549.03
671.811	405.67
672.009	284.84
672.206	704.67
672.404	581.79
672.602	538.79
672.799	413.86
672.997	665.76
673.195	802.97
673.392	442.53
673.59	176.3
673.788	759.97
673.985	129.19
674.183	413.86
674.38	358.57
674.578	641.18
674.775	340.13
674.973	266.41
675.17	147.62
675.368	868.51
675.565	721.06
675.763	262.31
675.96	235.69
676.158	802.97
676.355	438.44
676.553	241.83
676.75	413.86
676.947	524.45
677.145	569.51
677.342	387.24
677.539	426.15
677.737	608.42
677.934	1171.61
678.131	530.59
678.329	348.33
678.526	1020.06
678.723	762.02
678.92	458.92
679.118	346.28
679.315	333.99
679.512	897.18
679.709	422.05
679.906	499.88
680.104	813.21
680.301	538.79
680.498	215.21
680.695	280.74
680.892	393.38
681.089	417.96
681.286	540.83
681.483	284.84
681.68	788.64
681.877	684.19
682.075	516.26
682.272	546.98
682.469	716.96
682.665	495.78
682.862	356.52
683.059	297.13
683.256	649.38
683.453	577.7
683.65	553.12
683.847	442.53
684.044	680.1
684.241	442.53
684.438	581.79
684.635	198.82
684.831	1061.02
685.028	1116.31
685.225	352.42
685.422	585.89
685.619	553.12
685.815	610.47
686.012	577.7
686.209	467.11
686.405	327.85
686.602	794.78
686.799	317.61
686.996	235.69
687.192	379.04
687.389	1022.11
687.586	366.76
687.782	454.82
687.979	962.72
688.175	962.72
688.372	458.92
688.568	346.28
688.765	391.33
688.962	805.02
689.158	532.64
689.355	241.83
689.551	774.3
689.748	551.07
689.944	565.41
690.14	204.97
690.337	848.03
690.533	624.8
690.73	673.95
690.926	460.96
691.123	753.82
691.319	628.9
691.515	293.03
691.712	575.65
691.908	778.4
692.104	856.22
692.301	604.32
692.497	348.33
692.693	888.99
692.889	784.54
693.086	530.59
693.282	252.07
693.478	780.45
693.674	1063.07
693.87	516.26
694.067	305.32
694.263	743.58
694.459	536.74
694.655	608.42
694.851	616.61
695.047	798.88
695.243	813.21
695.439	630.95
695.635	358.57
695.831	839.84
696.027	719.01
696.224	430.24
696.42	696.48
696.615	1044.63
696.811	811.17
697.007	331.94
697.203	415.91
697.399	710.82
697.595	989.34
697.791	467.11
697.987	669.86
698.183	391.33
698.379	499.88
698.575	530.59
698.77	632.99
698.966	970.91
699.162	991.39
699.358	503.97
699.554	477.35
699.749	860.32
699.945	891.04
700.141	620.71
700.337	546.98
700.532	661.66
700.728	487.59
700.924	465.06
701.119	409.76
701.315	843.93
701.511	692.38
701.706	606.37
701.902	327.85
702.097	700.58
702.293	858.27
702.489	528.55
702.684	577.7
702.88	692.38
703.075	645.28
703.271	549.03
703.466	323.75
703.662	776.35
703.857	827.55
704.053	436.39
704.248	524.45
704.443	839.84
704.639	979.1
704.834	491.68
705.03	448.68
705.225	864.41
705.42	950.43
705.616	714.91
705.811	432.29
706.006	768.16
706.202	632.99
706.397	772.25
706.592	424.1
706.787	745.63
706.983	788.64
707.178	778.4
707.373	620.71
707.568	874.65
707.763	1054.87
707.959	432.29
708.154	440.48
708.349	841.89
708.544	878.75
708.739	688.29
708.934	467.11
709.129	1038.49
709.324	981.15
709.519	508.07
709.714	436.39
709.909	1044.63
710.104	985.24
710.299	608.42
710.494	643.23
710.689	899.23
710.884	794.78
711.079	663.71
711.274	766.11
711.469	825.5
711.664	893.09
711.859	563.36
712.054	704.67
712.249	903.32
712.443	1071.26
712.638	532.64
712.833	454.82
713.028	716.96
713.223	817.31
713.417	852.13
713.612	485.54
713.807	1048.73
714.002	1433.75
714.196	768.16
714.391	557.22
714.586	1161.37
714.78	786.59
714.975	563.36
715.17	581.79
715.364	778.4
715.559	1067.16
715.754	247.97
715.948	493.73
716.143	1345.69
716.337	829.6
716.532	913.56
716.726	571.55
716.921	964.76
717.115	1239.19
717.31	534.69
717.504	1071.26
717.699	802.97
717.893	1159.32
718.088	544.93
718.282	518.31
718.476	874.65
718.671	1052.83
718.865	524.45
719.059	575.65
719.254	897.18
719.448	1196.18
719.642	1872.01
719.837	413.86
720.031	997.53
720.225	1073.31
720.419	706.72
720.614	540.83
720.808	995.48
721.002	772.25
721.196	583.84
721.39	585.89
721.585	1153.18
721.779	909.47
721.973	630.95
722.167	399.52
722.361	907.42
722.555	1126.55
722.749	659.62
722.943	616.61
723.137	647.33
723.331	954.52
723.525	708.77
723.719	684.19
723.913	1036.44
724.107	1257.62
724.301	512.16
724.495	721.06
724.689	1409.17
724.883	1187.99
725.077	645.28
725.271	651.42
725.465	1163.42
725.659	942.24
725.853	700.58
726.046	489.64
726.24	778.4
726.434	1101.98
726.628	622.75
726.822	802.97
727.015	1128.6
727.209	1151.13
727.403	735.39
727.596	563.36
727.79	1130.65
727.984	1126.55
728.177	684.19
728.371	712.86
728.565	1192.09
728.758	528.55
728.952	602.27
729.146	684.19
729.339	1196.18
729.533	774.3
729.726	635.04
729.92	632.99
730.113	1300.63
730.307	995.48
730.5	651.42
730.694	671.9
730.887	735.39
731.081	1075.35
731.274	575.65
731.468	770.21
731.661	899.23
731.854	823.45
732.048	669.86
732.241	616.61
732.435	872.61
732.628	970.91
732.821	774.3
733.014	589.99
733.208	774.3
733.401	1081.5
733.594	757.92
733.788	741.54
733.981	1110.17
734.174	1020.06
734.367	786.59
734.56	794.78
734.754	1155.23
734.947	983.2
735.14	624.8
735.333	745.63
735.526	1067.16
735.719	741.54
735.912	663.71
736.105	700.58
736.298	938.14
736.491	872.61
736.684	663.71
736.877	712.86
737.07	1165.46
737.263	1302.68
737.456	819.36
737.649	630.95
737.842	983.2
738.035	972.96
738.228	841.89
738.421	899.23
738.614	1290.39
738.807	1179.8
739	563.36
739.192	684.19
739.385	1069.21
739.578	1093.79
739.771	966.81
739.964	749.73
740.156	1091.74
740.349	995.48
740.542	909.47
740.735	645.28
740.927	766.11
741.12	798.88
741.313	719.01
741.505	757.92
741.698	1093.79
741.891	1114.27
742.083	872.61
742.276	817.31
742.468	1071.26
742.661	1065.11
742.854	794.78
743.046	753.82
743.239	1446.04
743.431	964.76
743.624	798.88
743.816	596.13
744.009	1079.45
744.201	1118.36
744.393	1067.16
744.586	676
744.778	1210.52
744.971	987.29
745.163	895.13
745.355	952.48
745.548	1095.83
745.74	901.28
745.932	909.47
746.125	790.69
746.317	1548.44
746.509	1157.27
746.702	749.73
746.894	858.27
747.086	1122.46
747.278	1341.59
747.471	940.19
747.663	872.61
747.855	1093.79
748.047	1487
748.239	702.62
748.431	741.54
748.623	1464.47
748.815	1446.04
749.008	581.79
749.2	721.06
749.392	1165.46
749.584	1206.42
749.776	870.56
749.968	995.48
750.16	1413.27
750.352	1050.78
750.544	1005.72
750.736	778.4
750.928	1196.18
751.12	1003.68
751.311	866.46
751.503	835.74
751.695	1153.18
751.887	1063.07
752.079	549.03
752.271	903.32
752.463	1941.65
752.654	1194.14
752.846	921.76
753.038	882.85
753.23	897.18
753.421	1243.29
753.613	815.26
753.805	1128.6
753.997	1314.97
754.188	1341.59
754.38	776.35
754.572	809.12
754.763	946.33
754.955	1228.95
755.146	915.61
755.338	876.7
755.53	1231
755.721	1069.21
755.913	753.82
756.104	770.21
756.296	1015.96
756.487	1323.16
756.679	813.21
756.87	946.33
757.062	1040.54
757.253	1179.8
757.445	839.84
757.636	909.47
757.827	970.91
758.019	1822.86
758.21	821.41
758.401	794.78
758.593	1593.49
758.784	1429.65
758.975	755.87
759.167	759.97
759.358	1237.14
759.549	1257.62
759.74	798.88
759.932	872.61
760.123	1464.47
760.314	972.96
760.505	968.86
760.696	839.84
760.888	1462.42
761.079	1106.07
761.27	909.47
761.461	671.9
761.652	1530
761.843	1130.65
762.034	821.41
762.225	1267.86
762.416	1108.12
762.607	1138.84
762.798	893.09
762.989	772.25
763.18	2013.32
763.371	1142.94
763.562	841.89
763.753	868.51
763.944	1300.63
764.135	1323.16
764.326	1069.21
764.517	864.41
764.708	1224.86
764.899	1222.81
765.089	815.26
765.28	719.01
765.471	1202.33
765.662	1267.86
765.853	905.37
766.043	712.86
766.234	1386.65
766.425	1409.17
766.615	958.62
766.806	766.11
766.997	1462.42
767.187	1210.52
767.378	848.03
767.569	688.29
767.759	1183.9
767.95	1175.7
768.141	1108.12
768.331	868.51
768.522	1140.89
768.712	1282.2
768.903	839.84
769.093	940.19
769.284	1458.32
769.474	1198.23
769.665	774.3
769.855	678.05
770.046	1353.88
770.236	1138.84
770.426	1118.36
770.617	866.46
770.807	1280.15
770.998	1124.51
771.188	1026.2
771.378	848.03
771.569	1312.92
771.759	1261.72
771.949	807.07
772.139	684.19
772.33	1173.66
772.52	1450.13
772.71	878.75
772.9	696.48
773.09	1501.33
773.281	1560.72
773.471	839.84
773.661	917.66
773.851	1472.66
774.041	1063.07
774.231	850.08
774.421	1063.07
774.611	1642.64
774.802	1237.14
774.992	962.72
775.182	819.36
775.372	1163.42
775.562	1310.87
775.752	927.9
775.942	970.91
776.131	1503.38
776.321	1314.97
776.511	905.37
776.701	835.74
776.891	1353.88
777.081	975
777.271	1034.39
777.461	856.22
777.651	1417.37
777.84	1425.56
778.03	1073.31
778.22	899.23
778.41	1448.08
778.599	1044.63
778.789	1020.06
778.979	843.93
779.169	1265.82
779.358	1228.95
779.548	1271.96
779.738	776.35
779.927	1271.96
780.117	1044.63
780.307	1046.68
780.496	661.66
780.686	1255.58
780.875	1720.46
781.065	831.65
781.254	901.28
781.444	1118.36
781.633	1192.09
781.823	897.18
782.012	893.09
782.202	929.95
782.391	1214.62
782.581	895.13
782.77	1151.13
782.96	1331.35
783.149	1155.23
783.338	1058.97
783.528	815.26
783.717	1378.45
783.906	1454.23
784.096	1046.68
784.285	784.54
784.474	1038.49
784.663	1024.16
784.853	929.95
785.042	981.15
785.231	1077.4
785.42	1308.82
785.61	1095.83
785.799	827.55
785.988	993.44
786.177	1177.75
786.366	919.71
786.555	1097.88
786.744	1392.79
786.933	1169.56
787.122	823.45
787.312	786.59
787.501	962.72
787.69	1321.11
787.879	938.14
788.068	913.56
788.257	829.6
788.445	1216.66
788.634	925.85
788.823	905.37
789.012	1820.81
789.201	1491.09
789.39	934.04
789.579	841.89
789.768	1245.34
789.957	1157.27
790.145	913.56
790.334	737.44
790.523	1032.35
790.712	1116.31
790.9	950.43
791.089	739.49
791.278	1497.24
791.467	1284.25
791.655	1101.98
791.844	1456.28
792.033	985.24
792.221	1138.84
792.41	997.53
792.599	774.3
792.787	1323.16
792.976	1429.65
793.164	835.74
793.353	921.76
793.541	1407.13
793.73	1294.49
793.918	1038.49
794.107	909.47
794.295	1212.57
794.484	1116.31
794.672	1040.54
794.861	972.96
795.049	1405.08
795.238	1620.11
795.426	932
795.614	1108.12
795.803	1308.82
795.991	1642.64
796.179	850.08
796.368	905.37
796.556	1534.1
796.744	983.2
796.932	950.43
797.121	905.37
797.309	1163.42
797.497	1513.62
797.685	981.15
797.874	940.19
798.062	1149.08
798.25	1564.82
798.438	942.24
798.626	1001.63
798.814	1345.69
799.002	1867.92
799.19	1167.51
799.378	1112.22
799.566	1421.46
799.755	1618.07
799.943	1228.95
800.131	999.58
800.318	1405.08
800.506	1294.49
800.694	987.29
800.882	1069.21
801.07	1583.25
801.258	1097.88
801.446	1005.72
801.634	966.81
801.822	1245.34
802.01	1239.19
802.197	1011.87
802.385	1030.3
802.573	1253.53
802.761	1138.84
802.949	968.86
803.136	860.32
803.324	1527.96
803.512	1396.89
803.699	1061.02
803.887	839.84
804.075	1593.49
804.262	1177.75
804.45	858.27
804.638	1204.38
804.825	1130.65
805.013	1126.55
805.201	1013.92
805.388	903.32
805.576	1339.54
805.763	1575.06
805.951	970.91
806.138	1204.38
806.326	1699.98
806.513	1564.82
806.701	1106.07
806.888	1034.39
807.075	1427.6
807.263	1796.24
807.45	888.99
807.638	1251.48
807.825	1720.46
808.012	1489.04
808.2	1104.03
808.387	1325.21
808.574	1443.99
808.761	1665.17
808.949	1067.16
809.136	1216.66
809.323	1267.86
809.51	1271.96
809.698	1515.67
809.885	1286.3
810.072	1443.99
810.259	1790.1
810.446	1269.91
810.633	1097.88
810.82	1595.54
811.008	1736.85
811.195	1319.06
811.382	1124.51
811.569	1450.13
811.756	1140.89
811.943	1175.7
812.13	1155.23
812.317	1255.58
812.504	1269.91
812.691	1118.36
812.878	1265.82
813.064	1681.55
813.251	1470.61
813.438	950.43
813.625	1267.86
813.812	1323.16
813.999	1388.69
814.186	1308.82
814.372	1147.03
814.559	1398.93
814.746	1714.32
814.933	1159.32
815.12	1310.87
815.306	1370.26
815.493	1185.94
815.68	1175.7
815.866	1179.8
816.053	1607.83
816.24	1974.41
816.426	1253.53
816.613	1015.96
816.799	1564.82
816.986	1687.7
817.173	1140.89
817.359	1091.74
817.546	1601.68
817.732	1175.7
817.919	913.56
818.105	1233.05
818.292	1388.69
818.478	1564.82
818.665	1276.06
818.851	1077.4
819.037	1945.74
819.224	1495.19
819.41	944.28
819.597	1233.05
819.783	1814.67
819.969	1540.24
820.156	1099.93
820.342	1157.27
820.528	2152.59
820.714	1466.52
820.901	1439.89
821.087	1175.7
821.273	1804.43
821.459	1368.21
821.646	1196.18
821.832	1167.51
822.018	1573.01
822.204	1552.53
822.39	1153.18
822.576	1159.32
822.762	1624.21
822.948	1570.96
823.134	1503.38
823.32	1228.95
823.507	1290.39
823.693	1460.37
823.879	1667.22
824.065	1282.2
824.25	1456.28
824.436	1228.95
824.622	1257.62
824.808	1050.78
824.994	1257.62
825.18	1171.61
825.366	1118.36
825.552	1261.72
825.738	1396.89
825.923	1718.42
826.109	1587.35
826.295	1114.27
826.481	1241.24
826.667	1491.09
826.852	1446.04
827.038	1222.81
827.224	1865.87
827.409	1906.83
827.595	1077.4
827.781	1429.65
827.966	1732.75
828.152	1556.63
828.338	1196.18
828.523	1052.83
828.709	1312.92
828.894	1740.94
829.08	1222.81
829.266	1192.09
829.451	1333.4
829.637	1642.64
829.822	1380.5
830.008	1167.51
830.193	1777.81
830.378	1800.34
830.564	1261.72
830.749	1065.11
830.935	1530
831.12	1626.26
831.305	1153.18
831.491	1269.91
831.676	1108.12
831.861	1691.79
832.047	1200.28
832.232	1167.51
832.417	1736.85
832.602	1560.72
832.788	1239.19
832.973	1101.98
833.158	1355.93
833.343	1448.08
833.528	1372.31
833.714	1366.17
833.899	1663.12
834.084	1943.69
834.269	1433.75
834.454	1321.11
834.639	1728.66
834.824	1335.45
835.009	1327.25
835.194	1480.85
835.379	1669.27
835.564	1716.37
835.749	1345.69
835.934	1169.56
836.119	1710.22
836.304	1591.44
836.489	1220.76
836.674	1489.04
836.859	1220.76
837.044	1810.58
837.228	1271.96
837.413	1194.14
837.598	1554.58
837.783	1699.98
837.968	1247.38
838.152	1026.2
838.337	1147.03
838.522	1769.62
838.707	1781.9
838.891	1425.56
839.076	1556.63
839.261	1839.25
839.445	1208.47
839.63	1265.82
839.815	1970.32
839.999	1568.91
840.184	1235.1
840.368	1224.86
840.553	1632.4
840.737	1697.94
840.922	1239.19
841.106	1118.36
841.291	1157.27
841.475	1613.97
841.66	1179.8
841.844	1235.1
842.029	2158.73
842.213	1218.71
842.397	1280.15
842.582	1083.55
842.766	1843.34
842.951	1716.37
843.135	1249.43
843.319	1241.24
843.504	1579.15
843.688	1763.47
843.872	1151.13
844.056	1130.65
844.241	1742.99
844.425	1464.47
844.609	1396.89
844.793	915.61
844.977	1792.14
845.161	1599.63
845.346	1155.23
845.53	1237.14
845.714	1421.46
845.898	1906.83
846.082	1192.09
846.266	1298.58
846.45	1462.42
846.634	1550.48
846.818	1257.62
847.002	1456.28
847.186	1605.78
847.37	1308.82
847.554	1208.47
847.738	1376.41
847.922	1689.74
848.106	1587.35
848.29	1224.86
848.473	1282.2
848.657	1681.55
848.841	1435.8
849.025	1312.92
849.209	1038.49
849.392	1605.78
849.576	1474.71
849.76	1028.25
849.944	1521.81
850.127	1790.1
850.311	1372.31
850.495	1093.79
850.678	1054.87
850.862	1757.33
851.046	1738.9
851.229	1476.76
851.413	1147.03
851.596	1415.32
851.78	1536.15
851.964	1388.69
852.147	1233.05
852.331	2224.26
852.514	1728.66
852.698	1314.97
852.881	1274.01
853.065	1720.46
853.248	1423.51
853.431	1403.03
853.615	1280.15
853.798	2125.96
853.982	1706.13
854.165	1269.91
854.348	1347.73
854.532	1382.55
854.715	1302.68
854.898	1235.1
855.081	1255.58
855.265	1855.63
855.448	1818.77
855.631	1185.94
855.814	1222.81
855.997	1726.61
856.181	1427.6
856.364	1388.69
856.547	1194.14
856.73	1577.11
856.913	1573.01
857.096	1126.55
857.279	1378.45
857.462	1317.01
857.645	1708.18
857.828	1507.48
858.011	1433.75
858.194	1396.89
858.377	1671.31
858.56	1114.27
858.743	1192.09
858.926	1333.4
859.109	1683.6
859.292	1165.46
859.475	1110.17
859.658	1872.01
859.841	1693.84
860.023	1147.03
860.206	1116.31
860.389	1659.03
860.572	1826.96
860.755	1280.15
860.937	1208.47
861.12	1550.48
861.303	1519.76
861.486	1228.95
861.668	1112.22
861.851	1609.87
862.034	1667.22
862.216	1374.36
862.399	1065.11
862.581	1489.04
862.764	1781.9
862.947	1253.53
863.129	1175.7
863.312	1257.62
863.494	1816.72
863.677	1585.3
863.859	993.44
864.042	1687.7
864.224	1822.86
864.406	1288.34
864.589	1034.39
864.771	1554.58
864.954	1396.89
865.136	1101.98
865.318	1063.07
865.501	1581.2
865.683	1075.35
865.865	1079.45
866.048	1306.77
866.23	1482.9
866.412	1538.2
866.594	1155.23
866.777	1394.84
866.959	1609.87
867.141	1394.84
867.323	1441.94
867.505	1312.92
867.687	1491.09
867.869	1642.64
868.052	1228.95
868.234	1093.79
868.416	1595.54
868.598	1706.13
868.78	1257.62
868.962	1130.65
869.144	1730.7
869.326	1687.7
869.508	1169.56
869.69	1128.6
869.872	1329.3
870.054	1794.19
870.236	1026.2
870.417	1173.66
870.599	1392.79
870.781	1865.87
870.963	1394.84
871.145	1132.7
871.327	1245.34
871.508	1724.56
871.69	1228.95
871.872	1177.75
872.054	1521.81
872.235	1595.54
872.417	1241.24
872.599	1259.67
872.78	1984.65
872.962	1468.56
873.144	1140.89
873.325	1282.2
873.507	1876.11
873.689	1663.12
873.87	1058.97
874.052	1413.27
874.233	1503.38
874.415	1685.65
874.596	1271.96
874.778	1210.52
874.959	1570.96
875.141	1783.95
875.322	1144.99
875.503	1214.62
875.685	1507.48
875.866	1175.7
876.048	1237.14
876.229	1204.38
876.41	1511.57
876.592	1699.98
876.773	1276.06
876.954	1028.25
877.136	1841.29
877.317	1521.81
877.498	1091.74
877.679	1394.84
877.86	1726.61
878.042	1439.89
878.223	1220.76
878.404	1558.67
878.585	1722.51
878.766	1970.32
878.947	1558.67
879.128	1458.32
879.309	1730.7
879.49	1861.77
879.672	1335.45
879.853	1300.63
880.034	1314.97
880.215	1497.24
880.396	1351.83
880.576	1144.99
880.757	1419.41
880.938	1835.15
881.119	1157.27
881.3	1290.39
881.481	1499.28
881.662	2484.36
881.843	1237.14
882.023	1274.01
882.204	1673.36
882.385	1626.26
882.566	1208.47
882.747	1216.66
882.927	1525.91
883.108	1675.41
883.289	1300.63
883.469	1476.76
883.65	1370.26
883.831	1681.55
884.011	1570.96
884.192	1376.41
884.373	1994.89
884.553	1685.65
884.734	1583.25
884.914	1546.39
885.095	2297.99
885.275	2019.47
885.456	1616.02
885.636	1247.38
885.817	1661.07
885.997	1740.94
886.178	1360.02
886.358	1446.04
886.538	1775.76
886.719	2627.71
886.899	1372.31
887.08	1515.67
887.26	1863.82
887.44	1511.57
887.621	1224.86
887.801	1353.88
887.981	2318.47
888.161	1912.97
888.342	1435.8
888.522	1269.91
888.702	1890.45
888.882	2070.67
889.062	1634.45
889.242	1292.44
889.423	2171.02
889.603	1798.29
889.783	1562.77
889.963	1456.28
890.143	1845.39
890.323	1990.8
890.503	1530
890.683	1558.67
890.863	1761.42
891.043	1728.66
891.223	1640.59
891.403	1728.66
891.583	1826.96
891.763	1890.45
891.943	1628.31
892.122	1550.48
892.302	1652.88
892.482	1695.89
892.662	1601.68
892.842	1681.55
893.022	1931.41
893.201	1583.25
893.381	1589.39
893.561	1521.81
893.741	1910.93
893.92	1939.6
894.1	1521.81
894.28	1532.05
894.459	1970.32
894.639	1955.98
894.819	1554.58
894.998	1685.65
895.178	1865.87
895.357	1849.49
895.537	1501.33
895.716	1403.03
895.896	1820.81
896.075	2085
896.255	1638.55
896.434	1339.54
896.614	1933.45
896.793	2134.15
896.973	1669.27
897.152	1675.41
897.331	1968.27
897.511	2011.28
897.69	1427.6
897.87	1523.86
898.049	1949.84
898.228	1851.53
898.407	1759.38
898.587	1669.27
898.766	1667.22
898.945	1851.53
899.124	1874.06
899.304	1648.79
899.483	1915.02
899.662	2336.9
899.841	1456.28
900.02	1527.96
900.199	2013.32
900.378	1982.6
900.557	1370.26
900.737	1425.56
900.916	1865.87
901.095	1990.8
901.274	1761.42
901.453	1456.28
901.632	1552.53
901.811	1699.98
901.989	1558.67
902.168	1476.76
902.347	2105.48
902.526	1726.61
902.705	1609.87
902.884	1699.98
903.063	2158.73
903.242	2175.11
903.42	1556.63
903.599	1720.46
903.778	2001.04
903.957	2189.45
904.135	1732.75
904.314	1661.07
904.493	1839.25
904.672	1857.68
904.85	1605.78
905.029	1587.35
905.207	2005.13
905.386	2472.07
905.565	1499.28
905.743	1544.34
905.922	1777.81
906.1	1992.84
906.279	1456.28
906.457	1554.58
906.636	1767.57
906.814	1812.62
906.993	1464.47
907.171	1462.42
907.35	1933.45
907.528	2119.82
907.707	1872.01
907.885	1462.42
908.063	2216.07
908.242	1583.25
908.42	1536.15
908.598	1345.69
908.777	1988.75
908.955	1749.14
909.133	1609.87
909.311	1409.17
909.49	1722.51
909.668	1699.98
909.846	1423.51
910.024	1339.54
910.202	1745.04
910.38	1855.63
910.559	1509.52
910.737	1540.24
910.915	1790.1
911.093	1896.59
911.271	1478.8
911.449	1763.47
911.627	1859.73
911.805	2220.17
911.983	1454.23
912.161	1474.71
912.339	1894.54
912.517	2099.34
912.695	1613.97
912.872	1552.53
913.05	1609.87
913.228	1806.48
913.406	1540.24
913.584	1411.22
913.762	1915.02
913.939	1654.93
914.117	1425.56
914.295	1431.7
914.473	1929.36
914.65	1939.6
914.828	1562.77
915.006	1489.04
915.184	1392.79
915.361	1888.4
915.539	1638.55
915.716	1634.45
915.894	1753.23
916.072	1786
916.249	1683.6
916.427	1669.27
916.604	1523.86
916.782	1814.67
916.959	1235.1
917.137	1364.12
917.314	1773.71
917.492	1751.18
917.669	1587.35
917.847	1663.12
918.024	1753.23
918.201	1521.81
918.379	1521.81
918.556	1482.9
918.733	1955.98
918.911	1570.96
919.088	1626.26
919.265	1362.07
919.442	1675.41
919.62	1654.93
919.797	1288.34
919.974	1341.59
920.151	1679.51
920.328	1644.69
920.506	1345.69
920.683	1489.04
920.86	1290.39
921.037	1435.8
921.214	1384.6
921.391	1376.41
921.568	1794.19
921.745	1472.66
921.922	1464.47
922.099	1310.87
922.276	1826.96
922.453	1861.77
922.63	1362.07
922.807	1693.84
922.984	1609.87
923.161	1462.42
923.338	1435.8
923.514	1331.35
923.691	1568.91
923.868	1675.41
924.045	1325.21
924.222	1364.12
924.399	1716.37
924.575	1898.64
924.752	1448.08
924.929	1390.74
925.105	1697.94
925.282	1347.73
925.459	1411.22
925.635	1243.29
925.812	1607.83
925.989	1349.78
926.165	1458.32
926.342	1052.83
926.518	1282.2
926.695	1499.28
926.871	1304.73
927.048	1187.99
927.224	1626.26
927.401	1431.7
927.577	1446.04
927.754	1265.82
927.93	1753.23
928.107	1726.61
928.283	1204.38
928.459	1497.24
928.636	1626.26
928.812	1392.79
928.988	1216.66
929.165	1079.45
929.341	1538.2
929.517	1468.56
929.693	1581.2
929.87	975
930.046	1570.96
930.222	1384.6
930.398	1138.84
930.574	1429.65
930.751	1509.52
930.927	1388.69
931.103	1323.16
931.279	1286.3
931.455	1231
931.631	1462.42
931.807	989.34
931.983	938.14
932.159	1167.51
932.335	1421.46
932.511	1204.38
932.687	1237.14
932.863	1394.84
933.039	1292.44
933.215	1015.96
933.391	901.28
933.566	1314.97
933.742	1333.4
933.918	1056.92
934.094	993.44
934.27	1314.97
934.445	1263.77
934.621	1192.09
934.797	966.81
934.973	1413.27
935.148	1405.08
935.324	1009.82
935.5	712.86
935.675	1523.86
935.851	1310.87
936.027	1040.54
936.202	1022.11
936.378	1294.49
936.553	1122.46
936.729	1421.46
936.904	825.5
937.08	755.87
937.255	917.66
937.431	790.69
937.606	655.52
937.782	929.95
937.957	1187.99
938.133	987.29
938.308	790.69
938.483	995.48
938.659	901.28
938.834	891.04
939.009	733.34
939.185	995.48
939.36	805.02
939.535	456.87
939.71	807.07
939.886	1228.95
940.061	1165.46
940.236	927.9
940.411	698.53
940.586	993.44
940.761	1011.87
940.937	759.97
941.112	555.17
941.287	880.8
941.462	964.76
941.637	563.36
941.812	649.38
941.987	958.62
942.162	837.79
942.337	719.01
942.512	684.19
942.687	1126.55
942.862	1026.2
943.037	475.3
943.212	225.45
943.386	774.3
943.561	827.55
943.736	729.25
943.911	911.52
944.086	915.61
944.26	866.46
944.435	618.66
944.61	585.89
944.785	1138.84
944.959	1130.65
945.134	612.51
945.309	487.59
945.483	635.04
945.658	1124.51
945.833	403.62
946.007	467.11
946.182	1216.66
946.357	532.64
946.531	483.49
946.706	454.82
946.88	409.76
947.055	798.88
947.229	471.2
947.404	440.48
947.578	1026.2
947.752	620.71
947.927	473.25
948.101	393.38
948.276	925.85
948.45	809.12
948.624	694.43
948.799	506.02
948.973	839.84
949.147	540.83
949.321	561.31
949.496	569.51
949.67	1079.45
949.844	721.06
950.018	536.74
950.193	624.8
950.367	1364.12
950.541	772.25
950.715	710.82
950.889	690.34
951.063	694.43
951.237	932
951.411	436.39
951.585	391.33
951.759	837.79
951.933	774.3
952.107	510.11
952.281	702.62
952.455	1159.32
952.629	1022.11
952.803	499.88
952.977	532.64
953.151	1001.63
953.325	929.95
953.499	694.43
953.672	415.91
953.846	557.22
954.02	712.86
954.194	497.83
954.368	551.07
954.541	874.65
954.715	655.52
954.889	655.52
955.062	452.77
955.236	794.78
955.41	702.62
955.583	688.29
955.757	348.33
955.93	637.09
956.104	544.93
956.278	549.03
956.451	585.89
956.625	923.8
956.798	1200.28
956.972	823.45
957.145	530.59
957.319	706.72
957.492	757.92
957.665	659.62
957.839	465.06
958.012	940.19
958.185	561.31
958.359	620.71
958.532	747.68
958.705	989.34
958.879	800.93
959.052	657.57
959.225	317.61
959.398	731.3
959.572	778.4
959.745	473.25
959.918	546.98
960.091	653.47
960.264	790.69
960.438	469.16
960.611	448.68
960.784	1007.77
960.957	538.79
961.13	923.8
961.303	442.53
961.476	747.68
961.649	964.76
961.822	413.86
961.995	528.55
962.168	864.41
962.341	788.64
962.514	565.41
962.686	495.78
962.859	807.07
963.032	893.09
963.205	522.4
963.378	245.93
963.551	782.49
963.723	811.17
963.896	549.03
964.069	626.85
964.242	669.86
964.414	878.75
964.587	612.51
964.76	651.42
964.932	831.65
965.105	686.24
965.278	569.51
965.45	450.72
965.623	815.26
965.795	852.13
965.968	450.72
966.14	581.79
966.313	643.23
966.485	778.4
966.658	526.5
966.83	428.2
967.003	960.67
967.175	979.1
967.348	452.77
967.52	487.59
967.692	1061.02
967.865	911.52
968.037	528.55
968.209	897.18
968.382	856.22
968.554	983.2
968.726	626.85
968.898	448.68
969.071	757.92
969.243	841.89
969.415	692.38
969.587	563.36
969.759	1271.96
969.932	925.85
970.104	530.59
970.276	243.88
970.448	639.14
970.62	626.85
970.792	669.86
970.964	506.02
971.136	1198.23
971.308	821.41
971.48	440.48
971.652	510.11
971.824	1185.94
971.996	649.38
972.168	514.21
972.339	610.47
972.511	919.71
972.683	628.9
972.855	759.97
973.027	514.21
973.199	714.91
973.37	893.09
973.542	594.08
973.714	686.24
973.886	702.62
974.057	1046.68
974.229	434.34
974.401	497.83
974.572	563.36
974.744	336.04
974.915	340.13
975.087	309.41
975.259	1050.78
975.43	608.42
975.602	524.45
975.773	467.11
975.945	589.99
976.116	925.85
976.288	448.68
976.459	575.65
976.63	727.2
976.802	852.13
976.973	489.64
977.145	585.89
977.316	1136.79
977.487	721.06
977.659	643.23
977.83	508.07
978.001	1093.79
978.172	864.41
978.344	430.24
978.515	587.94
978.686	569.51
978.857	1079.45
979.028	489.64
979.2	442.53
979.371	860.32
979.542	727.2
979.713	690.34
979.884	135.34
980.055	450.72
980.226	723.1
980.397	424.1
980.568	268.45
980.739	919.71
980.91	622.75
981.081	596.13
981.252	401.57
981.423	872.61
981.594	893.09
981.765	377
981.936	577.7
982.106	708.77
982.277	917.66
982.448	432.29
982.619	669.86
982.79	561.31
982.96	972.96
983.131	495.78
983.302	180.39
983.472	618.66
983.643	759.97
983.814	471.2
983.984	428.2
984.155	575.65
984.326	835.74
984.496	563.36
984.667	442.53
984.837	512.16
985.008	970.91
985.178	643.23
985.349	499.88
985.519	684.19
985.69	549.03
985.86	503.97
986.031	333.99
986.201	663.71
986.371	858.27
986.542	377
986.712	270.5
986.882	723.1
987.053	776.35
987.223	309.41
987.393	571.55
987.563	422.05
987.734	841.89
987.904	645.28
988.074	381.09
988.244	700.58
988.414	473.25
988.585	352.42
988.755	446.63
988.925	608.42
989.095	995.48
989.265	387.24
989.435	424.1
989.605	837.79
989.775	815.26
989.945	710.82
990.115	319.65
990.285	630.95
990.455	768.16
990.625	630.95
990.795	446.63
990.965	1069.21
991.134	465.06
991.304	331.94
991.474	448.68
991.644	735.39
991.814	1067.16
991.984	297.13
992.153	387.24
992.323	630.95
992.493	493.73
992.662	86.19
992.832	577.7
993.002	561.31
993.171	848.03
993.341	192.68
993.511	467.11
993.68	481.44
993.85	749.73
994.019	186.54
994.189	260.26
994.358	669.86
994.528	485.54
994.697	114.86
994.867	282.79
995.036	815.26
995.206	516.26
995.375	241.83
995.544	475.3
995.714	657.57
995.883	440.48
996.052	377
996.222	63.66
996.391	1032.35
996.56	614.56
996.73	170.15
996.899	110.76
997.068	938.14
997.237	630.95
997.406	217.26
997.576	45.23
997.745	647.33
997.914	678.05
998.083	55.47
998.252	315.56
998.421	628.9
998.59	426.15
998.759	209.06
998.928	123.05
999.097	798.88
999.266	602.27
999.435	458.92
999.604	49.32
999.773	1061.02
999.942	479.4
1000.111	30.89
1000.28	108.71
1000.448	307.37
1000.617	387.24
1000.786	368.81
1000.955	250.02
1001.124	606.37
1001.292	1124.51
1001.461	145.58
1001.63	258.21
1001.798	817.31
1001.967	878.75
1002.136	59.56
1002.304	102.57
1002.473	622.75
1002.642	647.33
1002.81	272.55
1002.979	155.82
1003.147	624.8
1003.316	1124.51
1003.484	118.95
1003.653	94.38
1003.821	905.37
1003.99	514.21
1004.158	387.24
1004.327	274.6
1004.495	667.81
1004.663	360.61
1004.832	221.35
1005	43.18
1005.168	635.04
1005.337	553.12
1005.505	82.09
1005.673	405.67
1005.842	628.9
1006.01	594.08
1006.178	59.56
1006.346	147.62
1006.514	624.8
1006.683	721.06
1006.851	235.69
1007.019	61.61
1007.187	471.2
1007.355	37.03
1007.523	20.65
1007.691	86.19
1007.859	145.58
1008.027	880.8
1008.195	131.24
1008.363	86.19
1008.531	716.96
1008.699	295.08
1008.867	80.04
1009.035	184.49
1009.203	798.88
1009.37	534.69
1009.538	186.54
1009.706	563.36
1009.874	514.21
1010.042	452.77
1010.209	39.08
1010.377	45.23
1010.545	659.62
1010.713	624.8
1010.88	75.95
1011.048	237.74
1011.216	471.2
1011.383	778.4
1011.551	45.23
1011.718	57.51
1011.886	673.95
1012.054	471.2
1012.221	47.27
1012.389	71.85
1012.556	336.04
1012.724	905.37
1012.891	172.2
1013.058	-108.37
1013.226	610.47
1013.393	624.8
1013.561	12.46
1013.728	-22.36
1013.895	692.38
1014.063	620.71
1014.23	71.85
1014.397	39.08
1014.565	643.23
1014.732	319.65
1014.899	100.52
1015.066	69.8
1015.233	555.17
1015.401	628.9
1015.568	155.82
1015.735	157.86
1015.902	428.2
1016.069	493.73
1016.236	176.3
1016.403	12.46
1016.57	221.35
1016.737	573.6
1016.904	123.05
1017.071	6.31
1017.238	237.74
1017.405	682.14
1017.572	69.8
1017.739	272.55
1017.906	536.74
1018.073	614.56
1018.24	49.32
1018.407	69.8
1018.573	757.92
1018.74	387.24
1018.907	125.1
1019.074	-81.75
1019.241	639.14
1019.407	374.95
1019.574	4.27
1019.741	-85.84
1019.907	415.91
1020.074	569.51
1020.241	-128.85
1020.407	-28.5
1020.574	448.68
1020.74	522.4
1020.907	34.99
1021.073	-5.97
1021.24	970.91
1021.406	733.34
1021.573	-8.02
1021.739	49.32
1021.906	663.71
1022.072	331.94
1022.239	118.95
1022.405	65.71
1022.571	456.87
1022.738	231.59
1022.904	-57.17
1023.07	106.67
1023.237	512.16
1023.403	731.3
1023.569	-18.26
1023.735	102.57
1023.902	479.4
1024.068	495.78
1024.234	-67.41
1024.4	69.8
1024.566	514.21
1024.732	514.21
1024.898	-3.93
1025.065	-118.61
1025.231	563.36
1025.397	364.71
1025.563	37.03
1025.729	-48.98
1025.895	41.13
1026.061	137.38
1026.227	-102.23
1026.392	43.18
1026.558	671.9
1026.724	608.42
1026.89	-20.31
1027.056	49.32
1027.222	512.16
1027.388	331.94
1027.553	22.7
1027.719	-1.88
1027.885	770.21
1028.051	473.25
1028.216	-173.91
1028.382	92.33
1028.548	540.83
1028.713	235.69
1028.879	-114.52
1029.045	90.28
1029.21	694.43
1029.376	628.9
1029.541	61.61
1029.707	90.28
1029.873	479.4
1030.038	475.3
1030.204	16.55
1030.369	32.94
1030.534	622.75
1030.7	280.74
1030.865	14.51
1031.031	-42.84
1031.196	501.92
1031.361	405.67
1031.527	65.71
1031.692	-102.23
1031.857	39.08
1032.023	465.06
1032.188	-3.93
1032.353	69.8
1032.518	735.39
1032.684	364.71
1032.849	-208.72
1033.014	63.66
1033.179	549.03
1033.344	503.97
1033.509	51.37
1033.674	-34.64
1033.839	557.22
1034.004	475.3
1034.17	-32.6
1034.335	-61.27
1034.5	184.49
1034.664	170.15
1034.829	-112.47
1034.994	10.41
1035.159	333.99
1035.324	475.3
1035.489	82.09
1035.654	-32.6
1035.819	692.38
1035.984	483.49
1036.148	18.6
1036.313	-28.5
1036.478	540.83
1036.643	430.24
1036.807	28.84
1036.972	-139.09
1037.137	725.15
1037.301	389.28
1037.466	-157.52
1037.631	88.23
1037.795	594.08
1037.96	383.14
1038.124	135.34
1038.289	-112.47
1038.454	450.72
1038.618	487.59
1038.783	-32.6
1038.947	61.61
1039.111	327.85
1039.276	211.11
1039.44	-59.22
1039.605	493.73
1039.769	290.98
1039.933	395.43
1040.098	45.23
1040.262	229.54
1040.426	573.6
1040.591	485.54
1040.755	-44.88
1040.919	-100.18
1041.083	475.3
1041.248	331.94
1041.412	-221.01
1041.576	-53.08
1041.74	223.4
1041.904	452.77
1042.068	-57.17
1042.232	-16.21
1042.397	508.07
1042.561	397.48
1042.725	-190.29
1042.889	106.67
1043.053	489.64
1043.217	485.54
1043.381	77.99
1043.544	-274.26
1043.708	561.31
1043.872	65.71
1044.036	-321.36
1044.2	-163.67
1044.364	659.62
1044.528	626.85
1044.691	4833.38
1044.855	-175.95
1045.019	585.89
1045.183	385.19
1045.346	41.13
1045.51	-108.37
1045.674	495.78
1045.837	432.29
1046.001	-5.97
1046.165	-110.42
1046.328	792.73
1046.492	501.92
1046.655	139.43
1046.819	-53.08
1046.983	215.21
1047.146	434.34
1047.31	-73.56
1047.473	-149.33
1047.636	331.94
1047.8	131.24
1047.963	6.31
1048.127	-102.23
1048.29	77.99
