Data from Ink_Intensity_USB4F045381__120__00120.txt Node

Date: Mon Jul 17 11:11:36 EDT 2023
User: mmckonesweet
Spectrometer: USB4F04538
Trigger mode: 4
Integration Time (sec): 9.000000E-1
Scans to average: 1
Electric dark correction enabled: true
Nonlinearity correction enabled: false
Boxcar width: 0
XAxis mode: Wavelengths
Number of Pixels in Spectrum: 3648
>>>>>Begin Spectral Data<<<<<
345.52	-1026.71
345.736	-1026.71
345.952	-1026.71
346.168	-985.76
346.384	-1006.24
346.6	-105.13
346.816	-223.91
347.032	-211.62
347.248	275.79
347.464	-273.06
347.68	-86.7
347.896	34.13
348.112	359.76
348.328	-82.6
348.544	-107.18
348.76	54.61
348.975	365.9
349.191	-164.52
349.407	-195.24
349.623	-2.73
349.839	13.65
350.055	-117.42
350.27	60.76
350.486	173.39
350.702	337.23
350.918	251.22
351.133	-228.01
351.349	126.29
351.565	429.39
351.781	-275.11
351.996	-47.79
352.212	257.36
352.428	-94.89
352.644	-170.66
352.859	-176.81
353.075	314.7
353.291	60.76
353.506	-185
353.722	-260.77
353.938	-160.42
354.153	488.78
354.369	95.57
354.584	-246.44
354.8	245.07
355.016	-209.58
355.231	-238.25
355.447	-117.42
355.662	34.13
355.878	714.06
356.093	-344.74
356.309	32.08
356.524	-213.67
356.74	185.68
356.955	-215.72
357.171	-66.22
357.386	191.83
357.602	-203.43
357.817	-121.51
358.033	-152.23
358.248	419.15
358.464	189.78
358.679	-193.19
358.895	-291.49
359.11	34.13
359.325	214.35
359.541	44.37
359.756	11.61
359.972	-293.54
360.187	216.4
360.402	-154.28
360.618	-250.53
360.833	1027.4
361.048	193.87
361.264	-162.47
361.479	-68.27
361.694	-19.11
361.909	189.78
362.125	-205.48
362.34	-58.03
362.555	273.75
362.77	109.91
362.986	-297.64
363.201	-166.57
363.416	243.03
363.631	91.48
363.847	-168.62
364.062	-209.58
364.277	179.54
364.492	71
364.707	-96.94
364.922	-291.49
365.138	253.27
365.353	333.14
365.568	-240.29
365.783	-170.66
365.998	21.85
366.213	593.23
366.428	-215.72
366.643	25.94
366.858	243.03
367.073	222.55
367.288	-111.27
367.503	-307.88
367.718	105.81
367.933	267.6
368.148	-295.59
368.363	-96.94
368.578	-39.59
368.793	329.04
369.008	-158.38
369.223	-240.29
369.438	275.79
369.653	388.43
369.868	-307.88
370.083	-211.62
370.298	3.41
370.513	398.67
370.728	58.71
370.943	-254.63
371.157	-195.24
371.372	513.36
371.587	-287.4
371.802	-266.92
372.017	159.06
372.232	423.25
372.446	-111.27
372.661	-207.53
372.876	265.55
373.091	232.79
373.306	-129.7
373.52	-215.72
373.735	-258.73
373.95	462.16
374.165	-88.75
374.379	-125.61
374.594	25.94
374.809	95.57
375.023	21.85
375.238	-242.34
375.453	296.27
375.667	-199.34
375.882	-146.09
376.097	-221.86
376.311	34.13
376.526	3.41
376.741	-225.96
376.955	165.2
377.17	609.61
377.384	537.93
377.599	-62.12
377.813	-244.39
378.028	601.42
378.242	193.87
378.457	-117.42
378.672	-223.91
378.886	11.61
379.101	-39.59
379.315	-301.73
379.53	-215.72
379.744	206.16
379.958	173.39
380.173	-78.51
380.387	-178.86
380.602	157.01
380.816	-119.46
381.031	-158.38
381.245	-121.51
381.459	216.4
381.674	2721.07
381.888	-111.27
382.103	95.57
382.317	-180.9
382.531	513.36
382.746	-53.93
382.96	-176.81
383.174	-72.36
383.388	468.3
383.603	52.56
383.817	-213.67
384.031	128.34
384.246	490.83
384.46	1.37
384.674	296.27
384.888	85.33
385.103	64.85
385.317	-252.58
385.531	-84.65
385.745	345.42
385.959	320.85
386.174	-144.04
386.388	-242.34
386.602	-2.73
386.816	-80.55
387.03	-139.94
387.244	-68.27
387.458	7.51
387.672	406.86
387.887	-258.73
388.101	-238.25
388.315	335.18
388.529	214.35
388.743	-101.03
388.957	-209.58
389.171	361.81
389.385	-201.38
389.599	-88.75
389.813	64.85
390.027	245.07
390.241	669
390.455	-96.94
390.669	-129.7
390.883	-111.27
391.097	404.82
391.311	-31.4
391.525	-146.09
391.738	136.53
391.952	150.87
392.166	17.75
392.38	-189.1
392.594	195.92
392.808	367.95
393.022	-15.02
393.236	-109.22
393.449	222.55
393.663	169.3
393.877	-305.83
394.091	-170.66
394.305	-113.32
394.518	-90.79
394.732	-232.1
394.946	-152.23
395.16	447.82
395.373	99.67
395.587	-242.34
395.801	-162.47
396.015	222.55
396.228	179.54
396.442	-234.15
396.656	-324.26
396.869	333.14
397.083	447.82
397.297	-197.29
397.51	-164.52
397.724	410.96
397.938	124.24
398.151	-279.21
398.365	-213.67
398.578	173.39
398.792	298.32
399.005	-76.46
399.219	-101.03
399.433	111.96
399.646	193.87
399.86	-0.68
400.073	-21.16
400.287	171.35
400.5	-39.59
400.714	-105.13
400.927	-45.74
401.141	253.27
401.354	1092.93
401.567	177.49
401.781	-223.91
401.994	277.84
402.208	615.76
402.421	-187.05
402.635	-94.89
402.848	52.56
403.061	351.57
403.275	-12.97
403.488	-185
403.701	480.59
403.915	185.68
404.128	66.9
404.341	-187.05
404.555	152.92
404.768	-6.83
404.981	-19.11
405.195	-170.66
405.408	476.49
405.621	197.97
405.834	83.28
406.048	-236.2
406.261	378.19
406.474	525.65
406.687	-176.81
406.9	-17.07
407.114	87.38
407.327	212.31
407.54	-250.53
407.753	-242.34
407.966	-92.84
408.179	263.51
408.392	-209.58
408.605	-244.39
408.819	150.87
409.032	226.64
409.245	-195.24
409.458	50.52
409.671	171.35
409.884	296.27
410.097	-232.1
410.31	17.75
410.523	265.55
410.736	-29.35
410.949	-88.75
411.162	-98.99
411.375	415.06
411.588	302.42
411.801	52.56
412.014	-168.62
412.227	30.04
412.44	-60.07
412.653	-133.8
412.865	13.65
413.078	304.46
413.291	218.45
413.504	-103.08
413.717	-238.25
413.93	286.03
414.143	-197.29
414.356	-107.18
414.568	-293.54
414.781	271.7
414.994	111.96
415.207	-90.79
415.42	-123.56
415.632	316.75
415.845	462.16
416.058	-199.34
416.271	-176.81
416.483	91.48
416.696	578.89
416.909	-158.38
417.121	-109.22
417.334	243.03
417.547	470.35
417.759	-201.38
417.972	-156.33
418.185	-129.7
418.397	222.55
418.61	-195.24
418.823	-148.14
419.035	431.44
419.248	99.67
419.46	-103.08
419.673	-72.36
419.885	208.21
420.098	114
420.311	-152.23
420.523	-375.46
420.736	200.02
420.948	17.75
421.161	-209.58
421.373	-287.4
421.586	77.14
421.798	-31.4
422.01	-244.39
422.223	-70.31
422.435	3.41
422.648	226.64
422.86	-187.05
423.073	-154.28
423.285	310.61
423.497	-131.75
423.71	-189.1
423.922	-289.45
424.134	103.76
424.347	496.97
424.559	-25.26
424.771	50.52
424.984	15.7
425.196	275.79
425.408	-248.49
425.621	-248.49
425.833	263.51
426.045	314.7
426.257	-273.06
426.47	-182.95
426.682	132.44
426.894	240.98
427.106	-105.13
427.318	-164.52
427.531	-88.75
427.743	263.51
427.955	-121.51
428.167	236.88
428.379	283.99
428.591	1.37
428.804	-70.31
429.016	-221.86
429.228	-45.74
429.44	97.62
429.652	23.89
429.864	-309.93
430.076	25.94
430.288	50.52
430.5	-125.61
430.712	-191.14
430.924	288.08
431.136	152.92
431.348	-232.1
431.56	-238.25
431.772	118.1
431.984	-68.27
432.196	-178.86
432.408	-166.57
432.62	-4.78
432.832	99.67
433.044	27.99
433.256	-19.11
433.468	238.93
433.679	-199.34
433.891	-178.86
434.103	-80.55
434.315	398.67
434.527	206.16
434.739	-74.41
434.95	-55.98
435.162	243.03
435.374	11.61
435.586	-101.03
435.798	-146.09
436.009	-236.2
436.221	-0.68
436.433	-133.8
436.645	-182.95
436.856	-103.08
437.068	300.37
437.28	-137.9
437.491	97.62
437.703	261.46
437.915	253.27
438.126	-113.32
438.338	-21.16
438.55	-25.26
438.761	208.21
438.973	-150.18
439.184	-109.22
439.396	42.32
439.608	234.83
439.819	-252.58
440.031	-76.46
440.242	310.61
440.454	214.35
440.665	-135.85
440.877	-45.74
441.088	251.22
441.3	73.04
441.511	-301.73
441.723	-256.68
441.934	144.72
442.146	85.33
442.357	-23.21
442.569	87.38
442.78	107.86
442.991	447.82
443.203	210.26
443.414	-250.53
443.626	406.86
443.837	-45.74
444.048	-289.45
444.26	-291.49
444.471	144.72
444.682	251.22
444.894	-322.21
445.105	-244.39
445.316	357.71
445.528	224.59
445.739	-113.32
445.95	-107.18
446.161	161.11
446.373	349.52
446.584	-139.94
446.795	-160.42
447.006	214.35
447.217	449.87
447.429	-232.1
447.64	-250.53
447.851	294.22
448.062	144.72
448.273	-311.97
448.484	-207.53
448.695	240.98
448.907	-35.5
449.118	-109.22
449.329	42.32
449.54	17.75
449.751	-105.13
449.962	-197.29
450.173	-168.62
450.384	329.04
450.595	345.42
450.806	-193.19
451.017	-111.27
451.228	320.85
451.439	320.85
451.65	-201.38
451.861	-344.74
452.072	-131.75
452.283	107.86
452.494	50.52
452.705	-160.42
452.915	501.07
453.126	128.34
453.337	-45.74
453.548	-207.53
453.759	333.14
453.97	537.93
454.181	165.2
454.391	-156.33
454.602	107.86
454.813	204.11
455.024	21.85
455.235	-105.13
455.445	167.25
455.656	234.83
455.867	-53.93
456.078	-162.47
456.288	-6.83
456.499	257.36
456.71	-176.81
456.921	169.3
457.131	152.92
457.342	87.38
457.553	-51.88
457.763	-45.74
457.974	263.51
458.184	249.17
458.395	-223.91
458.606	-250.53
458.816	374.1
459.027	503.12
459.237	-0.68
459.448	-305.83
459.659	472.4
459.869	585.04
460.08	-318.12
460.29	-8.87
460.501	527.69
460.711	-84.65
460.922	-318.12
461.132	-152.23
461.343	755.02
461.553	-160.42
461.764	-144.04
461.974	-137.9
462.184	279.89
462.395	202.07
462.605	-90.79
462.816	-197.29
463.026	171.35
463.236	365.9
463.447	-182.95
463.657	-203.43
463.867	275.79
464.078	75.09
464.288	-70.31
464.498	-197.29
464.709	101.72
464.919	1.37
465.129	-135.85
465.339	-236.2
465.55	253.27
465.76	300.37
465.97	-105.13
466.18	-96.94
466.391	357.71
466.601	247.12
466.811	-43.69
467.021	-225.96
467.231	204.11
467.441	398.67
467.651	-19.11
467.862	-301.73
468.072	30.04
468.282	435.53
468.492	-105.13
468.702	-64.17
468.912	34.13
469.122	662.86
469.332	126.29
469.542	-180.9
469.752	218.45
469.962	195.92
470.172	-236.2
470.382	-168.62
470.592	263.51
470.802	372.05
471.012	40.28
471.222	-168.62
471.432	398.67
471.642	320.85
471.852	-23.21
472.062	-117.42
472.272	95.57
472.482	-72.36
472.691	-207.53
472.901	-156.33
473.111	228.69
473.321	730.44
473.531	-96.94
473.741	1.37
473.95	279.89
474.16	329.04
474.37	-29.35
474.58	-228.01
474.79	550.22
474.999	294.22
475.209	-211.62
475.419	-53.93
475.628	124.24
475.838	423.25
476.048	-53.93
476.258	-246.44
476.467	482.64
476.677	19.8
476.886	116.05
477.096	7.51
477.306	34.13
477.515	580.94
477.725	-43.69
477.935	-15.02
478.144	437.58
478.354	93.52
478.563	-0.68
478.773	-68.27
478.982	349.52
479.192	496.97
479.401	54.61
479.611	-111.27
479.82	62.8
480.03	310.61
480.239	-49.83
480.449	-185
480.658	599.37
480.868	30.04
481.077	7.51
481.287	60.76
481.496	419.15
481.705	576.84
481.915	243.03
482.124	345.42
482.333	294.22
482.543	560.46
482.752	58.71
482.961	36.18
483.171	421.2
483.38	267.6
483.589	109.91
483.799	-12.97
484.008	146.77
484.217	374.1
484.426	34.13
484.636	-88.75
484.845	337.23
485.054	-25.26
485.263	318.8
485.472	-45.74
485.682	689.48
485.891	406.86
486.1	-144.04
486.309	-29.35
486.518	390.48
486.727	574.8
486.936	-74.41
487.146	197.97
487.355	681.29
487.564	44.37
487.773	46.42
487.982	-2.73
488.191	161.11
488.4	329.04
488.609	36.18
488.818	103.76
489.027	806.22
489.236	656.72
489.445	148.82
489.654	44.37
489.863	623.95
490.072	324.94
490.281	464.21
490.49	79.19
490.698	724.3
490.907	783.69
491.116	116.05
491.325	-6.83
491.534	707.91
491.743	474.45
491.952	152.92
492.16	85.33
492.369	513.36
492.578	609.61
492.787	279.89
492.996	75.09
493.204	247.12
493.413	832.84
493.622	-74.41
493.831	-27.31
494.039	853.32
494.248	183.63
494.457	140.63
494.665	-6.83
494.874	587.08
495.083	877.9
495.291	193.87
495.5	101.72
495.709	595.28
495.917	410.96
496.126	259.41
496.335	91.48
496.543	329.04
496.752	533.84
496.96	324.94
497.169	-21.16
497.377	523.6
497.586	693.58
497.794	312.66
498.003	-58.03
498.211	370
498.42	912.71
498.628	234.83
498.837	68.95
499.045	550.22
499.254	511.31
499.462	189.78
499.671	169.3
499.879	947.53
500.087	640.33
500.296	132.44
500.504	265.55
500.713	554.32
500.921	951.62
501.129	255.31
501.338	191.83
501.546	630.09
501.754	529.74
501.962	152.92
502.171	120.15
502.379	669
502.587	910.66
502.795	324.94
503.004	208.21
503.212	505.17
503.42	871.75
503.628	202.07
503.837	288.08
504.045	685.39
504.253	968.01
504.461	163.15
504.669	118.1
504.877	742.73
505.085	947.53
505.294	185.68
505.502	355.66
505.71	673.1
505.918	769.35
506.126	216.4
506.334	267.6
506.542	492.88
506.75	644.43
506.958	435.53
507.166	423.25
507.374	413.01
507.582	1027.4
507.79	531.79
507.998	257.36
508.206	599.37
508.414	607.56
508.622	265.55
508.83	341.33
509.037	953.67
509.245	585.04
509.453	253.27
509.661	181.59
509.869	599.37
510.077	488.78
510.285	404.82
510.492	17.75
510.7	1195.33
510.908	611.66
511.116	361.81
511.324	380.24
511.531	527.69
511.739	640.33
511.947	486.73
512.155	609.61
512.362	669
512.57	445.77
512.778	267.6
512.985	161.11
513.193	886.09
513.401	994.63
513.608	398.67
513.816	376.14
514.024	841.03
514.231	920.9
514.439	322.9
514.646	429.39
514.854	902.47
515.061	927.05
515.269	378.19
515.477	361.81
515.684	521.55
515.892	961.86
516.099	267.6
516.307	320.85
516.514	920.9
516.722	1113.41
516.929	464.21
517.136	353.62
517.344	1094.98
517.551	781.64
517.759	353.62
517.966	578.89
518.173	675.15
518.381	771.4
518.588	515.41
518.796	374.1
519.003	1019.21
519.21	771.4
519.418	519.5
519.625	771.4
519.832	779.59
520.039	914.76
520.247	349.52
520.454	365.9
520.661	1015.11
520.868	951.62
521.076	582.99
521.283	599.37
521.49	1408.32
521.697	972.1
521.904	578.89
522.112	572.75
522.319	1082.69
522.526	910.66
522.733	456.01
522.94	445.77
523.147	816.46
523.354	1013.06
523.561	380.24
523.768	732.49
523.975	1008.97
524.183	912.71
524.39	605.52
524.597	542.03
524.804	931.14
525.011	771.4
525.218	550.22
525.425	615.76
525.632	1191.24
525.838	703.82
526.045	623.95
526.252	587.08
526.459	1959.22
526.666	1715.52
526.873	658.76
527.08	617.8
527.287	1301.83
527.494	1111.36
527.701	568.65
527.907	650.57
528.114	1080.64
528.321	888.14
528.528	687.43
528.735	644.43
528.941	830.79
529.148	834.89
529.355	810.31
529.562	585.04
529.768	1320.26
529.975	898.38
530.182	920.9
530.388	591.18
530.595	1297.73
530.802	771.4
531.008	927.05
531.215	767.31
531.422	1469.76
531.628	1844.54
531.835	820.55
532.042	890.18
532.248	912.71
532.455	1074.5
532.661	808.27
532.868	722.25
533.074	1193.28
533.281	1383.74
533.487	836.94
533.694	726.35
533.9	830.79
534.107	1240.39
534.313	732.49
534.52	705.87
534.726	1375.55
534.933	1543.49
535.139	820.55
535.345	654.67
535.552	1307.97
535.758	1267.01
535.965	884.04
536.171	812.36
536.377	1436.99
536.584	1471.81
536.79	873.8
536.996	957.77
537.203	1307.97
537.409	1221.95
537.615	951.62
537.821	1002.82
538.028	1410.37
538.234	1344.83
538.44	968.01
538.646	1029.45
538.853	1369.41
539.059	1213.76
539.265	1295.68
539.471	722.25
539.677	1344.83
539.883	1228.1
540.09	931.14
540.296	1430.85
540.502	1314.11
540.708	1103.17
540.914	1054.02
541.12	912.71
541.326	1484.09
541.532	1228.1
541.738	1045.83
541.944	1054.02
542.15	1498.43
542.356	1303.87
542.562	1017.16
542.768	1111.36
542.974	1860.92
543.18	1842.49
543.386	1054.02
543.592	810.31
543.798	1776.95
544.004	1619.26
544.21	984.39
544.415	1099.08
544.621	1488.19
544.827	1537.34
545.033	1041.73
545.239	1238.34
545.445	1129.8
545.651	1580.35
545.856	1101.12
546.062	1049.93
546.268	1336.64
546.474	1445.18
546.679	1160.52
546.885	1217.86
547.091	1240.39
547.297	2037.05
547.502	1385.79
547.708	959.81
547.914	1193.28
548.119	1660.22
548.325	1142.08
548.531	1111.36
548.736	1901.88
548.942	1246.53
549.147	1109.32
549.353	1467.71
549.559	1735.99
549.764	1527.1
549.97	1224
550.175	1248.58
550.381	1740.09
550.586	1389.89
550.792	1305.92
550.997	1336.64
551.203	1625.4
551.408	1865.02
551.614	1205.57
551.819	1324.35
552.025	2149.68
552.23	2145.59
552.435	1250.63
552.641	1545.53
552.846	1584.45
553.052	1883.45
553.257	1471.81
553.462	1307.97
553.668	1506.62
553.873	1824.06
554.078	1332.55
554.283	1338.69
554.489	1815.87
554.694	1666.36
554.899	1369.41
555.105	1615.16
555.31	1912.12
555.515	2030.9
555.72	1490.24
555.925	1422.66
556.131	1860.92
556.336	1463.62
556.541	1391.94
556.746	1340.74
556.951	2114.87
557.156	2020.66
557.361	1598.78
557.567	1680.7
557.772	2272.56
557.977	1977.66
558.182	1477.95
558.387	1416.51
558.592	1633.6
558.797	2139.44
559.002	1664.32
559.207	1676.6
559.412	1789.24
559.617	2305.33
559.822	1455.42
560.027	1434.94
560.232	1916.22
560.437	2082.1
560.642	1396.03
560.847	1363.26
561.051	1819.96
561.256	1830.2
561.461	1682.75
561.666	1496.38
561.871	1955.13
562.076	2100.53
562.281	1750.33
562.485	1475.9
562.69	2170.16
562.895	2155.83
563.1	1666.36
563.305	1551.68
563.509	2276.66
563.714	2352.43
563.919	1600.83
564.123	1723.71
564.328	1991.99
564.533	2319.67
564.737	1615.16
564.942	1707.32
565.147	2463.02
565.351	2417.97
565.556	1848.63
565.761	1717.56
565.965	2086.2
566.17	1819.96
566.374	1654.08
566.579	1684.8
566.784	2155.83
566.988	1971.51
567.193	1631.55
567.397	1754.43
567.602	1924.41
567.806	2047.29
568.011	1854.78
568.215	1793.34
568.42	2032.95
568.624	2045.24
568.828	1918.26
569.033	1910.07
569.237	2356.53
569.442	2374.96
569.646	1639.74
569.85	2012.47
570.055	2123.06
570.259	2272.56
570.463	2260.27
570.668	1951.03
570.872	2270.51
571.076	2250.04
571.281	2078.01
571.485	2090.29
571.689	2231.6
571.893	2372.91
572.098	2069.81
572.302	1979.7
572.506	2364.72
572.71	2282.8
572.914	1967.42
573.119	1998.13
573.323	2518.32
573.527	2628.91
573.731	2032.95
573.935	1891.64
574.139	2290.99
574.343	2104.63
574.547	1899.83
574.751	2094.39
574.955	2729.26
575.159	2700.59
575.364	1871.16
575.568	2073.91
575.772	2434.35
575.976	2712.88
576.18	2024.76
576.383	1877.3
576.587	2630.96
576.791	2499.89
576.995	1926.46
577.199	2018.61
577.403	2739.5
577.607	2676.01
577.811	2014.52
578.015	2313.52
578.219	2495.79
578.422	2620.72
578.626	2323.76
578.83	2282.8
579.034	2565.42
579.238	2538.8
579.442	2233.65
579.645	2573.61
579.849	2495.79
580.053	2567.47
580.257	2164.02
580.46	2307.38
580.664	2688.3
580.868	2610.48
581.071	2483.5
581.275	2475.31
581.479	2368.82
581.682	2725.16
581.886	2225.46
582.09	2489.65
582.293	2743.6
582.497	2819.37
582.7	2555.18
582.904	2290.99
583.107	2729.26
583.311	2538.8
583.515	2409.78
583.718	2481.46
583.922	2872.62
584.125	3114.28
584.329	2409.78
584.532	2465.07
584.735	3097.89
584.939	2848.04
585.142	2346.29
585.346	2405.68
585.549	2784.55
585.753	2731.31
585.956	2604.33
586.159	2522.41
586.363	3286.31
586.566	2852.14
586.769	2450.74
586.973	2559.28
587.176	2989.35
587.379	3089.7
587.582	2852.14
587.786	2841.9
587.989	2897.19
588.192	3478.82
588.395	2673.96
588.599	2837.8
588.802	3136.81
589.005	3075.37
589.208	2708.78
589.411	2594.09
589.615	3130.66
589.818	3271.97
590.021	2956.58
590.224	2813.23
590.427	3183.91
590.63	3183.91
590.833	2606.38
591.036	2690.35
591.239	3067.17
591.442	3015.98
591.645	2975.02
591.848	2655.53
592.051	3167.53
592.254	3245.35
592.457	2983.21
592.66	2821.42
592.863	2983.21
593.066	3198.24
593.269	2766.12
593.472	2913.58
593.675	2954.54
593.878	3400.99
594.081	3067.17
594.284	2770.22
594.486	3288.36
594.689	3167.53
594.892	2878.76
595.095	2897.19
595.298	3417.38
595.5	3224.87
595.703	3130.66
595.906	3091.75
596.109	3441.95
596.311	3441.95
596.514	2622.77
596.717	2913.58
596.92	3523.87
597.122	3298.59
597.325	2891.05
597.528	2981.16
597.73	3605.79
597.933	3257.64
598.136	3110.18
598.338	2794.79
598.541	3487.01
598.743	3747.1
598.946	3093.8
599.148	3220.77
599.351	3622.17
599.554	3634.46
599.756	3173.67
599.959	3124.52
600.161	3771.68
600.363	4068.63
600.566	3376.42
600.768	3067.17
600.971	3812.64
601.173	3700
601.376	3337.51
601.578	3181.86
601.78	3587.36
601.983	4035.86
602.185	3106.09
602.388	3357.99
602.59	3659.04
602.792	3405.09
602.995	3480.86
603.197	3188
603.399	3826.97
603.601	3912.99
603.804	3351.84
604.006	3310.88
604.208	3650.85
604.41	3204.39
604.613	3472.67
604.815	3329.31
605.017	4195.61
605.219	3394.85
605.421	3773.72
605.623	3355.94
605.826	3955.99
606.028	3929.37
606.23	3470.62
606.432	3233.06
606.634	4132.12
606.836	4005.14
607.038	3407.14
607.24	3636.51
607.442	3773.72
607.644	3857.69
607.846	3532.06
608.048	3398.95
608.25	3958.04
608.452	3599.65
608.654	3599.65
608.856	3452.19
609.058	3712.28
609.26	3966.23
609.462	3745.05
609.664	3613.98
609.866	4289.81
610.067	4003.1
610.269	3831.07
610.471	3620.13
610.673	3745.05
610.875	4058.39
611.077	3624.22
611.278	3738.91
611.48	3839.26
611.682	4404.5
611.884	3788.06
612.085	3718.43
612.287	3794.2
612.489	4146.45
612.69	3454.24
612.892	3849.5
613.094	4332.82
613.295	4019.48
613.497	3601.69
613.699	3749.15
613.9	4334.87
614.102	4138.26
614.304	3806.49
614.505	3622.17
614.707	4062.49
614.908	3962.14
615.11	3677.47
615.311	3925.27
615.513	4183.32
615.714	4269.33
615.916	3767.58
616.117	3857.69
616.319	4119.83
616.52	4322.58
616.722	3740.96
616.923	3761.44
617.124	4580.62
617.326	4375.83
617.527	3992.86
617.729	4158.74
617.93	4283.67
618.131	4218.13
618.333	3929.37
618.534	4015.38
618.735	3851.55
618.937	4519.18
619.138	3847.45
619.339	3738.91
619.54	4285.72
619.742	4074.78
619.943	4068.63
620.144	3996.95
620.345	4515.09
620.546	4607.25
620.748	3994.9
620.949	4044.06
621.15	4226.32
621.351	4459.79
621.552	4072.73
621.753	3890.46
621.954	4011.29
622.155	4861.2
622.356	3958.04
622.558	4220.18
622.759	4177.17
622.96	4769.04
623.161	4171.03
623.362	4197.65
623.563	4410.64
623.764	4488.46
623.965	4148.5
624.166	4578.58
624.366	4351.25
624.567	4592.91
624.768	3976.47
624.969	4138.26
625.17	4449.55
625.371	4713.74
625.572	4173.08
625.773	4193.56
625.973	4779.28
626.174	4674.83
626.375	4343.06
626.576	4506.9
626.777	4732.17
626.977	5076.23
627.178	4412.69
627.379	4445.46
627.58	4504.85
627.78	4646.16
627.981	4402.45
628.182	4570.38
628.382	4637.97
628.583	4244.76
628.784	4201.75
628.984	4478.23
629.185	4824.33
629.386	4793.61
629.586	4451.6
629.787	4349.2
629.987	4869.39
630.188	4859.15
630.388	4400.4
630.589	4371.73
630.79	5446.91
630.99	4832.52
631.191	4521.23
631.391	4513.04
631.591	4750.6
631.792	5264.65
631.992	4701.45
632.193	4502.8
632.393	5113.1
632.594	4900.11
632.794	4519.18
632.994	4650.25
633.195	4771.08
633.395	4879.63
633.595	4648.21
633.796	5016.84
633.996	4838.67
634.196	5141.77
634.397	4486.42
634.597	4689.17
634.797	4668.69
634.997	5244.17
635.198	4822.28
635.398	4654.35
635.598	5008.65
635.798	5360.9
635.998	5035.27
636.199	4646.16
636.399	4951.31
636.599	4691.21
636.799	4805.9
636.999	4996.36
637.199	5078.28
637.399	5352.71
637.599	4736.27
637.799	4900.11
637.999	4908.3
638.199	5489.92
638.399	4697.36
638.599	4769.04
638.799	5164.29
638.999	5592.32
639.199	4967.69
639.399	5031.18
639.599	5479.68
639.799	4850.96
639.999	4928.78
640.199	4738.32
640.399	5072.14
640.599	5215.49
640.799	5076.23
640.998	5215.49
641.198	5569.79
641.398	5248.26
641.598	5141.77
641.798	5227.78
641.997	6044.92
642.197	5272.84
642.397	5246.21
642.597	4994.31
642.796	5293.32
642.996	5625.09
643.196	5422.34
643.395	4934.92
643.595	5473.54
643.795	4887.82
643.994	5063.94
644.194	5317.89
644.394	5559.55
644.593	5475.59
644.793	5043.46
644.992	5262.6
645.192	5479.68
645.392	5070.09
645.591	5141.77
645.791	5203.21
645.99	5731.58
646.19	5328.13
646.389	5354.76
646.589	5307.65
646.788	5618.94
646.987	5596.42
647.187	5481.73
647.386	5532.93
647.586	5516.55
647.785	5750.01
647.984	5158.15
648.184	5377.28
648.383	5459.2
648.582	5625.09
648.782	5369.09
648.981	5494.02
649.18	5549.31
649.38	5682.43
649.579	5354.76
649.778	5317.89
649.977	5836.03
650.177	5702.91
650.376	5403.91
650.575	5201.16
650.774	6130.94
650.973	5670.14
651.173	5383.43
651.372	5467.39
651.571	5786.88
651.77	6001.91
651.969	5530.88
652.168	5549.31
652.367	5471.49
652.566	5932.28
652.765	5649.66
652.964	5807.36
653.163	6216.95
653.362	5850.36
653.561	5346.56
653.76	5569.79
653.959	5756.16
654.158	6081.78
654.357	5936.38
654.556	5571.84
654.755	5897.47
654.954	5889.28
655.153	5649.66
655.352	5567.74
655.551	6360.31
655.749	5846.27
655.948	5836.03
656.147	5772.54
656.346	5993.72
656.545	6008.06
656.743	5899.52
656.942	5868.8
657.141	6001.91
657.34	5809.4
657.538	5899.52
657.737	5747.97
657.936	5967.1
658.135	6249.72
658.333	5823.74
658.532	6042.87
658.731	6679.79
658.929	6395.12
659.128	6014.2
659.326	5876.99
659.525	6563.06
659.724	6227.19
659.922	5655.81
660.121	5754.11
660.319	6274.29
660.518	5946.62
660.716	5782.78
660.915	5776.64
661.113	6595.82
661.312	5926.14
661.51	6190.33
661.709	5889.28
661.907	6413.56
662.105	6622.45
662.304	6008.06
662.502	6081.78
662.701	6452.47
662.899	6147.32
663.097	6546.67
663.296	5852.41
663.494	6673.65
663.692	6597.87
663.891	5956.86
664.089	5987.58
664.287	6431.99
664.485	6788.33
664.684	6153.46
664.882	6116.6
665.08	6169.85
665.278	6313.2
665.476	5954.81
665.675	6597.87
665.873	6931.69
666.071	6730.99
666.269	6280.44
666.467	6348.02
666.665	6356.21
666.863	6468.85
667.061	6284.53
667.259	6194.42
667.457	6483.19
667.655	6622.45
667.853	6049.02
668.051	6380.79
668.249	6368.5
668.447	6573.3
668.645	6280.44
668.843	6499.57
669.041	6864.11
669.239	6495.47
669.437	6479.09
669.635	6505.71
669.833	6339.83
670.031	6794.48
670.229	6300.92
670.426	6558.96
670.624	6362.36
670.822	6415.6
671.02	6309.11
671.218	6284.53
671.415	6472.95
671.613	6642.93
671.811	6436.08
672.009	6454.51
672.206	6681.84
672.404	6493.43
672.602	6573.3
672.799	6550.77
672.997	6687.98
673.195	6978.79
673.392	6737.13
673.59	6231.29
673.788	6898.92
673.985	6223.09
674.183	6626.54
674.38	6458.61
674.578	6925.55
674.775	6583.54
674.973	6251.77
675.17	6444.27
675.368	6960.36
675.565	6980.84
675.763	6579.44
675.96	6434.04
676.158	6991.08
676.355	6542.58
676.553	6679.79
676.75	6477.04
676.947	7029.99
677.145	6667.5
677.342	6554.87
677.539	6644.98
677.737	6851.82
677.934	7351.53
678.131	6726.89
678.329	6485.23
678.526	7132.39
678.723	7120.1
678.92	6595.82
679.118	6718.7
679.315	6634.74
679.512	7236.84
679.709	6730.99
679.906	6536.43
680.104	6952.17
680.301	6882.54
680.498	6522.1
680.695	6505.71
680.892	6665.46
681.089	6595.82
681.286	6739.18
681.483	6460.66
681.68	6890.73
681.877	7316.71
682.075	6651.12
682.272	6726.89
682.469	7064.81
682.665	6657.26
682.862	6616.3
683.059	6391.03
683.256	7154.92
683.453	6911.21
683.65	6794.48
683.847	6812.91
684.044	6694.13
684.241	6563.06
684.438	6755.57
684.635	6440.18
684.831	7462.12
685.028	7515.36
685.225	6571.25
685.422	6819.05
685.619	6931.69
685.815	6892.78
686.012	6984.94
686.209	6647.02
686.405	6800.62
686.602	7230.69
686.799	6599.92
686.996	6690.03
687.192	6642.93
687.389	7591.14
687.586	6886.64
687.782	6776.05
687.979	7226.6
688.175	7386.34
688.372	6712.56
688.568	6761.71
688.765	6847.72
688.962	7431.4
689.158	6997.23
689.355	6745.33
689.551	7062.76
689.748	6890.73
689.944	6935.79
690.14	6759.66
690.337	7144.68
690.533	6747.37
690.73	6962.41
690.926	7034.09
691.123	7206.12
691.319	7060.71
691.515	6710.51
691.712	6935.79
691.908	7058.67
692.104	7177.45
692.301	6827.25
692.497	6679.79
692.693	7322.85
692.889	7277.8
693.086	7128.3
693.282	6647.02
693.478	7087.34
693.674	7580.9
693.87	7027.95
694.067	6898.92
694.263	7154.92
694.459	7159.02
694.655	6980.84
694.851	6972.65
695.047	7296.23
695.243	7175.4
695.439	7161.06
695.635	6919.4
695.831	7261.41
696.027	7193.83
696.224	6892.78
696.42	7406.82
696.615	7664.86
696.811	7374.05
697.007	6862.06
697.203	6890.73
697.399	7404.77
697.595	7507.17
697.791	6933.74
697.987	7079.15
698.183	7091.43
698.379	6886.64
698.575	6851.82
698.77	7210.22
698.966	7349.48
699.162	7511.27
699.358	7177.45
699.554	7163.11
699.749	7566.56
699.945	7476.45
700.141	7021.8
700.337	7242.98
700.532	7427.3
700.728	7152.87
700.924	7023.85
701.119	6894.83
701.315	7441.64
701.511	7218.41
701.706	7177.45
701.902	6935.79
702.097	7361.76
702.293	7326.95
702.489	7134.44
702.684	7023.85
702.88	7245.03
703.075	7326.95
703.271	7021.8
703.466	6974.7
703.662	7472.36
703.857	7548.13
704.053	7001.32
704.248	7128.3
704.443	7628
704.639	7572.71
704.834	7171.3
705.03	7083.24
705.225	7683.3
705.42	7711.97
705.616	7218.41
705.811	6980.84
706.006	7263.46
706.202	7245.03
706.397	7288.04
706.592	7251.17
706.787	7337.19
706.983	7447.78
707.178	7615.71
707.373	7277.8
707.568	7605.47
707.763	7648.48
707.959	7040.23
708.154	7167.21
708.349	7494.88
708.544	7509.22
708.739	7324.9
708.934	7159.02
709.129	7632.1
709.324	7826.65
709.519	7120.1
709.714	7118.06
709.909	7853.28
710.104	7505.12
710.299	7097.58
710.494	7257.32
710.689	7744.74
710.884	7601.38
711.079	7218.41
711.274	7533.79
711.469	7650.53
711.664	7541.99
711.859	7202.02
712.054	7458.02
712.249	7779.55
712.443	7763.17
712.638	7324.9
712.833	7181.54
713.028	7521.51
713.223	7365.86
713.417	7615.71
713.612	7329
713.807	7697.63
714.002	7970.01
714.196	7634.14
714.391	7253.22
714.586	7660.77
714.78	7472.36
714.975	7339.24
715.17	7519.46
715.364	7584.99
715.559	7931.1
715.754	7095.53
715.948	7245.03
716.143	7855.33
716.337	7488.74
716.532	7691.49
716.726	7316.71
716.921	7746.78
717.115	8078.55
717.31	7175.4
717.504	7861.47
717.699	7621.86
717.893	7771.36
718.088	7036.14
718.282	7257.32
718.476	7625.95
718.671	7752.93
718.865	7218.41
719.059	7386.34
719.254	7595.23
719.448	7933.15
719.642	8459.48
719.837	7234.79
720.031	7955.68
720.225	7816.41
720.419	7533.79
720.614	7255.27
720.808	7906.52
721.002	7609.57
721.196	7169.26
721.39	7218.41
721.585	7939.29
721.779	7681.25
721.973	7476.45
722.167	7003.37
722.361	7597.28
722.555	8049.88
722.749	7384.29
722.943	7202.02
723.137	7384.29
723.331	7662.82
723.525	7234.79
723.719	7433.44
723.913	7867.61
724.107	8051.93
724.301	7204.07
724.495	7369.96
724.689	8107.23
724.883	7912.67
725.077	7503.07
725.271	7333.09
725.465	7929.05
725.659	7648.48
725.853	7650.53
726.046	7136.49
726.24	7349.48
726.434	7671.01
726.628	7527.65
726.822	7513.31
727.015	8021.21
727.209	7849.18
727.403	7537.89
727.596	7285.99
727.79	7818.46
727.984	7949.53
728.177	7503.07
728.371	7529.7
728.565	8025.31
728.758	7281.89
728.952	7458.02
729.146	7468.26
729.339	8027.35
729.533	7730.4
729.726	7558.37
729.92	7503.07
730.113	8025.31
730.307	7777.5
730.5	7558.37
730.694	7447.78
730.887	7550.18
731.081	7908.57
731.274	7568.61
731.468	7566.56
731.661	7746.78
731.854	7720.16
732.048	7607.52
732.241	7564.51
732.435	7900.38
732.628	7820.51
732.821	7548.13
733.014	7449.83
733.208	7601.38
733.401	8021.21
733.594	7546.08
733.788	7415.01
733.981	8160.47
734.174	8070.36
734.367	7447.78
734.56	7644.38
734.754	8008.92
734.947	8092.89
735.14	7671.01
735.333	7806.17
735.526	8123.61
735.719	7761.12
735.912	7603.43
736.105	7580.9
736.298	8099.03
736.491	7902.43
736.684	7451.88
736.877	7677.15
737.07	8023.26
737.263	8344.79
737.456	7773.41
737.649	7480.55
737.842	7750.88
738.035	7935.2
738.228	7511.27
738.421	7810.27
738.614	8352.98
738.807	8146.14
739	7529.7
739.192	7595.23
739.385	8119.51
739.578	8053.98
739.771	7861.47
739.964	7736.54
740.156	8203.48
740.349	7908.57
740.542	7734.5
740.735	7634.14
740.927	7886.05
741.12	7734.5
741.313	7662.82
741.505	7947.48
741.698	8101.08
741.891	8076.51
742.083	7666.91
742.276	7894.24
742.468	8021.21
742.661	7939.29
742.854	7748.83
743.046	7763.17
743.239	8357.08
743.431	7898.33
743.624	7855.33
743.816	7644.38
744.009	7701.73
744.201	8099.03
744.393	7982.3
744.586	7572.71
744.778	8269.02
744.971	8002.78
745.163	7822.56
745.355	8010.97
745.548	7990.49
745.74	8039.64
745.932	7802.08
746.125	7851.23
746.317	8588.5
746.509	8008.92
746.702	7898.33
746.894	8056.03
747.086	8103.13
747.278	8191.19
747.471	8008.92
747.663	7808.22
747.855	8219.86
748.047	8408.28
748.239	7800.03
748.431	7560.42
748.623	8527.06
748.815	8496.34
749.008	7752.93
749.2	7875.81
749.392	8123.61
749.584	8119.51
749.776	7851.23
749.968	7945.44
750.16	8504.53
750.352	8008.92
750.544	7924.96
750.736	7820.51
750.928	8314.07
751.12	7957.72
751.311	7757.02
751.503	7881.95
751.695	8416.47
751.887	8047.83
752.079	7685.34
752.271	7840.99
752.463	8738
752.654	8373.46
752.846	7963.87
753.038	7838.94
753.23	7982.3
753.421	8215.77
753.613	7824.61
753.805	8211.67
753.997	8375.51
754.188	8320.21
754.38	7767.26
754.572	7783.65
754.763	8074.46
754.955	8168.66
755.146	8088.79
755.338	7853.28
755.53	7967.96
755.721	7957.72
755.913	7726.3
756.104	7728.35
756.296	8154.33
756.487	8375.51
756.679	7818.46
756.87	7931.1
757.062	7851.23
757.253	8113.37
757.445	7593.19
757.636	7898.33
757.827	8000.73
758.019	8744.14
758.21	7681.25
758.401	7924.96
758.593	8398.04
758.784	8352.98
758.975	7648.48
759.167	7527.65
759.358	7910.62
759.549	8367.32
759.74	7980.25
759.932	7828.7
760.123	8266.97
760.314	7996.64
760.505	8015.07
760.696	7927
760.888	8555.73
761.079	7865.57
761.27	7638.24
761.461	7349.48
761.652	8418.52
761.843	7802.08
762.034	7937.24
762.225	8000.73
762.416	8013.02
762.607	8109.27
762.798	7879.9
762.989	7791.84
763.18	8688.85
763.371	7847.13
763.562	7795.93
763.753	7795.93
763.944	8142.04
764.135	8228.06
764.326	7673.06
764.517	7560.42
764.708	7970.01
764.899	7978.2
765.089	7693.54
765.28	7517.41
765.471	7970.01
765.662	7949.53
765.853	7730.4
766.043	7533.79
766.234	8183
766.425	8123.61
766.615	7810.27
766.806	7560.42
766.997	8291.54
767.187	8000.73
767.378	7509.22
767.569	7501.03
767.759	8004.83
767.95	7949.53
768.141	7840.99
768.331	7470.31
768.522	7871.71
768.712	8162.52
768.903	7740.64
769.093	7591.14
769.284	8213.72
769.474	7890.14
769.665	7458.02
769.855	7501.03
770.046	7892.19
770.236	7703.78
770.426	7759.07
770.617	7353.57
770.807	8066.27
770.998	7824.61
771.188	7535.84
771.378	7537.89
771.569	7834.85
771.759	7955.68
771.949	7509.22
772.139	7425.25
772.33	7738.59
772.52	8393.94
772.71	7734.5
772.9	7460.07
773.09	8246.49
773.281	8297.69
773.471	7603.43
773.661	7447.78
773.851	7972.06
774.041	7687.39
774.231	7570.66
774.421	7664.86
774.611	8033.5
774.802	7967.96
774.992	7621.86
775.182	7505.12
775.372	7728.35
775.562	7845.09
775.752	7474.4
775.942	7398.63
776.131	8115.42
776.321	7900.38
776.511	7630.05
776.701	7341.29
776.891	7908.57
777.081	7441.64
777.271	7668.96
777.461	7365.86
777.651	7808.22
777.84	8072.41
778.03	7562.47
778.22	7343.33
778.41	8037.59
778.599	7589.09
778.789	7531.75
778.979	7329
779.169	7791.84
779.358	7763.17
779.548	7779.55
779.738	7415.01
779.927	7830.75
780.117	7714.02
780.307	7548.13
780.496	7226.6
780.686	7931.1
780.875	8129.75
781.065	7501.03
781.254	7439.59
781.444	7853.28
781.633	7881.95
781.823	7324.9
782.012	7249.13
782.202	7679.2
782.391	7501.03
782.581	7382.24
782.77	7607.52
782.96	7937.24
783.149	7738.59
783.338	7517.41
783.528	7144.68
783.717	7828.7
783.906	7851.23
784.096	7439.59
784.285	7298.28
784.474	7685.34
784.663	7533.79
784.853	7349.48
785.042	7271.65
785.231	7662.82
785.42	7892.19
785.61	7515.36
785.799	7251.17
785.988	7449.83
786.177	7460.07
786.366	7431.4
786.555	7505.12
786.744	7804.13
786.933	7492.83
787.122	7294.18
787.312	7304.42
787.501	7343.33
787.69	7718.11
787.879	7394.53
788.068	7175.4
788.257	7245.03
788.445	7372
788.634	7349.48
788.823	7326.95
789.012	8209.62
789.201	7929.05
789.39	7193.83
789.579	7167.21
789.768	7718.11
789.957	7664.86
790.145	7345.38
790.334	6980.84
790.523	7285.99
790.712	7513.31
790.9	7179.5
791.089	7113.96
791.278	7765.21
791.467	7546.08
791.655	7558.37
791.844	7693.54
792.033	7476.45
792.221	7380.2
792.41	7339.24
792.599	7023.85
792.787	7668.96
792.976	7568.61
793.164	7075.05
793.353	7130.34
793.541	7640.29
793.73	7836.89
793.918	7300.33
794.107	7087.34
794.295	7408.87
794.484	7355.62
794.672	7212.26
794.861	7144.68
795.049	7578.85
795.238	7830.75
795.426	6874.35
795.614	7292.13
795.803	7617.76
795.991	8062.17
796.179	7226.6
796.368	6939.88
796.556	7754.97
796.744	7228.65
796.932	6970.6
797.121	6896.88
797.309	7398.63
797.497	7734.5
797.685	7099.62
797.874	7169.26
798.062	7185.64
798.25	7693.54
798.438	7210.22
798.626	7214.31
798.814	7902.43
799.002	8094.94
799.19	7273.7
799.378	7292.13
799.566	7722.21
799.755	7742.69
799.943	7279.85
800.131	7034.09
800.318	7550.18
800.506	7599.33
800.694	7290.09
800.882	7249.13
801.07	8045.79
801.258	7511.27
801.446	7136.49
801.634	7124.2
801.822	7476.45
802.01	7611.62
802.197	7175.4
802.385	7519.46
802.573	7826.65
802.761	7455.97
802.949	7392.48
803.136	7261.41
803.324	7886.05
803.512	7697.63
803.699	7298.28
803.887	7304.42
804.075	8121.56
804.262	7539.94
804.45	7423.2
804.638	7525.6
804.825	7331.05
805.013	7423.2
805.201	7208.17
805.388	7226.6
805.576	7736.54
805.763	8226.01
805.951	7458.02
806.138	7597.28
806.326	8029.4
806.513	7816.41
806.701	7748.83
806.888	7537.89
807.075	7918.81
807.263	8144.09
807.45	7695.58
807.638	7541.99
807.825	8092.89
808.012	8111.32
808.2	7525.6
808.387	7722.21
808.574	7832.8
808.761	8324.31
808.949	7625.95
809.136	7814.37
809.323	7689.44
809.51	7754.97
809.698	7902.43
809.885	7781.6
810.072	8068.31
810.259	8068.31
810.446	7732.45
810.633	7607.52
810.82	8217.82
811.008	8205.53
811.195	7990.49
811.382	7789.79
811.569	8111.32
811.756	7664.86
811.943	7605.47
812.13	7498.98
812.317	7830.75
812.504	7910.62
812.691	7820.51
812.878	7820.51
813.064	8211.67
813.251	8115.42
813.438	7779.55
813.625	7816.41
813.812	7759.07
813.999	7890.14
814.186	7902.43
814.372	7867.61
814.559	8039.64
814.746	8324.31
814.933	7679.2
815.12	8023.26
815.306	7791.84
815.493	7732.45
815.68	7707.87
815.866	7949.53
816.053	8635.6
816.24	8596.69
816.426	7812.32
816.613	7660.77
816.799	8244.44
816.986	8535.25
817.173	7873.76
817.359	7578.85
817.546	8226.01
817.732	7736.54
817.919	7482.6
818.105	8187.1
818.292	7949.53
818.478	8324.31
818.665	7824.61
818.851	7800.03
819.037	8584.4
819.224	8015.07
819.41	7781.6
819.597	7595.23
819.783	8426.71
819.969	8260.82
820.156	7759.07
820.342	7746.78
820.528	8735.95
820.714	8096.99
820.901	7857.37
821.087	7873.76
821.273	8701.14
821.459	7951.58
821.646	7834.85
821.832	7779.55
822.018	8119.51
822.204	8090.84
822.39	7818.46
822.576	7597.28
822.762	8242.39
822.948	8127.71
823.134	7894.24
823.32	7660.77
823.507	7744.74
823.693	8066.27
823.879	8066.27
824.065	7734.5
824.25	8080.6
824.436	7804.13
824.622	7693.54
824.808	7765.21
824.994	8074.46
825.18	7675.1
825.366	7578.85
825.552	7742.69
825.738	7963.87
825.923	8285.4
826.109	8000.73
826.295	7564.51
826.481	7861.47
826.667	8068.31
826.852	7849.18
827.038	7646.43
827.224	8121.56
827.409	8223.96
827.595	7369.96
827.781	7881.95
827.966	8250.58
828.152	8139.99
828.338	7599.33
828.523	7193.83
828.709	7652.58
828.894	8033.5
829.08	7705.82
829.266	7435.49
829.451	7734.5
829.637	7992.54
829.822	7582.95
830.008	7570.66
830.193	8025.31
830.378	8170.71
830.564	7689.44
830.749	7482.6
830.935	8002.78
831.12	7838.94
831.305	7437.54
831.491	7531.75
831.676	7556.32
831.861	8125.66
832.047	7603.43
832.232	7498.98
832.417	7949.53
832.602	7609.57
832.788	7515.36
832.973	7455.97
833.158	7902.43
833.343	7832.8
833.528	7570.66
833.714	7580.9
833.899	7800.03
834.084	8074.46
834.269	7642.34
834.454	7472.36
834.639	7685.34
834.824	7697.63
835.009	7644.38
835.194	7759.07
835.379	7988.44
835.564	8082.65
835.749	7564.51
835.934	7427.3
836.119	7865.57
836.304	7746.78
836.489	7513.31
836.674	7705.82
836.859	7402.72
837.044	8004.83
837.228	7376.1
837.413	7173.35
837.598	7800.03
837.783	8131.8
837.968	7509.22
838.152	7154.92
838.337	7154.92
838.522	7898.33
838.707	7994.59
838.891	7423.2
839.076	7808.22
839.261	7859.42
839.445	7277.8
839.63	7363.81
839.815	8051.93
839.999	7417.06
840.184	7314.66
840.368	7353.57
840.553	7689.44
840.737	7734.5
840.922	7052.52
841.106	7068.91
841.291	7498.98
841.475	7562.47
841.66	7116.01
841.844	7228.65
842.029	8211.67
842.213	7376.1
842.397	7285.99
842.582	7097.58
842.766	7818.46
842.951	7609.57
843.135	7351.53
843.319	7314.66
843.504	7421.16
843.688	7648.48
843.872	6997.23
844.056	7269.61
844.241	7484.64
844.425	7574.75
844.609	7415.01
844.793	7183.59
844.977	7824.61
845.161	7738.59
845.346	7126.25
845.53	7240.93
845.714	7443.68
845.898	7873.76
846.082	7042.28
846.266	7136.49
846.45	7605.47
846.634	7562.47
846.818	7070.95
847.002	7245.03
847.186	7734.5
847.37	7242.98
847.554	7116.01
847.738	7122.15
847.922	7433.44
848.106	7611.62
848.29	6835.44
848.473	7040.23
848.657	7597.28
848.841	7443.68
849.025	7113.96
849.209	6696.18
849.392	7298.28
849.576	7228.65
849.76	6636.78
849.944	7144.68
850.127	7683.3
850.311	7152.87
850.495	6817.01
850.678	6925.55
850.862	7570.66
851.046	7595.23
851.229	7064.81
851.413	6909.16
851.596	7281.89
851.78	7230.69
851.964	7122.15
852.147	6927.6
852.331	7951.58
852.514	7632.1
852.698	7105.77
852.881	6792.43
853.065	7312.61
853.248	7095.53
853.431	7171.3
853.615	7167.21
853.798	7814.37
853.982	7142.63
854.165	6972.65
854.348	6921.45
854.532	6999.27
854.715	6939.88
854.898	6909.16
855.081	6733.04
855.265	7466.21
855.448	7529.7
855.631	6925.55
855.814	6896.88
855.997	7404.77
856.181	7177.45
856.364	6974.7
856.547	6853.87
856.73	7027.95
856.913	7103.72
857.096	6726.89
857.279	7038.19
857.462	6903.02
857.645	7419.11
857.828	6827.25
858.011	7079.15
858.194	6950.12
858.377	7120.1
858.56	6489.33
858.743	6898.92
858.926	6759.66
859.109	7152.87
859.292	6759.66
859.475	6491.38
859.658	7187.69
859.841	7005.42
860.023	6483.19
860.206	6706.41
860.389	7124.2
860.572	7236.84
860.755	6675.7
860.937	6565.11
861.12	6733.04
861.303	7007.47
861.486	6579.44
861.668	6466.8
861.851	6989.03
862.034	7142.63
862.216	6753.52
862.399	6421.75
862.581	6829.29
862.764	7302.37
862.947	6804.72
863.129	6345.97
863.312	6579.44
863.494	7136.49
863.677	6771.95
863.859	6507.76
864.042	7029.99
864.224	7079.15
864.406	6518
864.589	6155.51
864.771	6913.26
864.954	6419.7
865.136	6262.01
865.318	6227.19
865.501	6771.95
865.683	6270.2
865.865	6419.7
866.048	6427.89
866.23	6833.39
866.412	6546.67
866.594	6223.09
866.777	6462.71
866.959	6884.59
867.141	6374.64
867.323	6630.64
867.505	6563.06
867.687	6628.59
867.869	6679.79
868.052	6518
868.234	6282.49
868.416	6647.02
868.598	6862.06
868.78	6552.82
868.962	6264.05
869.144	7044.33
869.326	6798.57
869.508	6198.52
869.69	6450.42
869.872	6434.04
870.054	6771.95
870.236	6151.42
870.417	6331.64
870.599	6751.47
870.781	7144.68
870.963	6573.3
871.145	6405.36
871.327	6395.12
871.508	6708.46
871.69	6337.78
871.872	6313.2
872.054	6583.54
872.235	6667.5
872.417	6470.9
872.599	6286.58
872.78	6962.41
872.962	6771.95
873.144	6243.57
873.325	6497.52
873.507	7230.69
873.689	6685.94
873.87	6245.62
874.052	6503.67
874.233	6739.18
874.415	6946.03
874.596	6280.44
874.778	6200.57
874.959	6616.3
875.141	6751.47
875.322	6350.07
875.503	6339.83
875.685	6733.04
875.866	6262.01
876.048	6370.55
876.229	6243.57
876.41	6497.52
876.592	6661.36
876.773	6450.42
876.954	6196.47
877.136	6984.94
877.317	6589.68
877.498	6259.96
877.679	6503.67
877.86	6831.34
878.042	6604.02
878.223	6257.91
878.404	6726.89
878.585	6950.12
878.766	7095.53
878.947	6661.36
879.128	6630.64
879.309	6812.91
879.49	7189.74
879.672	6579.44
879.853	6733.04
880.034	6647.02
880.215	6747.37
880.396	6597.87
880.576	6565.11
880.757	6589.68
880.938	7113.96
881.119	6552.82
881.3	6577.39
881.481	6888.68
881.662	7838.94
881.843	6358.26
882.023	6599.92
882.204	7042.28
882.385	7083.24
882.566	6550.77
882.747	6796.53
882.927	6972.65
883.108	7013.61
883.289	6636.78
883.469	6870.25
883.65	7070.95
883.831	6956.27
884.011	6905.07
884.192	6780.14
884.373	7378.15
884.553	7216.36
884.734	6950.12
884.914	7154.92
885.095	7793.89
885.275	7501.03
885.456	7189.74
885.636	6767.85
885.817	7122.15
885.997	7120.1
886.178	6821.1
886.358	7015.66
886.538	7273.7
886.719	8195.29
886.899	6788.33
887.08	6903.02
887.26	7453.92
887.44	7017.71
887.621	6894.83
887.801	7124.2
887.981	7824.61
888.161	7396.58
888.342	7058.67
888.522	7023.85
888.702	7533.79
888.882	7474.4
889.062	7148.78
889.242	6771.95
889.423	7759.07
889.603	7470.31
889.783	6958.32
889.963	6989.03
890.143	7408.87
890.323	7531.75
890.503	7058.67
890.683	7066.86
890.863	7214.31
891.043	7281.89
891.223	7220.46
891.403	7447.78
891.583	7445.73
891.763	7464.16
891.943	7193.83
892.122	7083.24
892.302	7363.81
892.482	7361.76
892.662	7247.08
892.842	7161.06
893.022	7525.6
893.201	7294.18
893.381	7496.93
893.561	6980.84
893.741	7681.25
893.92	7648.48
894.1	7292.13
894.28	7357.67
894.459	7718.11
894.639	7554.27
894.819	7204.07
894.998	7247.08
895.178	7615.71
895.357	7533.79
895.537	7259.37
895.716	7075.05
895.896	7533.79
896.075	7869.66
896.255	7253.22
896.434	6923.5
896.614	7681.25
896.793	7802.08
896.973	7374.05
897.152	7365.86
897.331	7589.09
897.511	7767.26
897.69	7077.1
897.87	7312.61
898.049	7605.47
898.228	7408.87
898.407	7429.35
898.587	7326.95
898.766	7265.51
898.945	7607.52
899.124	7468.26
899.304	7394.53
899.483	7632.1
899.662	7865.57
899.841	7054.57
900.02	7062.76
900.199	7716.06
900.378	7523.55
900.557	6950.12
900.737	7062.76
900.916	7566.56
901.095	7822.56
901.274	7484.64
901.453	7015.66
901.632	7091.43
901.811	7288.04
901.989	7048.43
902.168	7128.3
902.347	7417.06
902.526	7103.72
902.705	6966.51
902.884	7122.15
903.063	7736.54
903.242	7431.4
903.42	6876.4
903.599	7089.39
903.778	7488.74
903.957	7621.86
904.135	7126.25
904.314	7111.91
904.493	7322.85
904.672	7480.55
904.85	7056.62
905.029	7021.8
905.207	7326.95
905.386	7881.95
905.565	6849.77
905.743	6806.77
905.922	7120.1
906.1	7349.48
906.279	6821.1
906.457	6872.3
906.636	7107.82
906.814	6919.4
906.993	6855.92
907.171	6833.39
907.35	7511.27
907.528	7146.73
907.707	7046.38
907.885	6706.41
908.063	7494.88
908.242	6802.67
908.42	6698.22
908.598	6556.91
908.777	7267.56
908.955	6825.2
909.133	6810.86
909.311	6636.78
909.49	6964.46
909.668	7140.58
909.846	6792.43
910.024	6622.45
910.202	7013.61
910.38	7148.78
910.559	6620.4
910.737	6434.04
910.915	6841.58
911.093	7050.47
911.271	6563.06
911.449	6972.65
911.627	7062.76
911.805	7460.07
911.983	6640.88
912.161	6429.94
912.339	6948.08
912.517	7099.62
912.695	6741.23
912.872	6579.44
913.05	6685.94
913.228	6900.97
913.406	6583.54
913.584	6198.52
913.762	6915.31
913.939	6571.25
914.117	6380.79
914.295	6266.1
914.473	6958.32
914.65	6788.33
914.828	6333.68
915.006	6415.6
915.184	6251.77
915.361	6534.39
915.539	6528.24
915.716	6577.39
915.894	6589.68
916.072	6827.25
916.249	6505.71
916.427	6206.71
916.604	6450.42
916.782	6497.52
916.959	6214.9
917.137	6284.53
917.314	6403.32
917.492	6565.11
917.669	6098.17
917.847	6079.74
918.024	6657.26
918.201	6081.78
918.379	6231.29
918.556	6120.7
918.733	6655.22
918.911	6178.04
919.088	6368.5
919.265	6065.4
919.442	6485.23
919.62	6200.57
919.797	5934.33
919.974	5911.8
920.151	6262.01
920.328	6262.01
920.506	6022.39
920.683	6272.25
920.86	5905.66
921.037	6126.84
921.214	5981.43
921.391	5754.11
921.568	6438.13
921.745	5870.84
921.922	5981.43
922.099	5768.45
922.276	6524.15
922.453	6233.33
922.63	5704.96
922.807	5993.72
922.984	5920
923.161	5850.36
923.338	5715.2
923.514	5637.38
923.691	6065.4
923.868	5985.53
924.045	5631.23
924.222	5600.51
924.399	5870.84
924.575	6094.07
924.752	5686.53
924.929	5735.68
925.105	5672.19
925.282	5664
925.459	5506.31
925.635	5438.72
925.812	5788.92
925.989	5598.46
926.165	5461.25
926.342	5293.32
926.518	5248.26
926.695	5453.06
926.871	5440.77
927.048	5250.31
927.224	5731.58
927.401	5371.14
927.577	5367.04
927.754	5129.48
927.93	5840.12
928.107	5782.78
928.283	5061.9
928.459	5252.36
928.636	5750.01
928.812	5254.41
928.988	5041.42
929.165	4891.91
929.341	5307.65
929.517	5242.12
929.693	5383.43
929.87	4730.13
930.046	5252.36
930.222	5092.62
930.398	5039.37
930.574	4916.49
930.751	5233.93
930.927	4957.45
931.103	5063.94
931.279	4996.36
931.455	4990.22
931.631	5129.48
931.807	4678.93
931.983	4732.17
932.159	4603.15
932.335	4973.83
932.511	4744.46
932.687	4537.62
932.863	4965.64
933.039	5088.52
933.215	4465.94
933.391	4605.2
933.566	4597.01
933.742	4789.52
933.918	4447.51
934.094	4191.51
934.27	4640.01
934.445	4633.87
934.621	4465.94
934.797	4285.72
934.973	4756.75
935.148	4490.51
935.324	4250.9
935.5	3886.36
935.675	4644.11
935.851	4246.8
936.027	3867.93
936.202	4021.53
936.378	4232.47
936.553	4183.32
936.729	4289.81
936.904	3656.99
937.08	3722.52
937.255	3759.39
937.431	3503.39
937.606	3376.42
937.782	3609.89
937.957	3648.8
938.133	3439.9
938.308	3161.38
938.483	3523.87
938.659	3261.73
938.834	3226.92
939.009	3120.42
939.185	3128.61
939.36	2981.16
939.535	2600.24
939.71	3042.6
939.886	3441.95
940.061	3261.73
940.236	3101.99
940.411	2884.91
940.586	3145
940.761	3157.29
940.937	2678.06
941.112	2682.16
941.287	2893.1
941.462	2843.95
941.637	2526.51
941.812	2579.76
941.987	2739.5
942.162	2800.94
942.337	2516.27
942.512	2481.46
942.687	3009.83
942.862	2854.19
943.037	2282.8
943.212	2184.5
943.386	2559.28
943.561	2690.35
943.736	2536.75
943.911	2723.12
944.086	2688.3
944.26	2852.14
944.435	2417.97
944.61	2469.17
944.785	2823.47
944.959	3036.46
945.134	2405.68
945.309	2370.87
945.483	2364.72
945.658	2772.27
945.833	2174.26
946.007	2303.28
946.182	3001.64
946.357	2401.58
946.531	2270.51
946.706	2352.43
946.88	2200.88
947.055	2641.2
947.229	2278.71
947.404	2290.99
947.578	2768.17
947.752	2397.49
947.927	2229.56
948.101	2127.16
948.276	2673.96
948.45	2798.89
948.624	2450.74
948.799	2178.36
948.973	2606.38
949.147	2311.47
949.321	2397.49
949.496	2358.58
949.67	2739.5
949.844	2516.27
950.018	2346.29
950.193	2239.8
950.367	3032.36
950.541	2403.63
950.715	2395.44
950.889	2516.27
951.063	2475.31
951.237	2741.55
951.411	2114.87
951.585	2106.68
951.759	2645.29
951.933	2540.85
952.107	2227.51
952.281	2510.13
952.455	3036.46
952.629	2727.21
952.803	2407.73
952.977	2397.49
953.151	2831.66
953.325	2688.3
953.499	2448.69
953.672	2135.35
953.846	2315.57
954.02	2549.04
954.194	2288.95
954.368	2290.99
954.541	2716.97
954.715	2305.33
954.889	2403.63
955.062	2250.04
955.236	2395.44
955.41	2430.26
955.583	2467.12
955.757	2106.68
955.93	2475.31
956.104	2227.51
956.278	2252.08
956.451	2270.51
956.625	2596.14
956.798	2880.81
956.972	2555.18
957.145	2256.18
957.319	2598.19
957.492	2526.51
957.665	2432.3
957.839	2381.11
958.012	2659.63
958.185	2442.54
958.359	2254.13
958.532	2491.7
958.705	2729.26
958.879	2536.75
959.052	2426.16
959.225	2078.01
959.398	2479.41
959.572	2524.46
959.745	2274.61
959.918	2313.52
960.091	2350.39
960.264	2614.57
960.438	2039.09
960.611	2149.68
960.784	2725.16
960.957	2303.28
961.13	2528.56
961.303	2161.97
961.476	2436.4
961.649	2788.65
961.822	2078.01
961.995	2366.77
962.168	2712.88
962.341	2508.08
962.514	2159.92
962.686	2225.46
962.859	2417.97
963.032	2528.56
963.205	2278.71
963.378	2092.34
963.551	2491.7
963.723	2458.93
963.896	2274.61
964.069	2393.39
964.242	2405.68
964.414	2577.71
964.587	2188.6
964.76	2334
964.932	2465.07
965.105	2352.43
965.278	2241.84
965.45	2135.35
965.623	2440.5
965.795	2542.89
965.968	2188.6
966.14	2133.3
966.313	2231.6
966.485	2438.45
966.658	2133.3
966.83	2075.96
967.003	2620.72
967.175	2534.7
967.348	2139.44
967.52	2190.64
967.692	2776.36
967.865	2469.17
968.037	2123.06
968.209	2542.89
968.382	2344.24
968.554	2573.61
968.726	2180.4
968.898	2051.38
969.071	2493.74
969.243	2454.83
969.415	1991.99
969.587	2225.46
969.759	2901.29
969.932	2430.26
970.104	2037.05
970.276	1834.3
970.448	2360.63
970.62	2159.92
970.792	2221.36
970.964	2075.96
971.136	2706.73
971.308	2532.65
971.48	1977.66
971.652	2004.28
971.824	2776.36
971.996	2100.53
972.168	2082.1
972.339	2086.2
972.511	2565.42
972.683	2215.22
972.855	2323.76
973.027	2002.23
973.199	2188.6
973.37	2546.99
973.542	2225.46
973.714	2078.01
973.886	2200.88
974.057	2587.95
974.229	1914.17
974.401	1965.37
974.572	2022.71
974.744	2010.42
974.915	1873.21
975.087	1916.22
975.259	2624.81
975.43	2202.93
975.602	2026.81
975.773	1889.59
975.945	1971.51
976.116	2549.04
976.288	1828.15
976.459	2137.4
976.63	2166.07
976.802	2315.57
976.973	1889.59
977.145	1994.04
977.316	2616.62
977.487	2516.27
977.659	1991.99
977.83	2092.34
978.001	2645.29
978.172	2245.94
978.344	1920.31
978.515	1996.09
978.686	2041.14
978.857	2487.6
979.028	1959.22
979.2	1830.2
979.371	2448.69
979.542	2147.64
979.713	1983.8
979.884	1434.94
980.055	1959.22
980.226	1987.89
980.397	1740.09
980.568	1670.46
980.739	2342.19
980.91	2014.52
981.081	2020.66
981.252	1848.63
981.423	2233.65
981.594	2290.99
981.765	1789.24
981.936	1860.92
982.106	2012.47
982.277	2368.82
982.448	1889.59
982.619	1932.6
982.79	1977.66
982.96	2256.18
983.131	1991.99
983.302	1672.51
983.472	2022.71
983.643	2131.25
983.814	1918.26
983.984	1824.06
984.155	1826.11
984.326	2288.95
984.496	1996.09
984.667	1854.78
984.837	1774.91
985.008	2262.32
985.178	1819.96
985.349	1709.37
985.519	1940.79
985.69	1799.48
985.86	1707.32
986.031	1656.12
986.201	2088.25
986.371	2035
986.542	1668.41
986.712	1543.49
986.882	2080.05
987.053	2082.1
987.223	1647.93
987.393	1924.41
987.563	1772.86
987.734	2194.74
987.904	1979.7
988.074	1492.29
988.244	1998.13
988.414	1801.53
988.585	1598.78
988.755	1699.13
988.925	1860.92
989.095	2260.27
989.265	1545.53
989.435	1834.3
989.605	2014.52
989.775	1975.61
989.945	1854.78
990.115	1563.97
990.285	1803.58
990.455	1860.92
990.625	1793.34
990.795	1623.36
990.965	2239.8
991.134	1615.16
991.304	1500.48
991.474	1740.09
991.644	2006.33
991.814	2141.49
991.984	1492.29
992.153	1508.67
992.323	1686.84
992.493	1844.54
992.662	1332.55
992.832	1690.94
993.002	1787.19
993.171	1854.78
993.341	1344.83
993.511	1611.07
993.68	1541.44
993.85	1977.66
994.019	1346.88
994.189	1393.98
994.358	1666.36
994.528	1529.15
994.697	1256.77
994.867	1398.08
995.036	1944.89
995.206	1559.87
995.375	1353.02
995.544	1625.4
995.714	1815.87
995.883	1647.93
996.052	1656.12
996.222	1193.28
996.391	2155.83
996.56	1725.76
996.73	1344.83
996.899	1365.31
997.068	2084.15
997.237	1738.04
997.406	1281.35
997.576	1326.4
997.745	1742.14
997.914	1668.41
998.083	1215.81
998.252	1418.56
998.421	1619.26
998.59	1576.25
998.759	1310.02
998.928	1197.38
999.097	1908.02
999.266	1735.99
999.435	1518.91
999.604	1099.08
999.773	2059.57
999.942	1645.88
1000.111	1049.93
1000.28	1049.93
1000.448	1406.27
1000.617	1330.5
1000.786	1426.75
1000.955	1150.28
1001.124	1432.9
1001.292	2266.42
1001.461	1187.14
1001.63	1250.63
1001.798	1852.73
1001.967	1920.31
1002.136	1088.84
1002.304	1146.18
1002.473	1570.11
1002.642	1658.17
1002.81	1252.67
1002.979	1203.52
1003.147	1649.98
1003.316	1938.74
1003.484	1121.6
1003.653	1103.17
1003.821	1746.23
1003.99	1432.9
1004.158	1377.6
1004.327	1254.72
1004.495	1514.81
1004.663	1320.26
1004.832	1207.62
1005	945.48
1005.168	1543.49
1005.337	1482.05
1005.505	1000.77
1005.673	1418.56
1005.842	1586.49
1006.01	1557.82
1006.178	1051.97
1006.346	1099.08
1006.514	1471.81
1006.683	1598.78
1006.851	1051.97
1007.019	920.9
1007.187	1232.19
1007.355	968.01
1007.523	828.74
1007.691	845.13
1007.859	982.34
1008.027	1674.56
1008.195	1029.45
1008.363	908.62
1008.531	1656.12
1008.699	1262.91
1008.867	916.81
1009.035	1033.54
1009.203	1578.3
1009.37	1443.14
1009.538	968.01
1009.706	1436.99
1009.874	1377.6
1010.042	1285.44
1010.209	838.98
1010.377	933.19
1010.545	1549.63
1010.713	1389.89
1010.88	1066.31
1011.048	961.86
1011.216	1289.54
1011.383	1631.55
1011.551	957.77
1011.718	937.29
1011.886	1580.35
1012.054	1297.73
1012.221	968.01
1012.389	869.7
1012.556	1256.77
1012.724	1586.49
1012.891	1017.16
1013.058	750.92
1013.226	1451.33
1013.393	1393.98
1013.561	818.5
1013.728	763.21
1013.895	1480
1014.063	1436.99
1014.23	689.48
1014.397	943.43
1014.565	1389.89
1014.732	1062.21
1014.899	822.6
1015.066	955.72
1015.233	1228.1
1015.401	1326.4
1015.568	922.95
1015.735	974.15
1015.902	1195.33
1016.069	1316.16
1016.236	877.9
1016.403	808.27
1016.57	992.58
1016.737	1350.98
1016.904	869.7
1017.071	771.4
1017.238	1049.93
1017.405	1291.59
1017.572	820.55
1017.739	1027.4
1017.906	1271.11
1018.073	1346.88
1018.24	695.63
1018.407	857.42
1018.573	1402.18
1018.74	1092.93
1018.907	869.7
1019.074	566.6
1019.241	1344.83
1019.407	1183.04
1019.574	687.43
1019.741	652.62
1019.907	1213.76
1020.074	1279.3
1020.241	523.6
1020.407	671.05
1020.574	1189.19
1020.74	1213.76
1020.907	779.59
1021.073	615.76
1021.24	1592.64
1021.406	1359.17
1021.573	648.52
1021.739	683.34
1021.906	1271.11
1022.072	937.29
1022.239	673.1
1022.405	738.63
1022.571	1068.36
1022.738	832.84
1022.904	664.91
1023.07	775.5
1023.237	1056.07
1023.403	1238.34
1023.569	709.96
1023.735	666.96
1023.902	1008.97
1024.068	1131.84
1024.234	517.45
1024.4	609.61
1024.566	1174.85
1024.732	1049.93
1024.898	685.39
1025.065	593.23
1025.231	1166.66
1025.397	884.04
1025.563	687.43
1025.729	458.06
1025.895	476.49
1026.061	726.35
1026.227	296.27
1026.392	623.95
1026.558	1117.51
1026.724	1054.02
1026.89	599.37
1027.056	595.28
1027.222	935.24
1027.388	830.79
1027.553	490.83
1027.719	531.79
1027.885	1312.07
1028.051	1017.16
1028.216	480.59
1028.382	626
1028.548	1060.17
1028.713	730.44
1028.879	464.21
1029.045	718.15
1029.21	1166.66
1029.376	1152.32
1029.541	685.39
1029.707	535.89
1029.873	1072.45
1030.038	1162.56
1030.204	494.93
1030.369	552.27
1030.534	1043.78
1030.7	824.65
1030.865	533.84
1031.031	406.86
1031.196	996.68
1031.361	951.62
1031.527	533.84
1031.692	542.03
1031.857	474.45
1032.023	984.39
1032.188	484.69
1032.353	550.22
1032.518	1170.76
1032.684	953.67
1032.849	357.71
1033.014	494.93
1033.179	959.81
1033.344	980.29
1033.509	585.04
1033.674	490.83
1033.839	1019.21
1034.004	1090.88
1034.17	413.01
1034.335	433.49
1034.5	765.26
1034.664	574.8
1034.829	431.44
1034.994	505.17
1035.159	875.85
1035.324	920.9
1035.489	406.86
1035.654	410.96
1035.819	1056.07
1035.984	845.13
1036.148	466.25
1036.313	445.77
1036.478	1086.79
1036.643	750.92
1036.807	376.14
1036.972	304.46
1037.137	1123.65
1037.301	853.32
1037.466	238.93
1037.631	415.06
1037.795	1097.03
1037.96	843.08
1038.124	505.17
1038.289	236.88
1038.454	900.42
1038.618	914.76
1038.783	386.38
1038.947	451.92
1039.111	812.36
1039.276	591.18
1039.44	308.56
1039.605	810.31
1039.769	546.13
1039.933	755.02
1040.098	406.86
1040.262	544.08
1040.426	912.71
1040.591	787.79
1040.755	335.18
1040.919	251.22
1041.083	841.03
1041.248	724.3
1041.412	292.18
1041.576	214.35
1041.74	718.15
1041.904	929.1
1042.068	234.83
1042.232	316.75
1042.397	910.66
1042.561	755.02
1042.725	130.39
1042.889	542.03
1043.053	765.26
1043.217	828.74
1043.381	384.34
1043.544	126.29
1043.708	961.86
1043.872	499.02
1044.036	50.52
1044.2	183.63
1044.364	1006.92
1044.528	888.14
1044.691	5051.66
1044.855	222.55
1045.019	902.47
1045.183	759.11
1045.346	363.86
1045.51	175.44
1045.674	830.79
1045.837	808.27
1046.001	294.22
1046.165	189.78
1046.328	1217.86
1046.492	810.31
1046.655	501.07
1046.819	353.62
1046.983	576.84
1047.146	763.21
1047.31	396.62
1047.473	11.61
1047.636	582.99
1047.8	435.53
1047.963	326.99
1048.127	154.96
1048.29	460.11
