Data from Ink_Intensity_USB4F045381__142__00142.txt Node

Date: Mon Jul 17 11:24:53 EDT 2023
User: mmckonesweet
Spectrometer: USB4F04538
Trigger mode: 4
Integration Time (sec): 9.000000E-1
Scans to average: 1
Electric dark correction enabled: true
Nonlinearity correction enabled: false
Boxcar width: 0
XAxis mode: Wavelengths
Number of Pixels in Spectrum: 3648
>>>>>Begin Spectral Data<<<<<
345.52	-997.19
345.736	-997.19
345.952	-997.19
346.168	-1038.15
346.384	-1046.34
346.6	-169.81
346.816	-280.4
347.032	-163.67
347.248	305.32
347.464	-167.76
347.68	-126.8
347.896	69.8
348.112	297.13
348.328	0.17
348.544	-116.56
348.76	51.37
348.975	301.22
349.191	-259.92
349.407	-270.16
349.623	16.55
349.839	-51.03
350.055	-122.71
350.27	67.75
350.486	121
350.702	362.66
350.918	256.17
351.133	-200.53
351.349	121
351.565	387.24
351.781	-259.92
351.996	-71.51
352.212	358.57
352.428	-206.67
352.644	-257.87
352.859	-229.2
353.075	272.55
353.291	151.72
353.506	-190.29
353.722	-231.25
353.938	-81.75
354.153	436.39
354.369	41.13
354.584	-192.34
354.8	297.13
355.016	-313.17
355.231	-294.74
355.447	-173.91
355.662	159.91
355.878	854.17
356.093	-374.61
356.309	-30.55
356.524	-206.67
356.74	207.02
356.955	-214.87
357.171	-108.37
357.386	116.9
357.602	-124.76
357.817	26.79
358.033	-171.86
358.248	325.8
358.464	133.29
358.679	-137.04
358.895	-366.42
359.11	-69.46
359.325	293.03
359.541	59.56
359.756	-73.56
359.972	-210.77
360.187	174.25
360.402	-223.06
360.618	-112.47
360.833	966.81
361.048	151.72
361.264	-180.05
361.479	-98.13
361.694	-22.36
361.909	180.39
362.125	-159.57
362.34	-159.57
362.555	219.3
362.77	80.04
362.986	-270.16
363.201	-135
363.416	161.96
363.631	22.7
363.847	-218.96
364.062	-231.25
364.277	73.9
364.492	114.86
364.707	-235.35
364.922	-350.03
365.138	182.44
365.353	239.78
365.568	-272.21
365.783	-218.96
365.998	34.99
366.213	526.5
366.428	-257.87
366.643	45.23
366.858	260.26
367.073	235.69
367.288	-188.24
367.503	-298.83
367.718	67.75
367.933	356.52
368.148	-276.31
368.363	-128.85
368.578	108.71
368.793	407.72
369.008	-143.19
369.223	-235.35
369.438	151.72
369.653	411.81
369.868	-300.88
370.083	-276.31
370.298	20.65
370.513	395.43
370.728	4.27
370.943	-259.92
371.157	-173.91
371.372	471.2
371.587	-290.64
371.802	-317.26
372.017	61.61
372.232	479.4
372.446	-87.89
372.661	-278.35
372.876	254.12
373.091	213.16
373.306	-120.66
373.52	-286.54
373.735	-159.57
373.95	389.28
374.165	-112.47
374.379	-184.15
374.594	-71.51
374.809	100.52
375.023	-63.32
375.238	-233.3
375.453	231.59
375.667	-200.53
375.882	-169.81
376.097	-218.96
376.311	-77.65
376.526	-40.79
376.741	-247.63
376.955	39.08
377.17	567.46
377.384	569.51
377.599	-118.61
377.813	-292.69
378.028	641.18
378.242	133.29
378.457	-32.6
378.672	-345.94
378.886	67.75
379.101	-61.27
379.315	-390.99
379.53	-169.81
379.744	84.14
379.958	194.73
380.173	-171.86
380.387	-214.87
380.602	116.9
380.816	-204.63
381.031	-212.82
381.245	-194.39
381.459	166.06
381.674	2599.04
381.888	-178
382.103	37.03
382.317	-241.49
382.531	405.67
382.746	-55.12
382.96	-186.19
383.174	-32.6
383.388	348.33
383.603	41.13
383.817	-251.73
384.031	153.77
384.246	465.06
384.46	-81.75
384.674	215.21
384.888	59.56
385.103	125.1
385.317	-317.26
385.531	-91.99
385.745	307.37
385.959	280.74
386.174	-227.15
386.388	-304.98
386.602	-46.93
386.816	-126.8
387.03	-178
387.244	-87.89
387.458	121
387.672	311.46
387.887	-347.98
388.101	-233.3
388.315	350.37
388.529	153.77
388.743	-169.81
388.957	-216.91
389.171	358.57
389.385	-104.28
389.599	-190.29
389.813	-8.02
390.027	178.34
390.241	639.14
390.455	-186.19
390.669	-218.96
390.883	-94.04
391.097	344.23
391.311	14.51
391.525	-104.28
391.738	157.86
391.952	125.1
392.166	-151.38
392.38	-225.11
392.594	309.41
392.808	350.37
393.022	-67.41
393.236	-147.28
393.449	137.38
393.663	118.95
393.877	-296.78
394.091	-128.85
394.305	-46.93
394.518	-126.8
394.732	-259.92
394.946	-128.85
395.16	506.02
395.373	102.57
395.587	-165.71
395.801	-159.57
396.015	290.98
396.228	149.67
396.442	-382.8
396.656	-341.84
396.869	301.22
397.083	387.24
397.297	-89.94
397.51	-182.1
397.724	284.84
397.938	223.4
398.151	-360.27
398.365	-356.18
398.578	180.39
398.792	356.52
399.005	-55.12
399.219	-145.24
399.433	139.43
399.646	190.63
399.86	-67.41
400.073	-10.07
400.287	250.02
400.5	-75.6
400.714	2.22
400.927	-77.65
401.141	260.26
401.354	1110.17
401.567	153.77
401.781	-350.03
401.994	297.13
402.208	592.03
402.421	-87.89
402.635	-178
402.848	75.95
403.061	233.64
403.275	-59.22
403.488	-227.15
403.701	448.68
403.915	233.64
404.128	-116.56
404.341	-169.81
404.555	252.07
404.768	-42.84
404.981	-12.12
405.195	-210.77
405.408	551.07
405.621	204.97
405.834	10.41
406.048	-268.11
406.261	342.18
406.474	436.39
406.687	-233.3
406.9	6.31
407.114	90.28
407.327	182.44
407.54	-341.84
407.753	-329.55
407.966	-163.67
408.179	192.68
408.392	-159.57
408.605	-407.38
408.819	153.77
409.032	125.1
409.245	-237.39
409.458	-38.74
409.671	282.79
409.884	211.11
410.097	-274.26
410.31	30.89
410.523	176.3
410.736	-77.65
410.949	-130.9
411.162	-161.62
411.375	372.9
411.588	227.5
411.801	-34.64
412.014	-233.3
412.227	41.13
412.44	-71.51
412.653	-190.29
412.865	-65.36
413.078	186.54
413.291	209.06
413.504	-75.6
413.717	-200.53
413.93	172.2
414.143	-130.9
414.356	-186.19
414.568	-343.89
414.781	284.84
414.994	71.85
415.207	-85.84
415.42	-178
415.632	227.5
415.845	510.11
416.058	-345.94
416.271	-282.45
416.483	71.85
416.696	440.48
416.909	-216.91
417.121	-261.97
417.334	157.86
417.547	518.31
417.759	-184.15
417.972	-253.78
418.185	-104.28
418.397	231.59
418.61	-243.54
418.823	-253.78
419.035	422.05
419.248	10.41
419.46	-98.13
419.673	-145.24
419.885	123.05
420.098	-5.97
420.311	-192.34
420.523	-401.23
420.736	196.78
420.948	61.61
421.161	-169.81
421.373	-321.36
421.586	98.47
421.798	-91.99
422.01	-362.32
422.223	-44.88
422.435	-59.22
422.648	123.05
422.86	-139.09
423.073	-192.34
423.285	280.74
423.497	-356.18
423.71	-243.54
423.922	-280.4
424.134	153.77
424.347	401.57
424.559	49.32
424.771	14.51
424.984	-22.36
425.196	116.9
425.408	-296.78
425.621	-350.03
425.833	223.4
426.045	329.89
426.257	-272.21
426.47	-210.77
426.682	63.66
426.894	270.5
427.106	-159.57
427.318	-167.76
427.531	-104.28
427.743	229.54
427.955	-243.54
428.167	194.73
428.379	198.82
428.591	-67.41
428.804	-149.33
429.016	-284.5
429.228	-81.75
429.44	200.87
429.652	2.22
429.864	-300.88
430.076	-20.31
430.288	-30.55
430.5	-149.33
430.712	-16.21
430.924	207.02
431.136	118.95
431.348	-292.69
431.56	-272.21
431.772	14.51
431.984	-63.32
432.196	-276.31
432.408	-161.62
432.62	-96.08
432.832	104.62
433.044	100.52
433.256	-87.89
433.468	157.86
433.679	-274.26
433.891	-315.22
434.103	12.46
434.315	426.15
434.527	168.1
434.739	-126.8
434.95	-184.15
435.162	231.59
435.374	-157.52
435.586	-163.67
435.798	-225.11
436.009	-214.87
436.221	-42.84
436.433	-288.59
436.645	-184.15
436.856	-67.41
437.068	307.37
437.28	-292.69
437.491	75.95
437.703	116.9
437.915	75.95
438.126	-184.15
438.338	12.46
438.55	-34.64
438.761	149.67
438.973	-178
439.184	-184.15
439.396	26.79
439.608	252.07
439.819	-341.84
440.031	-137.04
440.242	223.4
440.454	114.86
440.665	-161.62
440.877	-163.67
441.088	118.95
441.3	-22.36
441.511	-358.22
441.723	-247.63
441.934	157.86
442.146	61.61
442.357	-40.79
442.569	110.76
442.78	20.65
442.991	487.59
443.203	129.19
443.414	-395.09
443.626	379.04
443.837	-137.04
444.048	-292.69
444.26	-280.4
444.471	121
444.682	170.15
444.894	-358.22
445.105	-362.32
445.316	215.21
445.528	149.67
445.739	-83.8
445.95	-178
446.161	110.76
446.373	268.45
446.584	-233.3
446.795	-192.34
447.006	166.06
447.217	465.06
447.429	-425.81
447.64	-395.09
447.851	323.75
448.062	2.22
448.273	-313.17
448.484	-259.92
448.695	168.1
448.907	-53.08
449.118	-102.23
449.329	-24.4
449.54	-83.8
449.751	-157.52
449.962	-200.53
450.173	-249.68
450.384	290.98
450.595	329.89
450.806	-218.96
451.017	-173.91
451.228	338.09
451.439	221.35
451.65	-231.25
451.861	-425.81
452.072	-237.39
452.283	-34.64
452.494	-46.93
452.705	-352.08
452.915	321.7
453.126	125.1
453.337	-137.04
453.548	-276.31
453.759	217.26
453.97	487.59
454.181	-18.26
454.391	-157.52
454.602	59.56
454.813	157.86
455.024	-128.85
455.235	-307.02
455.445	69.8
455.656	98.47
455.867	-100.18
456.078	-266.07
456.288	-100.18
456.499	137.38
456.71	-229.2
456.921	61.61
457.131	114.86
457.342	121
457.553	-147.28
457.763	-243.54
457.974	118.95
458.184	153.77
458.395	-272.21
458.606	-327.5
458.816	282.79
459.027	510.11
459.237	-79.7
459.448	-397.14
459.659	370.85
459.869	583.84
460.08	-345.94
460.29	-94.04
460.501	428.2
460.711	-94.04
460.922	-386.9
461.132	-231.25
461.343	682.14
461.553	-247.63
461.764	-329.55
461.974	-225.11
462.184	207.02
462.395	47.27
462.605	-268.11
462.816	-315.22
463.026	75.95
463.236	352.42
463.447	-259.92
463.657	-255.83
463.867	243.88
464.078	-24.4
464.288	-141.14
464.498	-104.28
464.709	12.46
464.919	39.08
465.129	-118.61
465.339	-307.02
465.55	151.72
465.76	190.63
465.97	-169.81
466.18	-169.81
466.391	262.31
466.601	102.57
466.811	-186.19
467.021	-253.78
467.231	153.77
467.441	354.47
467.651	-159.57
467.862	-509.77
468.072	-79.7
468.282	293.03
468.492	-268.11
468.702	-227.15
468.912	-63.32
469.122	610.47
469.332	49.32
469.542	-354.13
469.752	196.78
469.962	77.99
470.172	-366.42
470.382	-300.88
470.592	190.63
470.802	297.13
471.012	-18.26
471.222	-245.59
471.432	268.45
471.642	180.39
471.852	-118.61
472.062	-288.59
472.272	0.17
472.482	-227.15
472.691	-280.4
472.901	-382.8
473.111	96.43
473.321	530.59
473.531	-401.23
473.741	-67.41
473.95	149.67
474.16	204.97
474.37	-229.2
474.58	-298.83
474.79	403.62
474.999	307.37
475.209	-264.02
475.419	-190.29
475.628	2.22
475.838	229.54
476.048	-122.71
476.258	-382.8
476.467	362.66
476.677	-120.66
476.886	26.79
477.096	-182.1
477.306	-91.99
477.515	389.28
477.725	-202.58
477.935	-151.38
478.144	405.67
478.354	-153.43
478.563	-208.72
478.773	-255.83
478.982	221.35
479.192	272.55
479.401	-63.32
479.611	-294.74
479.82	-77.65
480.03	45.23
480.239	-227.15
480.449	-362.32
480.658	331.94
480.868	-178
481.077	-124.76
481.287	-135
481.496	157.86
481.705	352.42
481.915	-14.17
482.124	71.85
482.333	92.33
482.543	368.81
482.752	-202.58
482.961	-317.26
483.171	166.06
483.38	-18.26
483.589	-122.71
483.799	-270.16
484.008	-38.74
484.217	211.11
484.426	-190.29
484.636	-325.46
484.845	90.28
485.054	-288.59
485.263	-1.88
485.472	-196.43
485.682	403.62
485.891	102.57
486.1	-309.07
486.309	-227.15
486.518	151.72
486.727	420
486.936	-237.39
487.146	-85.84
487.355	340.13
487.564	-143.19
487.773	-198.48
487.982	-253.78
488.191	-40.79
488.4	-10.07
488.609	-194.39
488.818	-227.15
489.027	589.99
489.236	333.99
489.445	-186.19
489.654	-231.25
489.863	297.13
490.072	161.96
490.281	157.86
490.49	-165.71
490.698	460.96
490.907	465.06
491.116	-276.31
491.325	-380.75
491.534	372.9
491.743	84.14
491.952	-102.23
492.16	-214.87
492.369	204.97
492.578	264.36
492.787	-104.28
492.996	-321.36
493.204	-14.17
493.413	475.3
493.622	-388.94
493.831	-317.26
494.039	395.43
494.248	-151.38
494.457	-243.54
494.665	-350.03
494.874	180.39
495.083	503.97
495.291	-221.01
495.5	-206.67
495.709	250.02
495.917	145.58
496.126	-51.03
496.335	-268.11
496.543	2.22
496.752	157.86
496.96	14.51
497.169	-388.94
497.377	32.94
497.586	321.7
497.794	-36.69
498.003	-386.9
498.211	47.27
498.42	469.16
498.628	-75.6
498.837	-313.17
499.045	198.82
499.254	26.79
499.462	-266.07
499.671	-229.2
499.879	485.54
500.087	254.12
500.296	-249.68
500.504	-202.58
500.713	51.37
500.921	653.47
501.129	-227.15
501.338	-137.04
501.546	80.04
501.754	4.27
501.962	-239.44
502.171	-358.22
502.379	71.85
502.587	524.45
502.795	-98.13
503.004	-192.34
503.212	49.32
503.42	344.23
503.628	-259.92
503.837	-81.75
504.045	252.07
504.253	465.06
504.461	-243.54
504.669	-356.18
504.877	280.74
505.085	471.2
505.294	-290.64
505.502	4.27
505.71	149.67
505.918	319.65
506.126	-284.5
506.334	-341.84
506.542	37.03
506.75	106.67
506.958	-104.28
507.166	-186.19
507.374	-63.32
507.582	471.2
507.79	-44.88
507.998	-231.25
508.206	170.15
508.414	211.11
508.622	-276.31
508.83	-182.1
509.037	506.02
509.245	-28.5
509.453	-276.31
509.661	-304.98
509.869	151.72
510.077	34.99
510.285	-116.56
510.492	-440.14
510.7	706.72
510.908	-42.84
511.116	-163.67
511.324	-251.73
511.531	-10.07
511.739	90.28
511.947	-63.32
512.155	12.46
512.362	194.73
512.57	-165.71
512.778	-339.79
512.985	-325.46
513.193	327.85
513.401	501.92
513.608	-169.81
513.816	-227.15
514.024	170.15
514.231	336.04
514.439	-235.35
514.646	-255.83
514.854	299.17
515.061	286.89
515.269	-218.96
515.477	-268.11
515.684	-141.14
515.892	313.51
516.099	-382.8
516.307	-325.46
516.514	264.36
516.722	440.48
516.929	-229.2
517.136	-251.73
517.344	434.34
517.551	221.35
517.759	-317.26
517.966	-151.38
518.173	-28.5
518.381	55.47
518.588	-124.76
518.796	-290.64
519.003	268.45
519.21	102.57
519.418	-229.2
519.625	57.51
519.832	184.49
520.039	129.19
520.247	-380.75
520.454	-175.95
520.661	397.48
520.868	135.34
521.076	-190.29
521.283	-69.46
521.49	620.71
521.697	247.97
521.904	-173.91
522.112	-178
522.319	288.93
522.526	290.98
522.733	-272.21
522.94	-227.15
523.147	114.86
523.354	323.75
523.561	-403.28
523.768	-67.41
523.975	317.61
524.183	125.1
524.39	-149.33
524.597	-298.83
524.804	55.47
525.011	-75.6
525.218	-210.77
525.425	-204.63
525.632	417.96
525.838	-34.64
526.045	-118.61
526.252	-294.74
526.459	1149.08
526.666	917.66
526.873	-278.35
527.08	-227.15
527.287	456.87
527.494	215.21
527.701	-266.07
527.907	-175.95
528.114	340.13
528.321	45.23
528.528	-169.81
528.735	-229.2
528.941	26.79
529.148	-42.84
529.355	-110.42
529.562	-223.06
529.768	600.23
529.975	-14.17
530.182	-110.42
530.388	-178
530.595	354.47
530.802	-79.7
531.008	-22.36
531.215	-137.04
531.422	577.7
531.628	800.93
531.835	-69.46
532.042	-108.37
532.248	2.22
532.455	192.68
532.661	-141.14
532.868	-178
533.074	157.86
533.281	393.38
533.487	-38.74
533.694	-161.62
533.9	-102.23
534.107	239.78
534.313	-243.54
534.52	-284.5
534.726	327.85
534.933	583.84
535.139	-214.87
535.345	-237.39
535.552	235.69
535.758	178.34
535.965	-149.33
536.171	-153.43
536.377	344.23
536.584	508.07
536.79	-182.1
536.996	-102.23
537.203	196.78
537.409	276.65
537.615	-108.37
537.821	4.27
538.028	358.57
538.234	272.55
538.44	-184.15
538.646	-51.03
538.853	250.02
539.059	92.33
539.265	159.91
539.471	-364.37
539.677	288.93
539.883	80.04
540.09	-128.85
540.296	299.17
540.502	141.48
540.708	-34.64
540.914	96.43
541.12	-212.82
541.326	282.79
541.532	149.67
541.738	-63.32
541.944	-96.08
542.15	403.62
542.356	166.06
542.562	-188.24
542.768	-128.85
542.974	686.24
543.18	575.65
543.386	-163.67
543.592	-292.69
543.798	540.83
544.004	424.1
544.21	-79.7
544.415	-61.27
544.621	272.55
544.827	383.14
545.033	-210.77
545.239	45.23
545.445	-122.71
545.651	221.35
545.856	-132.95
546.062	-300.88
546.268	69.8
546.474	176.3
546.679	-44.88
546.885	-108.37
547.091	80.04
547.297	596.13
547.502	51.37
547.708	-192.34
547.914	59.56
548.119	301.22
548.325	-165.71
548.531	-126.8
548.736	614.56
548.942	-26.45
549.147	-143.19
549.353	104.62
549.559	501.92
549.764	288.93
549.97	-157.52
550.175	-118.61
550.381	370.85
550.586	63.66
550.792	-79.7
550.997	-96.08
551.203	278.69
551.408	389.28
551.614	-173.91
551.819	-102.23
552.025	592.03
552.23	702.62
552.435	-128.85
552.641	84.14
552.846	22.7
553.052	538.79
553.257	59.56
553.462	-106.32
553.668	-85.84
553.873	501.92
554.078	-145.24
554.283	-171.86
554.489	198.82
554.694	211.11
554.899	-122.71
555.105	26.79
555.31	389.28
555.515	454.82
555.72	59.56
555.925	-153.43
556.131	399.52
556.336	137.38
556.541	-77.65
556.746	-141.14
556.951	479.4
557.156	604.32
557.361	47.27
557.567	174.25
557.772	682.14
557.977	317.61
558.182	-22.36
558.387	-83.8
558.592	47.27
558.797	413.86
559.002	-16.21
559.207	100.52
559.412	182.44
559.617	690.34
559.822	-63.32
560.027	-118.61
560.232	305.32
560.437	540.83
560.642	-218.96
560.847	-87.89
561.051	209.06
561.256	278.69
561.461	8.36
561.666	-141.14
561.871	241.83
562.076	426.15
562.281	-89.94
562.485	-104.28
562.69	342.18
562.895	497.83
563.1	-24.4
563.305	-114.52
563.509	557.22
563.714	731.3
563.919	24.75
564.123	-26.45
564.328	243.88
564.533	592.03
564.737	10.41
564.942	-46.93
565.147	659.62
565.351	770.21
565.556	100.52
565.761	96.43
565.965	329.89
566.17	129.19
566.374	34.99
566.579	-173.91
566.784	266.41
566.988	178.34
567.193	-145.24
567.397	-59.22
567.602	-108.37
567.806	317.61
568.011	-28.5
568.215	34.99
568.42	204.97
568.624	303.27
568.828	0.17
569.033	96.43
569.237	438.44
569.442	417.96
569.646	-218.96
569.85	32.94
570.055	250.02
570.259	409.76
570.463	174.25
570.668	10.41
570.872	262.31
571.076	321.7
571.281	190.63
571.485	59.56
571.689	274.6
571.893	446.63
572.098	32.94
572.302	63.66
572.506	411.81
572.71	325.8
572.914	6.31
573.119	88.23
573.323	616.61
573.527	692.38
573.731	-22.36
573.935	51.37
574.139	436.39
574.343	221.35
574.547	92.33
574.751	45.23
574.955	542.88
575.159	704.67
575.364	-12.12
575.568	-59.22
575.772	358.57
575.976	604.32
576.18	10.41
576.383	-159.57
576.587	680.1
576.791	534.69
576.995	-190.29
577.199	-151.38
577.403	563.36
577.607	594.08
577.811	-28.5
578.015	125.1
578.219	379.04
578.422	571.55
578.626	104.62
578.83	245.93
579.034	635.04
579.238	383.14
579.442	-28.5
579.645	471.2
579.849	346.28
580.053	420
580.257	135.34
580.46	243.88
580.664	551.07
580.868	567.46
581.071	252.07
581.275	215.21
581.479	151.72
581.682	610.47
581.886	10.41
582.09	235.69
582.293	551.07
582.497	635.04
582.7	321.7
582.904	47.27
583.107	391.33
583.311	313.51
583.515	182.44
583.718	204.97
583.922	518.31
584.125	843.93
584.329	82.09
584.532	258.21
584.735	618.66
584.939	538.79
585.142	30.89
585.346	63.66
585.549	477.35
585.753	280.74
585.956	84.14
586.159	207.02
586.363	839.84
586.566	604.32
586.769	-18.26
586.973	67.75
587.176	589.99
587.379	661.66
587.582	522.4
587.786	411.81
587.989	385.19
588.192	1054.87
588.395	211.11
588.599	510.11
588.802	489.64
589.005	698.53
589.208	219.3
589.411	204.97
589.615	759.97
589.818	790.69
590.021	374.95
590.224	284.84
590.427	704.67
590.63	706.72
590.833	-10.07
591.036	77.99
591.239	391.33
591.442	366.76
591.645	317.61
591.848	166.06
592.051	565.41
592.254	774.3
592.457	235.69
592.66	157.86
592.863	381.09
593.066	635.04
593.269	219.3
593.472	325.8
593.675	389.28
593.878	579.75
594.081	305.32
594.284	125.1
594.486	645.28
594.689	530.59
594.892	329.89
595.095	377
595.298	688.29
595.5	401.57
595.703	333.99
595.906	338.09
596.109	880.8
596.311	774.3
596.514	37.03
596.717	329.89
596.92	845.98
597.122	632.99
597.325	47.27
597.528	219.3
597.73	831.65
597.933	579.75
598.136	223.4
598.338	-65.36
598.541	714.91
598.743	825.5
598.946	247.97
599.148	338.09
599.351	852.13
599.554	809.12
599.756	422.05
599.959	354.47
600.161	807.07
600.363	1165.46
600.566	575.65
600.768	342.18
600.971	993.44
601.173	788.64
601.376	270.5
601.578	346.28
601.78	700.58
601.983	1165.46
602.185	362.66
602.388	493.73
602.59	751.78
602.792	379.04
602.995	544.93
603.197	295.08
603.399	827.55
603.601	755.87
603.804	338.09
604.006	338.09
604.208	569.51
604.41	229.54
604.613	587.94
604.815	286.89
605.017	1208.47
605.219	483.49
605.421	716.96
605.623	239.78
605.826	921.76
606.028	1075.35
606.23	268.45
606.432	438.44
606.634	1063.07
606.836	956.57
607.038	202.92
607.24	485.54
607.442	700.58
607.644	676
607.846	549.03
608.048	358.57
608.25	962.72
608.452	471.2
608.654	487.59
608.856	211.11
609.058	612.51
609.26	782.49
609.462	501.92
609.664	497.83
609.866	1271.96
610.067	917.66
610.269	540.83
610.471	493.73
610.673	665.76
610.875	772.25
611.077	270.5
611.278	520.35
611.48	780.45
611.682	1200.28
611.884	577.7
612.085	544.93
612.287	532.64
612.489	895.13
612.69	362.66
612.892	452.77
613.094	886.94
613.295	755.87
613.497	350.37
613.699	483.49
613.9	1177.75
614.102	966.81
614.304	512.16
614.505	327.85
614.707	727.2
614.908	782.49
615.11	272.55
615.311	573.6
615.513	907.42
615.714	964.76
615.916	413.86
616.117	469.16
616.319	809.12
616.52	981.15
616.722	465.06
616.923	522.4
617.124	1089.69
617.326	874.65
617.527	618.66
617.729	813.21
617.93	1001.63
618.131	993.44
618.333	581.79
618.534	579.75
618.735	671.9
618.937	1099.93
619.138	432.29
619.339	432.29
619.54	921.76
619.742	766.11
619.943	759.97
620.144	616.61
620.345	1061.02
620.546	1026.2
620.748	514.21
620.949	551.07
621.15	862.37
621.351	878.75
621.552	567.46
621.753	354.47
621.954	483.49
622.155	1362.07
622.356	483.49
622.558	721.06
622.759	905.37
622.96	1294.49
623.161	551.07
623.362	522.4
623.563	907.42
623.764	860.32
623.965	542.88
624.166	782.49
624.366	735.39
624.567	964.76
624.768	293.03
624.969	596.13
625.17	829.6
625.371	1136.79
625.572	764.06
625.773	536.74
625.973	1144.99
626.174	1128.6
626.375	706.72
626.576	680.1
626.777	972.96
626.977	1466.52
627.178	649.38
627.379	723.1
627.58	858.27
627.78	915.61
627.981	632.99
628.182	714.91
628.382	1181.85
628.583	622.75
628.784	559.27
628.984	778.4
629.185	1050.78
629.386	1130.65
629.586	735.39
629.787	600.23
629.987	1116.31
630.188	1015.96
630.388	774.3
630.589	923.8
630.79	1507.48
630.99	1001.63
631.191	774.3
631.391	800.93
631.591	1167.51
631.792	1450.13
631.992	856.22
632.193	772.25
632.393	1347.73
632.594	1018.01
632.794	733.34
632.994	929.95
633.195	972.96
633.395	1024.16
633.595	649.38
633.796	977.05
633.996	807.07
634.196	1257.62
634.397	616.61
634.597	837.79
634.797	817.31
634.997	1396.89
635.198	923.8
635.398	596.13
635.598	1181.85
635.798	1323.16
635.998	1157.27
636.199	647.33
636.399	819.36
636.599	821.41
636.799	809.12
636.999	1149.08
637.199	1208.47
637.399	1290.39
637.599	766.11
637.799	915.61
637.999	852.13
638.199	1458.32
638.399	719.01
638.599	747.68
638.799	1169.56
638.999	1581.2
639.199	985.24
639.399	948.38
639.599	1419.41
639.799	788.64
639.999	794.78
640.199	657.57
640.399	1142.94
640.599	1124.51
640.799	993.44
640.998	1032.35
641.198	1405.08
641.398	1233.05
641.598	911.52
641.798	913.56
641.997	2046.09
642.197	1058.97
642.397	919.71
642.597	850.08
642.796	1253.53
642.996	1527.96
643.196	1032.35
643.395	841.89
643.595	1175.7
643.795	747.68
643.994	919.71
644.194	1024.16
644.394	1212.57
644.593	1235.1
644.793	739.49
644.992	1036.44
645.192	1304.73
645.392	843.93
645.591	1095.83
645.791	907.42
645.99	1380.5
646.19	1159.32
646.389	1022.11
646.589	1134.75
646.788	1489.04
646.987	1443.99
647.187	1237.14
647.386	1118.36
647.586	1132.7
647.785	1439.89
647.984	997.53
648.184	970.91
648.383	1009.82
648.582	1112.22
648.782	993.44
648.981	1181.85
649.18	1042.59
649.38	1296.53
649.579	1013.92
649.778	925.85
649.977	1405.08
650.177	1472.66
650.376	936.09
650.575	927.9
650.774	1599.63
650.973	1079.45
651.173	878.75
651.372	1036.44
651.571	1288.34
651.77	1587.35
651.969	1036.44
652.168	1165.46
652.367	1138.84
652.566	1314.97
652.765	1067.16
652.964	1390.74
653.163	1755.28
653.362	1345.69
653.561	1056.92
653.76	1099.93
653.959	1243.29
654.158	1394.84
654.357	1298.58
654.556	1108.12
654.755	1484.95
654.954	1437.84
655.153	1185.94
655.352	1175.7
655.551	1656.98
655.749	1204.38
655.948	1106.07
656.147	1235.1
656.346	1489.04
656.545	1327.25
656.743	1185.94
656.942	1155.23
657.141	1357.97
657.34	1173.66
657.538	1194.14
657.737	1093.79
657.936	1241.24
658.135	1607.83
658.333	1194.14
658.532	1245.34
658.731	1853.58
658.929	1624.21
659.128	1425.56
659.326	1085.59
659.525	1798.29
659.724	1362.07
659.922	870.56
660.121	944.28
660.319	1460.37
660.518	1206.42
660.716	1058.97
660.915	1061.02
661.113	1769.62
661.312	1110.17
661.51	1341.59
661.709	1153.18
661.907	1626.26
662.105	1788.05
662.304	1190.04
662.502	1271.96
662.701	1775.76
662.899	1427.6
663.097	1558.67
663.296	1091.74
663.494	1738.9
663.692	1906.83
663.891	1153.18
664.089	1136.79
664.287	1667.22
664.485	1775.76
664.684	1214.62
664.882	1378.45
665.08	1519.76
665.278	1577.11
665.476	1130.65
665.675	1554.58
665.873	1937.55
666.071	1874.06
666.269	1208.47
666.467	1566.87
666.665	1546.39
666.863	1495.19
667.061	1450.13
667.259	1308.82
667.457	1568.91
667.655	1736.85
667.853	1196.18
668.051	1435.8
668.249	1296.53
668.447	1673.36
668.645	1153.18
668.843	1517.72
669.041	1718.42
669.239	1454.23
669.437	1351.83
669.635	1452.18
669.833	1497.24
670.031	1736.85
670.229	1423.51
670.426	1468.56
670.624	1480.85
670.822	1429.65
671.02	1325.21
671.218	1382.55
671.415	1349.78
671.613	1599.63
671.811	1456.28
672.009	1427.6
672.206	1704.08
672.404	1699.98
672.602	1538.2
672.799	1443.99
672.997	1771.66
673.195	1898.64
673.392	1609.87
673.59	1288.34
673.788	1872.01
673.985	1075.35
674.183	1466.52
674.38	1433.75
674.578	1783.95
674.775	1441.94
674.973	1333.4
675.17	1427.6
675.368	2070.67
675.565	1804.43
675.763	1378.45
675.96	1341.59
676.158	1953.93
676.355	1632.4
676.553	1503.38
676.75	1388.69
676.947	1771.66
677.145	1556.63
677.342	1583.25
677.539	1734.8
677.737	1783.95
677.934	2158.73
678.131	1728.66
678.329	1413.27
678.526	2087.05
678.723	1829.01
678.92	1697.94
679.118	1484.95
679.315	1411.22
679.512	2107.53
679.709	1460.37
679.906	1482.9
680.104	1937.55
680.301	1970.32
680.498	1460.37
680.695	1450.13
680.892	1603.73
681.089	1552.53
681.286	1648.79
681.483	1353.88
681.68	1874.06
681.877	1933.45
682.075	1544.34
682.272	1734.8
682.469	1923.21
682.665	1671.31
682.862	1308.82
683.059	1241.24
683.256	1878.16
683.453	1886.35
683.65	1667.22
683.847	1673.36
684.044	1724.56
684.241	1583.25
684.438	1695.89
684.635	1527.96
684.831	2216.07
685.028	2279.56
685.225	1601.68
685.422	1732.75
685.619	2013.32
685.815	1849.49
686.012	1699.98
686.209	1685.65
686.405	1443.99
686.602	2062.48
686.799	1437.84
686.996	1519.76
687.192	1679.51
687.389	2271.37
687.586	1530
687.782	1624.21
687.979	2175.11
688.175	2017.42
688.372	1699.98
688.568	1622.16
688.765	1716.37
688.962	2156.68
689.158	1779.86
689.355	1437.84
689.551	2080.91
689.748	1695.89
689.944	1769.62
690.14	1570.96
690.337	1890.45
690.533	1788.05
690.73	1742.99
690.926	1605.78
691.123	2023.56
691.319	1892.49
691.515	1667.22
691.712	1812.62
691.908	2046.09
692.104	1849.49
692.301	1847.44
692.497	1509.52
692.693	2087.05
692.889	2148.49
693.086	1812.62
693.282	1470.61
693.478	2019.47
693.674	2171.02
693.87	1755.28
694.067	1652.88
694.263	2025.61
694.459	1777.81
694.655	1794.19
694.851	1718.42
695.047	2113.67
695.243	2150.54
695.439	1939.6
695.635	1650.83
695.831	2248.84
696.027	1972.36
696.224	1650.83
696.42	2054.28
696.615	2203.79
696.811	2103.43
697.007	1560.72
697.203	1783.95
697.399	2103.43
697.595	2273.42
697.791	1702.03
697.987	1886.35
698.183	1708.18
698.379	1736.85
698.575	1728.66
698.77	1788.05
698.966	2148.49
699.162	2312.33
699.358	1755.28
699.554	1833.1
699.749	2226.31
699.945	2224.26
700.141	1829.01
700.337	1958.03
700.532	1947.79
700.728	1747.09
700.924	1867.92
701.119	1781.9
701.315	2191.5
701.511	2005.13
701.706	1841.29
701.902	1665.17
702.097	1976.46
702.293	2156.68
702.489	1910.93
702.684	1587.35
702.88	1865.87
703.075	1937.55
703.271	1857.68
703.466	1747.09
703.662	2033.8
703.857	2070.67
704.053	1882.25
704.248	1771.66
704.443	2265.22
704.639	2250.89
704.834	1878.16
705.03	1777.81
705.225	2375.81
705.42	2351.24
705.616	1941.65
705.811	1716.37
706.006	1929.36
706.202	1976.46
706.397	1994.89
706.592	1761.42
706.787	2044.04
706.983	2091.15
707.178	2076.81
707.373	1902.73
707.568	2234.5
707.763	2353.29
707.959	1886.35
708.154	1935.5
708.349	2164.87
708.544	2234.5
708.739	2267.27
708.934	1800.34
709.129	2220.17
709.324	2338.95
709.519	1857.68
709.714	1765.52
709.909	2463.88
710.104	2238.6
710.299	1955.98
710.494	1941.65
710.689	2345.09
710.884	2173.07
711.079	2074.76
711.274	2197.64
711.469	2297.99
711.664	2183.31
711.859	1982.6
712.054	2097.29
712.249	2398.34
712.443	2295.94
712.638	1685.65
712.833	1863.82
713.028	2035.85
713.223	2209.93
713.417	2252.94
713.612	1886.35
713.807	2375.81
714.002	2734.21
714.196	2197.64
714.391	2042
714.586	2222.22
714.78	2211.98
714.975	1988.75
715.17	1759.38
715.364	2158.73
715.559	2375.81
715.754	1738.9
715.948	1896.59
716.143	2676.87
716.337	2250.89
716.532	2179.21
716.726	1892.49
716.921	2406.53
717.115	2656.39
717.31	1857.68
717.504	2576.52
717.699	2240.65
717.893	2506.88
718.088	1863.82
718.282	1867.92
718.476	2289.8
718.671	2492.55
718.865	1964.17
719.059	1968.27
719.254	2328.71
719.448	2584.71
719.642	2355.33
719.837	1878.16
720.031	2373.77
720.225	2459.78
720.419	2058.38
720.614	2029.71
720.808	2461.83
721.002	2289.8
721.196	1964.17
721.39	2097.29
721.585	2517.12
721.779	2257.03
721.973	2103.43
722.167	1890.45
722.361	2193.55
722.555	2502.79
722.749	2058.38
722.943	2082.95
723.137	2107.53
723.331	2254.98
723.525	2033.8
723.719	1962.12
723.913	2553.99
724.107	2562.18
724.301	1998.99
724.495	2152.59
724.689	2672.77
724.883	2619.52
725.077	2050.19
725.271	2021.52
725.465	2592.9
725.659	2322.57
725.853	2138.25
726.046	2023.56
726.24	2248.84
726.434	2543.75
726.628	2042
726.822	2132.11
727.015	2719.87
727.209	2728.07
727.403	2214.02
727.596	1972.36
727.79	2494.6
727.984	2660.48
728.177	2056.33
728.371	2140.3
728.565	2670.72
728.758	2134.15
728.952	2015.37
729.146	2203.79
729.339	2721.92
729.533	2343.05
729.726	2246.79
729.92	2113.67
730.113	2721.92
730.307	2527.36
730.5	2117.77
730.694	2113.67
730.887	2443.4
731.081	2504.84
731.274	2095.24
731.468	2162.83
731.661	2371.72
731.854	2357.38
732.048	2246.79
732.241	1984.65
732.435	2355.33
732.628	2578.56
732.821	2144.39
733.014	2187.4
733.208	2166.92
733.401	2627.71
733.594	2220.17
733.788	2322.57
733.981	2801.79
734.174	2539.65
734.367	2156.68
734.56	2156.68
734.754	2758.78
734.947	2533.51
735.14	2164.87
735.333	2295.94
735.526	2633.86
735.719	2273.42
735.912	2189.45
736.105	2244.74
736.298	2480.26
736.491	2183.31
736.684	2193.55
736.877	2082.95
737.07	2500.74
737.263	2766.98
737.456	2232.46
737.649	2101.39
737.842	2377.86
738.035	2429.06
738.228	2136.2
738.421	2478.21
738.614	2762.88
738.807	2685.06
739	2121.87
739.192	2138.25
739.385	2580.61
739.578	2640
739.771	2711.68
739.964	2218.12
740.156	2558.08
740.349	2410.63
740.542	2521.22
740.735	2187.4
740.927	2232.46
741.12	2265.22
741.313	2263.18
741.505	2433.16
741.698	2480.26
741.891	2726.02
742.083	2361.48
742.276	2291.85
742.468	2558.08
742.661	2506.88
742.854	2392.2
743.046	2422.92
743.239	3027.07
743.431	2488.45
743.624	2418.82
743.816	2269.32
744.009	2418.82
744.201	2672.77
744.393	2484.36
744.586	2218.12
744.778	2799.74
744.971	2478.21
745.163	2365.57
745.355	2551.94
745.548	2633.86
745.74	2482.31
745.932	2424.97
746.125	2328.71
746.317	3207.29
746.509	2637.95
746.702	2353.29
746.894	2406.53
747.086	2597
747.278	2971.77
747.471	2472.07
747.663	2549.89
747.855	2525.32
748.047	2881.66
748.239	2236.55
748.431	2371.72
748.623	3037.31
748.815	3096.7
749.008	2306.18
749.2	2218.12
749.392	2785.41
749.584	2816.13
749.776	2445.45
749.968	2451.59
750.16	3018.88
750.352	2744.45
750.544	2381.96
750.736	2408.58
750.928	2793.6
751.12	2484.36
751.311	2467.97
751.503	2584.71
751.695	2807.94
751.887	2775.17
752.079	2248.84
752.271	2291.85
752.463	3418.23
752.654	2910.33
752.846	2519.17
753.038	2414.73
753.23	2541.7
753.421	2809.98
753.613	2474.12
753.805	2664.58
753.997	2879.61
754.188	2791.55
754.38	2304.14
754.572	2418.82
754.763	2703.49
754.955	2703.49
755.146	2574.47
755.338	2568.32
755.53	2807.94
755.721	2707.59
755.913	2371.72
756.104	2322.57
756.296	2590.85
756.487	2848.9
756.679	2263.18
756.87	2341
757.062	2588.8
757.253	2771.07
757.445	2457.73
757.636	2590.85
757.827	2742.4
758.019	3324.02
758.21	2394.25
758.401	2459.78
758.593	3281.02
758.784	3068.03
758.975	2291.85
759.167	2359.43
759.358	2789.5
759.549	3018.88
759.74	2420.87
759.932	2349.19
760.123	2986.11
760.314	2689.15
760.505	2642.05
760.696	2402.44
760.888	2975.87
761.079	2656.39
761.27	2467.97
761.461	2224.26
761.652	3006.59
761.843	2633.86
762.034	2445.45
762.225	2654.34
762.416	2640
762.607	2658.43
762.798	2693.25
762.989	2601.09
763.18	3483.77
763.371	2574.47
763.562	2457.73
763.753	2527.36
763.944	2891.9
764.135	2936.96
764.326	2787.46
764.517	2439.3
764.708	2916.48
764.899	2963.58
765.089	2455.69
765.28	2375.81
765.471	2740.35
765.662	2994.3
765.853	2701.44
766.043	2404.49
766.234	2963.58
766.425	2957.44
766.615	2529.41
766.806	2418.82
766.997	3102.84
767.187	2617.47
767.378	2418.82
767.569	2312.33
767.759	2904.19
767.95	2740.35
768.141	2631.81
768.331	2381.96
768.522	2865.28
768.712	2857.09
768.903	2373.77
769.093	2496.64
769.284	3051.64
769.474	2781.31
769.665	2302.09
769.855	2332.81
770.046	3068.03
770.236	2707.59
770.426	2617.47
770.617	2341
770.807	2877.57
770.998	2795.65
771.188	2570.37
771.378	2375.81
771.569	2979.97
771.759	2912.38
771.949	2379.91
772.139	2267.27
772.33	2852.99
772.52	3176.57
772.71	2418.82
772.9	2402.44
773.09	3123.32
773.281	3068.03
773.471	2318.47
773.661	2453.64
773.851	2973.82
774.041	2689.15
774.231	2394.25
774.421	2627.71
774.611	3205.24
774.802	2721.92
774.992	2562.18
775.182	2371.72
775.372	2838.66
775.562	3068.03
775.752	2601.09
775.942	2599.04
776.131	3055.74
776.321	3004.54
776.511	2582.66
776.701	2531.46
776.891	2883.71
777.081	2463.88
777.271	2742.4
777.461	2480.26
777.651	3063.93
777.84	3133.56
778.03	2754.69
778.22	2377.86
778.41	3131.51
778.599	2449.54
778.789	2607.23
778.979	2465.93
779.169	2828.42
779.358	2859.14
779.548	2930.81
779.738	2355.33
779.927	2771.07
780.117	2627.71
780.307	2549.89
780.496	2338.95
780.686	2898.05
780.875	3311.74
781.065	2537.6
781.254	2594.95
781.444	2795.65
781.633	2877.57
781.823	2508.93
782.012	2560.13
782.202	2705.54
782.391	2717.83
782.581	2297.99
782.77	2799.74
782.96	2885.76
783.149	2764.93
783.338	2394.25
783.528	2314.38
783.717	2904.19
783.906	2957.44
784.096	2717.83
784.285	2445.45
784.474	2691.2
784.663	2599.04
784.853	2341
785.042	2357.38
785.231	2652.29
785.42	2986.11
785.61	2506.88
785.799	2334.86
785.988	2674.82
786.177	2797.7
786.366	2519.17
786.555	2680.96
786.744	2930.81
786.933	2736.26
787.122	2472.07
787.312	2297.99
787.501	2633.86
787.69	2758.78
787.879	2545.8
788.068	2379.91
788.257	2527.36
788.445	2699.39
788.634	2490.5
788.823	2478.21
789.012	3647.6
789.201	3076.22
789.39	2551.94
789.579	2506.88
789.768	2726.02
789.957	2766.98
790.145	2578.56
790.334	2265.22
790.523	2699.39
790.712	2711.68
790.9	2576.52
791.089	2375.81
791.278	3111.04
791.467	2799.74
791.655	2838.66
791.844	3004.54
792.033	2701.44
792.221	2664.58
792.41	2586.76
792.599	2351.24
792.787	2959.49
792.976	3102.84
793.164	2347.14
793.353	2597
793.541	2930.81
793.73	2986.11
793.918	2633.86
794.107	2502.79
794.295	2691.2
794.484	2777.22
794.672	2504.84
794.861	2379.91
795.049	2977.92
795.238	3213.43
795.426	2465.93
795.614	2642.05
795.803	2914.43
795.991	3078.27
796.179	2570.37
796.368	2543.75
796.556	3090.56
796.744	2578.56
796.932	2427.01
797.121	2345.09
797.309	2893.95
797.497	3025.02
797.685	2582.66
797.874	2556.04
798.062	2816.13
798.25	3037.31
798.438	2500.74
798.626	2478.21
798.814	2887.81
799.002	3385.46
799.19	2791.55
799.378	2637.95
799.566	3022.97
799.755	3297.4
799.943	2717.83
800.131	2615.43
800.318	2857.09
800.506	2914.43
800.694	2568.32
800.882	2752.64
801.07	3188.86
801.258	2748.54
801.446	2642.05
801.634	2652.29
801.822	2920.57
802.01	2857.09
802.197	2510.98
802.385	2832.51
802.573	2939.01
802.761	2717.83
802.949	2738.3
803.136	2599.04
803.324	3199.1
803.512	2967.68
803.699	2721.92
803.887	2422.92
804.075	3053.69
804.262	2672.77
804.45	2447.49
804.638	2834.56
804.825	2812.03
805.013	2855.04
805.201	2773.12
805.388	2728.07
805.576	2863.23
805.763	3344.5
805.951	2721.92
806.138	2869.37
806.326	3496.05
806.513	3117.18
806.701	2750.59
806.888	2693.25
807.075	2994.3
807.263	3393.65
807.45	2519.17
807.638	2830.46
807.825	3373.18
808.012	3160.19
808.2	2762.88
808.387	3045.5
808.574	3082.36
808.761	3215.48
808.949	2590.85
809.136	2865.28
809.323	2941.05
809.51	2998.4
809.698	3125.37
809.885	2902.14
810.072	3147.9
810.259	3229.82
810.446	2787.46
810.633	2906.24
810.82	3364.98
811.008	3358.84
811.195	3045.5
811.382	2908.29
811.569	3082.36
811.756	2687.11
811.943	2994.3
812.13	2936.96
812.317	2959.49
812.504	2871.42
812.691	2848.9
812.878	2908.29
813.064	3451
813.251	3201.15
813.438	2744.45
813.625	3084.41
813.812	3151.99
813.999	3090.56
814.186	2947.2
814.372	2924.67
814.559	3170.43
814.746	3432.57
814.933	2955.39
815.12	3018.88
815.306	3096.7
815.493	3000.44
815.68	2924.67
815.866	2979.97
816.053	3545.2
816.24	3778.67
816.426	2836.61
816.613	2789.5
816.799	3373.18
816.986	3451
817.173	2836.61
817.359	2896
817.546	3270.78
817.732	2869.37
817.919	2650.24
818.105	3139.71
818.292	3014.78
818.478	3252.35
818.665	3035.26
818.851	2918.53
819.037	3774.58
819.224	3217.53
819.41	2814.08
819.597	2949.25
819.783	3616.88
819.969	3256.44
820.156	3045.5
820.342	2818.18
820.528	3928.17
820.714	3149.95
820.901	3281.02
821.087	2941.05
821.273	3629.17
821.459	3135.61
821.646	2959.49
821.832	2832.51
822.018	3422.33
822.204	3326.07
822.39	2961.53
822.576	2869.37
822.762	3332.22
822.948	3332.22
823.134	2998.4
823.32	2975.87
823.507	2922.62
823.693	3340.41
823.879	3311.74
824.065	2982.01
824.25	3289.21
824.436	2945.15
824.622	2873.47
824.808	2877.57
824.994	3000.44
825.18	2990.21
825.366	2795.65
825.552	2914.43
825.738	2996.35
825.923	3307.64
826.109	3160.19
826.295	2930.81
826.481	3084.41
826.667	2990.21
826.852	3016.83
827.038	2785.41
827.224	3549.3
827.409	3635.32
827.595	2693.25
827.781	3123.32
827.966	3367.03
828.152	3399.8
828.338	3000.44
828.523	2732.16
828.709	3074.17
828.894	3399.8
829.08	3031.16
829.266	2857.09
829.451	3065.98
829.637	3393.65
829.822	3016.83
830.008	2936.96
830.193	3121.28
830.378	3704.95
830.564	3121.28
830.749	2713.73
830.935	3192.95
831.12	3291.26
831.305	2963.58
831.491	2924.67
831.676	2936.96
831.861	3416.18
832.047	2902.14
832.232	2744.45
832.417	3442.81
832.602	3195
832.788	2855.04
832.973	2887.81
833.158	3082.36
833.343	3238.01
833.528	2947.2
833.714	3016.83
833.899	3430.52
834.084	3586.16
834.269	3039.36
834.454	2949.25
834.639	3340.41
834.824	3135.61
835.009	2973.82
835.194	3201.15
835.379	3264.63
835.564	3596.4
835.749	3129.47
835.934	2881.66
836.119	3485.81
836.304	3299.45
836.489	2869.37
836.674	3102.84
836.859	3029.12
837.044	3481.72
837.228	2898.05
837.413	2848.9
837.598	3281.02
837.783	3502.2
837.968	2992.25
838.152	2844.8
838.337	2828.42
838.522	3438.71
838.707	3319.93
838.891	3149.95
839.076	3324.02
839.261	3442.81
839.445	2955.39
839.63	3047.55
839.815	3537.01
839.999	3135.61
840.184	2869.37
840.368	2990.21
840.553	3373.18
840.737	3336.31
840.922	2836.61
841.106	2898.05
841.291	3037.31
841.475	3186.81
841.66	2852.99
841.844	2920.57
842.029	3930.22
842.213	3004.54
842.397	3016.83
842.582	2730.11
842.766	3489.91
842.951	3557.49
843.135	2961.53
843.319	2846.85
843.504	3274.87
843.688	3278.97
843.872	2637.95
844.056	2779.26
844.241	3336.31
844.425	3025.02
844.609	3074.17
844.793	2756.74
844.977	3317.88
845.161	3125.37
845.346	2760.83
845.53	2928.77
845.714	3090.56
845.898	3643.51
846.082	2705.54
846.266	2910.33
846.45	3154.04
846.634	3170.43
846.818	2891.9
847.002	2986.11
847.186	3377.27
847.37	3049.6
847.554	2828.42
847.738	3010.68
847.922	3231.87
848.106	3240.06
848.29	2791.55
848.473	2992.25
848.657	3352.7
848.841	3147.9
849.025	2771.07
849.209	2676.87
849.392	3256.44
849.576	3096.7
849.76	2676.87
849.944	2916.48
850.127	3448.95
850.311	2822.27
850.495	2666.63
850.678	2635.91
850.862	3403.89
851.046	3496.05
851.229	3033.21
851.413	2752.64
851.596	3025.02
851.78	3082.36
851.964	2947.2
852.147	2852.99
852.331	3844.21
852.514	3467.38
852.698	2943.1
852.881	2693.25
853.065	3338.36
853.248	3137.66
853.431	2998.4
853.615	3008.64
853.798	3483.77
853.982	3348.6
854.165	3135.61
854.348	2842.75
854.532	2943.1
854.715	3049.6
854.898	2750.59
855.081	2816.13
855.265	3481.72
855.448	3274.87
855.631	2736.26
855.814	2879.61
855.997	3254.39
856.181	2986.11
856.364	2930.81
856.547	2695.3
856.73	3043.45
856.913	3119.23
857.096	2670.72
857.279	2979.97
857.462	2924.67
857.645	3336.31
857.828	3135.61
858.011	2986.11
858.194	2936.96
858.377	3217.53
858.56	2795.65
858.743	2871.42
858.926	2922.62
859.109	3203.19
859.292	2838.66
859.475	2834.56
859.658	3414.13
859.841	3317.88
860.023	2717.83
860.206	2590.85
860.389	3068.03
860.572	3274.87
860.755	2789.5
860.937	2689.15
861.12	3055.74
861.303	3065.98
861.486	2775.17
861.668	2582.66
861.851	3219.58
862.034	3135.61
862.216	2934.91
862.399	2549.89
862.581	3197.05
862.764	3420.28
862.947	2873.47
863.129	2752.64
863.312	2850.94
863.494	3477.62
863.677	3139.71
863.859	2564.23
864.042	3387.51
864.224	3377.27
864.406	2828.42
864.589	2560.13
864.771	3178.62
864.954	2709.63
865.136	2689.15
865.318	2568.32
865.501	3209.34
865.683	2510.98
865.865	2734.21
866.048	2705.54
866.23	3031.16
866.412	2953.34
866.594	2609.28
866.777	2873.47
866.959	3100.8
867.141	2764.93
867.323	2869.37
867.505	2848.9
867.687	2896
867.869	3047.55
868.052	2715.78
868.234	2730.11
868.416	3029.12
868.598	3223.67
868.78	2648.19
868.962	2584.71
869.144	3305.59
869.326	3154.04
869.508	2689.15
869.69	2758.78
869.872	2865.28
870.054	3287.16
870.236	2560.13
870.417	2601.09
870.599	2906.24
870.781	3426.42
870.963	2887.81
871.145	2558.08
871.327	2666.63
871.508	3186.81
871.69	2656.39
871.872	2820.22
872.054	2975.87
872.235	3125.37
872.417	2748.54
872.599	2623.62
872.78	3385.46
872.962	2893.95
873.144	2650.24
873.325	2816.13
873.507	3424.37
873.689	3090.56
873.87	2580.61
874.052	2930.81
874.233	2945.15
874.415	3272.82
874.596	2703.49
874.778	2551.94
874.959	2982.01
875.141	3319.93
875.322	2803.84
875.503	2713.73
875.685	2998.4
875.866	2568.32
876.048	2656.39
876.229	2572.42
876.41	2898.05
876.592	3127.42
876.773	2826.37
876.954	2599.04
877.136	3510.39
877.317	2934.91
877.498	2601.09
877.679	2723.97
877.86	3156.09
878.042	3014.78
878.223	2713.73
878.404	3068.03
878.585	3158.14
878.766	3584.12
878.947	3041.4
879.128	2998.4
879.309	3231.87
879.49	3274.87
879.672	2760.83
879.853	2764.93
880.034	2961.53
880.215	3151.99
880.396	2955.39
880.576	2877.57
880.757	3086.46
880.938	3479.67
881.119	2746.5
881.3	2795.65
881.481	3061.88
881.662	4110.44
881.843	2885.76
882.023	2717.83
882.204	3418.23
882.385	3238.01
882.566	2873.47
882.747	2912.38
882.927	3242.11
883.108	3223.67
883.289	2822.27
883.469	3219.58
883.65	3100.8
883.831	3209.34
884.011	3147.9
884.192	3025.02
884.373	3315.83
884.553	3135.61
884.734	3045.5
884.914	3315.83
885.095	4003.95
885.275	3594.36
885.456	3317.88
885.636	2828.42
885.817	3221.63
885.997	3238.01
886.178	2769.02
886.358	3203.19
886.538	3129.47
886.719	4284.52
886.899	2994.3
887.08	3051.64
887.26	3422.33
887.44	3016.83
887.621	2996.35
887.801	3164.28
887.981	3872.88
888.161	3721.33
888.342	3117.18
888.522	3115.13
888.702	3575.92
888.882	3563.64
889.062	3195
889.242	2879.61
889.423	3721.33
889.603	3354.74
889.783	3184.76
889.963	3127.42
890.143	3559.54
890.323	3647.6
890.503	3180.67
890.683	3301.5
890.863	3453.05
891.043	3387.51
891.223	3254.39
891.403	3369.08
891.583	3465.33
891.763	3481.72
891.943	3305.59
892.122	3086.46
892.302	3362.94
892.482	3455.09
892.662	3377.27
892.842	3311.74
893.022	3489.91
893.201	3250.3
893.381	3299.45
893.561	3225.72
893.741	3764.34
893.92	3614.84
894.1	3315.83
894.28	3258.49
894.459	3778.67
894.639	3541.11
894.819	3252.35
894.998	3356.79
895.178	3606.64
895.357	3596.4
895.537	3154.04
895.716	3061.88
895.896	3487.86
896.075	3995.76
896.255	3315.83
896.434	3242.11
896.614	3905.65
896.793	3983.47
896.973	3311.74
897.152	3369.08
897.331	3584.12
897.511	3704.95
897.69	3166.33
897.87	3319.93
898.049	3881.07
898.228	3580.02
898.407	3487.86
898.587	3377.27
898.766	3412.09
898.945	3590.26
899.124	3461.24
899.304	3336.31
899.483	3768.43
899.662	4030.57
899.841	3311.74
900.02	3238.01
900.199	3817.58
900.378	3666.03
900.557	3151.99
900.737	2926.72
900.916	3700.85
901.095	3651.7
901.274	3403.89
901.453	3106.94
901.632	3254.39
901.811	3326.07
901.989	3293.3
902.168	3039.36
902.347	3754.1
902.526	3315.83
902.705	3166.33
902.884	3264.63
903.063	4008.05
903.242	3903.6
903.42	3111.04
903.599	3344.5
903.778	3737.71
903.957	3922.03
904.135	3414.13
904.314	3362.94
904.493	3618.93
904.672	3567.73
904.85	3291.26
905.029	3268.73
905.207	3633.27
905.386	4221.03
905.565	3092.6
905.743	3203.19
905.922	3524.72
906.1	3592.31
906.279	3197.05
906.457	3217.53
906.636	3428.47
906.814	3276.92
906.993	3172.47
907.171	3154.04
907.35	3553.4
907.528	3659.89
907.707	3410.04
907.885	3131.51
908.063	3817.58
908.242	3215.48
908.42	3000.44
908.598	2904.19
908.777	3537.01
908.955	3281.02
909.133	3346.55
909.311	2900.09
909.49	3430.52
909.668	3350.65
909.846	3186.81
910.024	3074.17
910.202	3420.28
910.38	3451
910.559	2932.86
910.737	2967.68
910.915	3569.78
911.093	3475.57
911.271	3074.17
911.449	3338.36
911.627	3428.47
911.805	3790.96
911.983	3156.09
912.161	3158.14
912.339	3434.61
912.517	3678.32
912.695	3151.99
912.872	3178.62
913.05	3137.66
913.228	3418.23
913.406	3080.32
913.584	2963.58
913.762	3520.63
913.939	3151.99
914.117	2998.4
914.295	2988.16
914.473	3295.35
914.65	3420.28
914.828	3051.64
915.006	2875.52
915.184	3129.47
915.361	3393.65
915.539	3074.17
915.716	3268.73
915.894	3270.78
916.072	3389.56
916.249	3201.15
916.427	2971.77
916.604	2795.65
916.782	3170.43
916.959	2756.74
917.137	3063.93
917.314	3254.39
917.492	3197.05
917.669	2922.62
917.847	3010.68
918.024	3301.5
918.201	2963.58
918.379	2918.53
918.556	3051.64
918.733	3217.53
918.911	3063.93
919.088	3061.88
919.265	2803.84
919.442	3137.66
919.62	3020.92
919.797	2861.18
919.974	2627.71
920.151	3221.63
920.328	3135.61
920.506	2832.51
920.683	2992.25
920.86	2771.07
921.037	2973.82
921.214	2807.94
921.391	2730.11
921.568	3385.46
921.745	2926.72
921.922	2760.83
922.099	2701.44
922.276	3256.44
922.453	3016.83
922.63	2713.73
922.807	2920.57
922.984	3108.99
923.161	2764.93
923.338	2666.63
923.514	2633.86
923.691	2932.86
923.868	3031.16
924.045	2730.11
924.222	2543.75
924.399	2986.11
924.575	3108.99
924.752	2711.68
924.929	2834.56
925.105	2914.43
925.282	2568.32
925.459	2658.43
925.635	2652.29
925.812	2924.67
925.989	2660.48
926.165	2812.03
926.342	2386.05
926.518	2517.12
926.695	2846.85
926.871	2570.37
927.048	2488.45
927.224	3082.36
927.401	2662.53
927.577	2697.35
927.754	2472.07
927.93	2984.06
928.107	2973.82
928.283	2402.44
928.459	2697.35
928.636	2840.7
928.812	2691.2
928.988	2447.49
929.165	2279.56
929.341	2775.17
929.517	2771.07
929.693	2744.45
929.87	2277.51
930.046	2828.42
930.222	2564.23
930.398	2312.33
930.574	2584.71
930.751	2736.26
930.927	2605.19
931.103	2404.49
931.279	2465.93
931.455	2422.92
931.631	2541.7
931.807	2293.9
931.983	2181.26
932.159	2205.83
932.335	2658.43
932.511	2289.8
932.687	2240.65
932.863	2687.11
933.039	2349.19
933.215	2123.91
933.391	2054.28
933.566	2408.58
933.742	2365.57
933.918	2234.5
934.094	2056.33
934.27	2443.4
934.445	2357.38
934.621	2166.92
934.797	2125.96
934.973	2504.84
935.148	2261.13
935.324	1833.1
935.5	1730.7
935.675	2525.32
935.851	2250.89
936.027	1884.3
936.202	2021.52
936.378	2187.4
936.553	2109.58
936.729	2277.51
936.904	1734.8
937.08	1835.15
937.255	1933.45
937.431	1742.99
937.606	1603.73
937.782	1779.86
937.957	1892.49
938.133	1675.41
938.308	1575.06
938.483	1851.53
938.659	1579.15
938.834	1556.63
939.009	1403.03
939.185	1708.18
939.36	1573.01
939.535	1151.13
939.71	1695.89
939.886	1884.3
940.061	1767.57
940.236	1534.1
940.411	1398.93
940.586	1695.89
940.761	1659.03
940.937	1394.84
941.112	1337.49
941.287	1427.6
941.462	1519.76
941.637	1128.6
941.812	1286.3
941.987	1460.37
942.162	1478.8
942.337	1411.22
942.512	1265.82
942.687	1749.14
942.862	1661.07
943.037	962.72
943.212	864.41
943.386	1288.34
943.561	1398.93
943.736	1333.4
943.911	1511.57
944.086	1519.76
944.26	1419.41
944.435	1120.41
944.61	1192.09
944.785	1659.03
944.959	1847.44
945.134	1144.99
945.309	1036.44
945.483	1185.94
945.658	1691.79
945.833	858.27
946.007	1044.63
946.182	1747.09
946.357	1085.59
946.531	1065.11
946.706	1038.49
946.88	985.24
947.055	1476.76
947.229	1042.59
947.404	880.8
947.578	1611.92
947.752	1265.82
947.927	993.44
948.101	1036.44
948.276	1378.45
948.45	1388.69
948.624	1216.66
948.799	1042.59
948.973	1384.6
949.147	1036.44
949.321	1155.23
949.496	1153.18
949.67	1611.92
949.844	1239.19
950.018	1204.38
950.193	1126.55
950.367	1878.16
950.541	1194.14
950.715	1282.2
950.889	1220.76
951.063	1280.15
951.237	1482.9
951.411	952.48
951.585	1028.25
951.759	1519.76
951.933	1390.74
952.107	1144.99
952.281	1362.07
952.455	1704.08
952.629	1540.24
952.803	1067.16
952.977	1005.72
953.151	1609.87
953.325	1429.65
953.499	1296.53
953.672	972.96
953.846	1071.26
954.02	1142.94
954.194	1011.87
954.368	1052.83
954.541	1454.23
954.715	1202.33
954.889	1165.46
955.062	962.72
955.236	1226.9
955.41	1314.97
955.583	1280.15
955.757	962.72
955.93	1302.68
956.104	1149.08
956.278	1140.89
956.451	1167.51
956.625	1452.18
956.798	1788.05
956.972	1386.65
957.145	1015.96
957.319	1390.74
957.492	1237.14
957.665	1294.49
957.839	1054.87
958.012	1450.13
958.185	1202.33
958.359	1099.93
958.532	1206.42
958.705	1542.29
958.879	1390.74
959.052	1194.14
959.225	860.32
959.398	1231
959.572	1456.28
959.745	1003.68
959.918	1030.3
960.091	1263.77
960.264	1384.6
960.438	915.61
960.611	985.24
960.784	1583.25
960.957	1284.25
961.13	1276.06
961.303	1020.06
961.476	1296.53
961.649	1525.91
961.822	1005.72
961.995	1149.08
962.168	1355.93
962.341	1362.07
962.514	1075.35
962.686	1024.16
962.859	1278.1
963.032	1294.49
963.205	960.67
963.378	970.91
963.551	1364.12
963.723	1296.53
963.896	1179.8
964.069	1081.5
964.242	1128.6
964.414	1523.86
964.587	1040.54
964.76	1050.78
964.932	1280.15
965.105	1253.53
965.278	1015.96
965.45	940.19
965.623	1421.46
965.795	1378.45
965.968	1026.2
966.14	1046.68
966.313	1237.14
966.485	1347.73
966.658	1015.96
966.83	1013.92
967.003	1585.3
967.175	1443.99
967.348	1030.3
967.52	972.96
967.692	1589.39
967.865	1372.31
968.037	1075.35
968.209	1349.78
968.382	1198.23
968.554	1527.96
968.726	1005.72
968.898	979.1
969.071	1296.53
969.243	1433.75
969.415	1095.83
969.587	1118.36
969.759	1699.98
969.932	1429.65
970.104	1050.78
970.276	663.71
970.448	1157.27
970.62	1228.95
970.792	1142.94
970.964	1101.98
971.136	1740.94
971.308	1376.41
971.48	907.42
971.652	1028.25
971.824	1493.14
971.996	1153.18
972.168	1087.64
972.339	1026.2
972.511	1464.47
972.683	1144.99
972.855	1118.36
973.027	987.29
973.199	1204.38
973.37	1347.73
973.542	1101.98
973.714	1159.32
973.886	1247.38
974.057	1386.65
974.229	911.52
974.401	932
974.572	1028.25
974.744	841.89
974.915	880.8
975.087	1081.5
975.259	1542.29
975.43	1089.69
975.602	1038.49
975.773	915.61
975.945	1028.25
976.116	1331.35
976.288	921.76
976.459	1210.52
976.63	1243.29
976.802	1339.54
976.973	972.96
977.145	1040.54
977.316	1568.91
977.487	1239.19
977.659	1061.02
977.83	1020.06
978.001	1681.55
978.172	1247.38
978.344	852.13
978.515	1020.06
978.686	1032.35
978.857	1505.43
979.028	997.53
979.2	856.22
979.371	1415.32
979.542	1110.17
979.713	1179.8
979.884	673.95
980.055	1054.87
980.226	997.53
980.397	934.04
980.568	825.5
980.739	1386.65
980.91	1163.42
981.081	1112.22
981.252	927.9
981.423	1357.97
981.594	1443.99
981.765	827.55
981.936	999.58
982.106	1165.46
982.277	1343.64
982.448	940.19
982.619	1112.22
982.79	1030.3
982.96	1421.46
983.131	934.04
983.302	669.86
983.472	1118.36
983.643	1284.25
983.814	954.52
983.984	796.83
984.155	1032.35
984.326	1265.82
984.496	1042.59
984.667	891.04
984.837	932
985.008	1407.13
985.178	1093.79
985.349	891.04
985.519	1194.14
985.69	934.04
985.86	880.8
986.031	796.83
986.201	1185.94
986.371	1128.6
986.542	762.02
986.712	682.14
986.882	1257.62
987.053	1153.18
987.223	657.57
987.393	1081.5
987.563	1015.96
987.734	1282.2
987.904	1140.89
988.074	843.93
988.244	1183.9
988.414	944.28
988.585	784.54
988.755	868.51
988.925	1038.49
989.095	1370.26
989.265	764.06
989.435	800.93
989.605	1200.28
989.775	1140.89
989.945	1083.55
990.115	698.53
990.285	1099.93
990.455	1163.42
990.625	903.32
990.795	813.21
990.965	1378.45
991.134	909.47
991.304	669.86
991.474	723.1
991.644	1104.03
991.814	1398.93
991.984	661.66
992.153	766.11
992.323	985.24
992.493	956.57
992.662	477.35
992.832	878.75
993.002	1093.79
993.171	1061.02
993.341	592.03
993.511	960.67
993.68	923.8
993.85	1140.89
994.019	536.74
994.189	635.04
994.358	1104.03
994.528	897.18
994.697	407.72
994.867	569.51
995.036	1167.51
995.206	819.36
995.375	575.65
995.544	807.07
995.714	1104.03
995.883	927.9
996.052	821.41
996.222	485.54
996.391	1476.76
996.56	1058.97
996.73	561.31
996.899	565.41
997.068	1278.1
997.237	944.28
997.406	649.38
997.576	471.2
997.745	960.67
997.914	1013.92
998.083	440.48
998.252	573.6
998.421	1116.31
998.59	690.34
998.759	553.12
998.928	432.29
999.097	1151.13
999.266	962.72
999.435	800.93
999.604	417.96
999.773	1312.92
999.942	854.17
1000.111	434.34
1000.28	520.35
1000.448	661.66
1000.617	575.65
1000.786	751.78
1000.955	501.92
1001.124	874.65
1001.292	1575.06
1001.461	506.02
1001.63	497.83
1001.798	1382.55
1001.967	1187.99
1002.136	460.96
1002.304	518.31
1002.473	1011.87
1002.642	819.36
1002.81	589.99
1002.979	555.17
1003.147	1005.72
1003.316	1339.54
1003.484	510.11
1003.653	495.78
1003.821	1151.13
1003.99	790.69
1004.158	661.66
1004.327	624.8
1004.495	964.76
1004.663	630.95
1004.832	637.09
1005	477.35
1005.168	1054.87
1005.337	934.04
1005.505	358.57
1005.673	641.18
1005.842	979.1
1006.01	901.28
1006.178	428.2
1006.346	403.62
1006.514	831.65
1006.683	1095.83
1006.851	454.82
1007.019	313.51
1007.187	643.23
1007.355	383.14
1007.523	352.42
1007.691	252.07
1007.859	493.73
1008.027	1126.55
1008.195	551.07
1008.363	397.48
1008.531	985.24
1008.699	614.56
1008.867	184.49
1009.035	503.97
1009.203	997.53
1009.37	757.92
1009.538	448.68
1009.706	882.85
1009.874	823.45
1010.042	632.99
1010.209	321.7
1010.377	231.59
1010.545	987.29
1010.713	733.34
1010.88	250.02
1011.048	471.2
1011.216	688.29
1011.383	1034.39
1011.551	325.8
1011.718	321.7
1011.886	970.91
1012.054	694.43
1012.221	383.14
1012.389	354.47
1012.556	649.38
1012.724	1136.79
1012.891	503.97
1013.058	252.07
1013.226	866.46
1013.393	852.13
1013.561	266.41
1013.728	252.07
1013.895	903.32
1014.063	915.61
1014.23	239.78
1014.397	256.17
1014.565	884.89
1014.732	594.08
1014.899	278.69
1015.066	276.65
1015.233	747.68
1015.401	972.96
1015.568	432.29
1015.735	469.16
1015.902	764.06
1016.069	796.83
1016.236	354.47
1016.403	336.04
1016.57	426.15
1016.737	927.9
1016.904	420
1017.071	174.25
1017.238	594.08
1017.405	782.49
1017.572	350.37
1017.739	503.97
1017.906	805.02
1018.073	852.13
1018.24	309.41
1018.407	350.37
1018.573	903.32
1018.74	612.51
1018.907	338.09
1019.074	215.21
1019.241	829.6
1019.407	706.72
1019.574	231.59
1019.741	170.15
1019.907	624.8
1020.074	780.45
1020.241	80.04
1020.407	211.11
1020.574	733.34
1020.74	737.44
1020.907	401.57
1021.073	217.26
1021.24	1097.88
1021.406	991.39
1021.573	290.98
1021.739	317.61
1021.906	927.9
1022.072	647.33
1022.239	245.93
1022.405	278.69
1022.571	682.14
1022.738	415.91
1022.904	184.49
1023.07	391.33
1023.237	690.34
1023.403	772.25
1023.569	231.59
1023.735	311.46
1023.902	725.15
1024.068	702.62
1024.234	92.33
1024.4	209.06
1024.566	716.96
1024.732	837.79
1024.898	260.26
1025.065	-12.12
1025.231	796.83
1025.397	469.16
1025.563	219.3
1025.729	188.58
1025.895	196.78
1026.061	327.85
1026.227	55.47
1026.392	182.44
1026.558	809.12
1026.724	686.24
1026.89	174.25
1027.056	227.5
1027.222	647.33
1027.388	520.35
1027.553	200.87
1027.719	82.09
1027.885	911.52
1028.051	637.09
1028.216	-5.97
1028.382	151.72
1028.548	792.73
1028.713	508.07
1028.879	112.81
1029.045	387.24
1029.21	782.49
1029.376	811.17
1029.541	239.78
1029.707	250.02
1029.873	600.23
1030.038	712.86
1030.204	182.44
1030.369	155.82
1030.534	735.39
1030.7	479.4
1030.865	272.55
1031.031	159.91
1031.196	649.38
1031.361	592.03
1031.527	153.77
1031.692	82.09
1031.857	133.29
1032.023	678.05
1032.188	12.46
1032.353	243.88
1032.518	772.25
1032.684	546.98
1032.849	34.99
1033.014	188.58
1033.179	628.9
1033.344	661.66
1033.509	229.54
1033.674	104.62
1033.839	696.48
1034.004	682.14
1034.17	114.86
1034.335	30.89
1034.5	422.05
1034.664	358.57
1034.829	75.95
1034.994	221.35
1035.159	546.98
1035.324	592.03
1035.489	157.86
1035.654	110.76
1035.819	831.65
1035.984	575.65
1036.148	190.63
1036.313	121
1036.478	827.55
1036.643	510.11
1036.807	133.29
1036.972	67.75
1037.137	776.35
1037.301	587.94
1037.466	10.41
1037.631	168.1
1037.795	714.91
1037.96	559.27
1038.124	288.93
1038.289	59.56
1038.454	620.71
1038.618	575.65
1038.783	155.82
1038.947	266.41
1039.111	565.41
1039.276	372.9
1039.44	49.32
1039.605	567.46
1039.769	381.09
1039.933	477.35
1040.098	131.24
1040.262	311.46
1040.426	673.95
1040.591	702.62
1040.755	75.95
1040.919	96.43
1041.083	573.6
1041.248	358.57
1041.412	65.71
1041.576	-75.6
1041.74	405.67
1041.904	598.18
1042.068	-48.98
1042.232	88.23
1042.397	643.23
1042.561	608.42
1042.725	-180.05
1042.889	241.83
1043.053	587.94
1043.217	630.95
1043.381	186.54
1043.544	-46.93
1043.708	706.72
1043.872	176.3
1044.036	-159.57
1044.2	-3.93
1044.364	743.58
1044.528	813.21
1044.691	1347.73
1044.855	-98.13
1045.019	741.54
1045.183	577.7
1045.346	71.85
1045.51	-96.08
1045.674	557.22
1045.837	538.79
1046.001	65.71
1046.165	-8.02
1046.328	997.53
1046.492	587.94
1046.655	202.92
1046.819	127.14
1046.983	266.41
1047.146	563.36
1047.31	149.67
1047.473	-159.57
1047.636	456.87
1047.8	202.92
1047.963	131.24
1048.127	-61.27
1048.29	196.78
