Data from Ink_Intensity_USB4F045381__60__00060.txt Node

Date: Mon Jul 17 10:25:05 EDT 2023
User: mmckonesweet
Spectrometer: USB4F04538
Trigger mode: 4
Integration Time (sec): 9.000000E-1
Scans to average: 1
Electric dark correction enabled: true
Nonlinearity correction enabled: false
Boxcar width: 0
XAxis mode: Wavelengths
Number of Pixels in Spectrum: 3648
>>>>>Begin Spectral Data<<<<<
345.52	-978.42
345.736	-978.42
345.952	-978.42
346.168	-978.42
346.384	-974.32
346.6	-110.08
346.816	-212.48
347.032	-169.47
347.248	123.39
347.464	-323.07
347.68	-79.36
347.896	123.39
348.112	401.91
348.328	-34.3
348.544	-159.23
348.76	141.82
348.975	297.47
349.191	-265.72
349.407	-173.57
349.623	-19.97
349.839	-34.3
350.055	-153.09
350.27	16.9
350.486	156.16
350.702	281.08
350.918	258.56
351.133	-103.93
351.349	117.25
351.565	424.44
351.781	-298.49
351.996	10.75
352.212	244.22
352.428	-261.63
352.644	-163.33
352.859	-306.68
353.075	305.66
353.291	66.05
353.506	-153.09
353.722	-237.05
353.938	-42.5
354.153	467.45
354.369	172.54
354.584	-173.57
354.8	152.06
355.016	-294.4
355.231	-300.54
355.447	-192
355.662	78.33
355.878	819.7
356.093	-386.55
356.309	-73.21
356.524	-185.85
356.74	211.45
356.955	-228.86
357.171	-52.74
357.386	201.21
357.602	-187.9
357.817	-71.17
358.033	-210.43
358.248	291.32
358.464	240.12
358.679	-108.03
358.895	-314.88
359.11	-34.3
359.325	289.28
359.541	35.33
359.756	-89.6
359.972	-341.5
360.187	174.59
360.402	-218.62
360.618	-204.28
360.833	932.34
361.048	162.3
361.264	-273.92
361.479	-56.83
361.694	4.61
361.909	172.54
362.125	-179.71
362.34	-175.61
362.555	233.98
362.77	137.73
362.986	-323.07
363.201	-73.21
363.416	121.34
363.631	-38.4
363.847	-249.34
364.062	-163.33
364.277	111.1
364.492	168.45
364.707	-183.81
364.922	-316.92
365.138	250.36
365.353	375.29
365.568	-187.9
365.783	-151.04
365.998	57.86
366.213	508.41
366.428	-257.53
366.643	18.94
366.858	254.46
367.073	164.35
367.288	-97.79
367.503	-249.34
367.718	115.2
367.933	219.64
368.148	-335.35
368.363	-87.55
368.578	-24.06
368.793	455.16
369.008	-95.74
369.223	-275.96
369.438	242.17
369.653	358.91
369.868	-308.73
370.083	-192
370.298	84.48
370.513	414.2
370.728	-1.54
370.943	-187.9
371.157	-192
371.372	494.07
371.587	-339.45
371.802	-294.4
372.017	-19.97
372.232	340.47
372.446	-97.79
372.661	-284.16
372.876	246.27
373.091	184.83
373.306	-56.83
373.52	-292.35
373.735	-208.38
373.95	426.49
374.165	-99.84
374.379	-93.69
374.594	-126.46
374.809	94.72
375.023	98.81
375.238	-259.58
375.453	238.08
375.667	-202.24
375.882	-224.76
376.097	-175.61
376.311	55.81
376.526	45.57
376.741	-241.15
376.955	119.29
377.17	543.22
377.384	559.61
377.599	-73.21
377.813	-237.05
378.028	596.47
378.242	225.79
378.457	-192
378.672	-343.55
378.886	45.57
379.101	18.94
379.315	-351.74
379.53	-151.04
379.744	117.25
379.958	193.02
380.173	-185.85
380.387	-187.9
380.602	127.49
380.816	-95.74
381.031	-81.41
381.245	-171.52
381.459	197.12
381.674	2669.02
381.888	-253.44
382.103	18.94
382.317	-220.67
382.531	395.77
382.746	-118.27
382.96	-157.18
383.174	-136.7
383.388	444.92
383.603	18.94
383.817	-318.97
384.031	117.25
384.246	416.25
384.46	-24.06
384.674	342.52
384.888	25.09
385.103	0.51
385.317	-351.74
385.531	-52.74
385.745	342.52
385.959	279.04
386.174	-245.24
386.388	-378.36
386.602	-46.59
386.816	-122.37
387.03	-114.17
387.244	-116.22
387.458	-30.21
387.672	381.43
387.887	-357.88
388.101	-273.92
388.315	356.86
388.529	141.82
388.743	-208.38
388.957	-208.38
389.171	303.61
389.385	-241.15
389.599	-212.48
389.813	45.57
390.027	217.6
390.241	621.05
390.455	-153.09
390.669	-153.09
390.883	-89.6
391.097	328.19
391.311	-36.35
391.525	-226.81
391.738	180.73
391.952	158.21
392.166	-108.03
392.38	-161.28
392.594	236.03
392.808	274.94
393.022	-89.6
393.236	-130.56
393.449	178.69
393.663	207.36
393.877	-298.49
394.091	-101.89
394.305	-163.33
394.518	-122.37
394.732	-400.89
394.946	-198.14
395.16	492.02
395.373	100.86
395.587	-222.72
395.801	-192
396.015	309.76
396.228	168.45
396.442	-280.06
396.656	-333.31
396.869	426.49
397.083	426.49
397.297	-28.16
397.51	-232.96
397.724	365.05
397.938	76.29
398.151	-286.2
398.365	-265.72
398.578	248.32
398.792	430.59
399.005	-17.92
399.219	-134.65
399.433	55.81
399.646	176.64
399.86	-19.97
400.073	-15.87
400.287	147.97
400.5	-81.41
400.714	12.8
400.927	-9.73
401.141	197.12
401.354	1004.02
401.567	135.68
401.781	-290.3
401.994	268.8
402.208	582.14
402.421	-122.37
402.635	-101.89
402.848	-30.21
403.061	328.19
403.275	-24.06
403.488	-278.01
403.701	455.16
403.915	260.6
404.128	-50.69
404.341	-175.61
404.555	115.2
404.768	-22.02
404.981	111.1
405.195	-126.46
405.408	485.88
405.621	254.46
405.834	45.57
406.048	-187.9
406.261	455.16
406.474	461.3
406.687	-206.33
406.9	4.61
407.114	-60.93
407.327	141.82
407.54	-300.54
407.753	-343.55
407.966	-97.79
408.179	139.77
408.392	-226.81
408.605	-368.12
408.819	76.29
409.032	233.98
409.245	-228.86
409.458	37.38
409.671	223.74
409.884	320
410.097	-300.54
410.31	84.48
410.523	236.03
410.736	-48.64
410.949	-175.61
411.162	-148.99
411.375	356.86
411.588	301.56
411.801	6.66
412.014	-204.28
412.227	-32.26
412.44	4.61
412.653	-114.17
412.865	84.48
413.078	303.61
413.291	170.49
413.504	-48.64
413.717	-253.44
413.93	299.52
414.143	-263.68
414.356	-128.51
414.568	-359.93
414.781	344.57
414.994	51.71
415.207	-89.6
415.42	-128.51
415.632	225.79
415.845	532.98
416.058	-280.06
416.271	-355.83
416.483	41.47
416.696	508.41
416.909	-198.14
417.121	-294.4
417.334	143.87
417.547	434.68
417.759	-185.85
417.972	-259.58
418.185	-112.13
418.397	150.01
418.61	-200.19
418.823	-159.23
419.035	446.97
419.248	-13.82
419.46	-142.85
419.673	-50.69
419.885	236.03
420.098	20.99
420.311	-89.6
420.523	-335.35
420.736	135.68
420.948	-13.82
421.161	-204.28
421.373	-331.26
421.586	158.21
421.798	-124.41
422.01	-325.12
422.223	-19.97
422.435	-30.21
422.648	162.3
422.86	-171.52
423.073	-148.99
423.285	299.52
423.497	-282.11
423.71	-228.86
423.922	-273.92
424.134	139.77
424.347	375.29
424.559	41.47
424.771	166.4
424.984	-130.56
425.196	115.2
425.408	-343.55
425.621	-257.53
425.833	270.84
426.045	295.42
426.257	-208.38
426.47	-202.24
426.682	125.44
426.894	129.53
427.106	-237.05
427.318	-60.93
427.531	-126.46
427.743	221.69
427.955	-202.24
428.167	215.55
428.379	139.77
428.591	33.28
428.804	-120.32
429.016	-259.58
429.228	-36.35
429.44	229.88
429.652	-7.68
429.864	-296.44
430.076	-56.83
430.288	-71.17
430.5	-79.36
430.712	-122.37
430.924	360.95
431.136	131.58
431.348	-357.88
431.56	-259.58
431.772	-32.26
431.984	-26.11
432.196	-286.2
432.408	-210.43
432.62	-13.82
432.832	162.3
433.044	88.57
433.256	-30.21
433.468	238.08
433.679	-296.44
433.891	-241.15
434.103	-93.69
434.315	375.29
434.527	195.07
434.739	-167.42
434.95	-118.27
435.162	272.89
435.374	-151.04
435.586	-54.78
435.798	-179.71
436.009	-259.58
436.221	-48.64
436.433	-187.9
436.645	-208.38
436.856	-155.13
437.068	340.47
437.28	-206.33
437.491	80.38
437.703	121.34
437.915	57.86
438.126	-122.37
438.338	53.76
438.55	47.62
438.761	139.77
438.973	-171.52
439.184	-124.41
439.396	-36.35
439.608	262.65
439.819	-327.16
440.031	-89.6
440.242	178.69
440.454	156.16
440.665	-148.99
440.877	-81.41
441.088	125.44
441.3	-56.83
441.511	-390.65
441.723	-226.81
441.934	156.16
442.146	18.94
442.357	-17.92
442.569	104.96
442.78	35.33
442.991	410.11
443.203	129.53
443.414	-312.83
443.626	315.9
443.837	-167.42
444.048	-286.2
444.26	-302.59
444.471	80.38
444.682	199.16
444.894	-325.12
445.105	-312.83
445.316	274.94
445.528	86.53
445.739	-62.98
445.95	-173.57
446.161	115.2
446.373	258.56
446.584	-136.7
446.795	-210.43
447.006	215.55
447.217	500.22
447.429	-341.5
447.64	-316.92
447.851	328.19
448.062	66.05
448.273	-413.18
448.484	-294.4
448.695	229.88
448.907	-93.69
449.118	-126.46
449.329	53.76
449.54	-118.27
449.751	-265.72
449.962	-200.19
450.173	-185.85
450.384	281.08
450.595	385.53
450.806	-228.86
451.017	-208.38
451.228	365.05
451.439	229.88
451.65	-181.76
451.861	-390.65
452.072	-179.71
452.283	-13.82
452.494	8.7
452.705	-251.39
452.915	492.02
453.126	117.25
453.337	-212.48
453.548	-214.52
453.759	315.9
453.97	535.03
454.181	33.28
454.391	-148.99
454.602	102.91
454.813	215.55
455.024	-116.22
455.235	-237.05
455.445	100.86
455.656	147.97
455.867	-22.02
456.078	-271.87
456.288	-7.68
456.499	78.33
456.71	-302.59
456.921	-58.88
457.131	53.76
457.342	72.19
457.553	-58.88
457.763	-183.81
457.974	156.16
458.184	289.28
458.395	-235
458.606	-376.31
458.816	332.28
459.027	463.35
459.237	-58.88
459.448	-447.99
459.659	328.19
459.869	588.28
460.08	-351.74
460.29	-60.93
460.501	438.78
460.711	-89.6
460.922	-345.59
461.132	-237.05
461.343	813.56
461.553	-275.96
461.764	-198.14
461.974	-202.24
462.184	238.08
462.395	102.91
462.605	-167.42
462.816	-288.25
463.026	25.09
463.236	274.94
463.447	-288.25
463.657	-329.21
463.867	168.45
464.078	-95.74
464.288	-114.17
464.498	-298.49
464.709	-26.11
464.919	-114.17
465.129	-161.28
465.339	-282.11
465.55	82.43
465.76	184.83
465.97	-179.71
466.18	-228.86
466.391	252.41
466.601	111.1
466.811	-136.7
467.021	-323.07
467.231	125.44
467.441	291.32
467.651	-194.05
467.862	-470.52
468.072	-60.93
468.282	287.23
468.492	-275.96
468.702	-226.81
468.912	64
469.122	651.77
469.332	96.77
469.542	-306.68
469.752	156.16
469.962	-3.58
470.172	-333.31
470.382	-337.4
470.592	172.54
470.802	393.72
471.012	-144.89
471.222	-282.11
471.432	195.07
471.642	205.31
471.852	-138.75
472.062	-286.2
472.272	-69.12
472.482	-243.2
472.691	-232.96
472.901	-300.54
473.111	98.81
473.321	459.26
473.531	-366.07
473.741	-65.02
473.95	107.01
474.16	213.5
474.37	-171.52
474.58	-312.83
474.79	494.07
474.999	205.31
475.209	-280.06
475.419	-232.96
475.628	-26.11
475.838	266.75
476.048	-173.57
476.258	-323.07
476.467	305.66
476.677	-32.26
476.886	-26.11
477.096	-157.18
477.306	-91.65
477.515	287.23
477.725	-159.23
477.935	-169.47
478.144	389.63
478.354	-89.6
478.563	-212.48
478.773	-255.48
478.982	242.17
479.192	295.42
479.401	-179.71
479.611	-329.21
479.82	-204.28
480.03	74.24
480.239	-372.22
480.449	-323.07
480.658	385.53
480.868	-220.67
481.077	-99.84
481.287	-230.91
481.496	74.24
481.705	371.19
481.915	72.19
482.124	82.43
482.333	16.9
482.543	354.81
482.752	-177.66
482.961	-318.97
483.171	190.97
483.38	31.23
483.589	-210.43
483.799	-308.73
484.008	2.56
484.217	270.84
484.426	-177.66
484.636	-382.46
484.845	82.43
485.054	-228.86
485.263	107.01
485.472	-212.48
485.682	453.11
485.891	6.66
486.1	-347.64
486.309	-292.35
486.518	64
486.727	459.26
486.936	-325.12
487.146	-99.84
487.355	346.62
487.564	-196.09
487.773	-253.44
487.982	-155.13
488.191	-73.21
488.4	-1.54
488.609	-196.09
488.818	-228.86
489.027	592.37
489.236	328.19
489.445	-200.19
489.654	-333.31
489.863	305.66
490.072	70.14
490.281	123.39
490.49	-151.04
490.698	438.78
490.907	338.43
491.116	-204.28
491.325	-376.31
491.534	311.8
491.743	82.43
491.952	-134.65
492.16	-259.58
492.369	160.25
492.578	238.08
492.787	-54.78
492.996	-388.6
493.204	-103.93
493.413	524.79
493.622	-392.7
493.831	-396.79
494.039	301.56
494.248	-196.09
494.457	-286.2
494.665	-355.83
494.874	147.97
495.083	532.98
495.291	-196.09
495.5	-249.34
495.709	233.98
495.917	-34.3
496.126	-132.61
496.335	-220.67
496.543	-60.93
496.752	94.72
496.96	-40.45
497.169	-372.22
497.377	-15.87
497.586	266.75
497.794	-91.65
498.003	-462.33
498.211	20.99
498.42	336.38
498.628	-91.65
498.837	-286.2
499.045	268.8
499.254	25.09
499.462	-226.81
499.671	-304.64
499.879	340.47
500.087	223.74
500.296	-235
500.504	-267.77
500.713	80.38
500.921	461.3
501.129	-312.83
501.338	-253.44
501.546	188.93
501.754	35.33
501.962	-161.28
502.171	-275.96
502.379	109.05
502.587	469.5
502.795	-237.05
503.004	-116.22
503.212	49.66
503.42	303.61
503.628	-271.87
503.837	-103.93
504.045	182.78
504.253	481.78
504.461	-282.11
504.669	-491
504.877	193.02
505.085	381.43
505.294	-425.47
505.502	-93.69
505.71	96.77
505.918	172.54
506.126	-261.63
506.334	-333.31
506.542	-30.21
506.75	133.63
506.958	-81.41
507.166	-200.19
507.374	-142.85
507.582	483.83
507.79	-132.61
507.998	-325.12
508.206	137.73
508.414	139.77
508.622	-288.25
508.83	-206.33
509.037	444.92
509.245	-13.82
509.453	-298.49
509.661	-351.74
509.869	221.69
510.077	-3.58
510.285	-75.26
510.492	-529.91
510.7	625.14
510.908	-112.13
511.116	-208.38
511.324	-333.31
511.531	-56.83
511.739	47.62
511.947	-103.93
512.155	80.38
512.362	47.62
512.57	-165.37
512.778	-273.92
512.985	-419.32
513.193	287.23
513.401	340.47
513.608	-216.57
513.816	-245.24
514.024	164.35
514.231	383.48
514.439	-265.72
514.646	-265.72
514.854	170.49
515.061	221.69
515.269	-251.39
515.477	-310.78
515.684	-208.38
515.892	207.36
516.099	-372.22
516.307	-345.59
516.514	133.63
516.722	434.68
516.929	-288.25
517.136	-427.51
517.344	444.92
517.551	88.57
517.759	-310.78
517.966	-259.58
518.173	-81.41
518.381	20.99
518.588	-155.13
518.796	-292.35
519.003	215.55
519.21	-3.58
519.418	-239.1
519.625	78.33
519.832	49.66
520.039	82.43
520.247	-392.7
520.454	-245.24
520.661	209.4
520.868	205.31
521.076	-140.8
521.283	-271.87
521.49	586.23
521.697	154.11
521.904	-196.09
522.112	-220.67
522.319	143.87
522.526	123.39
522.733	-325.12
522.94	-284.16
523.147	129.53
523.354	264.7
523.561	-447.99
523.768	-95.74
523.975	254.46
524.183	64
524.39	-126.46
524.597	-452.09
524.804	92.67
525.011	-120.32
525.218	-343.55
525.425	-314.88
525.632	418.3
525.838	-153.09
526.045	-224.76
526.252	-275.96
526.459	1161.71
526.666	815.6
526.873	-253.44
527.08	-273.92
527.287	315.9
527.494	236.03
527.701	-376.31
527.907	-318.97
528.114	162.3
528.321	-52.74
528.528	-263.68
528.735	-282.11
528.941	-101.89
529.148	-105.98
529.355	-167.42
529.562	-271.87
529.768	461.3
529.975	-1.54
530.182	-230.91
530.388	-351.74
530.595	219.64
530.802	-138.75
531.008	-99.84
531.215	-202.24
531.422	668.15
531.628	795.12
531.835	-161.28
532.042	-228.86
532.248	-134.65
532.455	90.62
532.661	-173.57
532.868	-294.4
533.074	35.33
533.281	279.04
533.487	-175.61
533.694	-288.25
533.9	-196.09
534.107	197.12
534.313	-331.26
534.52	-343.55
534.726	203.26
534.933	600.57
535.139	-468.47
535.345	-355.83
535.552	133.63
535.758	88.57
535.965	-114.17
536.171	-206.33
536.377	168.45
536.584	354.81
536.79	-308.73
536.996	-163.33
537.203	68.09
537.409	180.73
537.615	-282.11
537.821	-130.56
538.028	213.5
538.234	242.17
538.44	-265.72
538.646	-202.24
538.853	182.78
539.059	12.8
539.265	193.02
539.471	-499.19
539.677	254.46
539.883	-40.45
540.09	-259.58
540.296	141.82
540.502	-5.63
540.708	-116.22
540.914	-140.8
541.12	-267.77
541.326	117.25
541.532	-26.11
541.738	-230.91
541.944	-218.62
542.15	311.8
542.356	0.51
542.562	-294.4
542.768	-116.22
542.974	653.81
543.18	522.74
543.386	-296.44
543.592	-474.62
543.798	295.42
544.004	330.23
544.21	-228.86
544.415	-87.55
544.621	88.57
544.827	268.8
545.033	-390.65
545.239	-26.11
545.445	-187.9
545.651	141.82
545.856	-232.96
546.062	-278.01
546.268	-44.54
546.474	2.56
546.679	-212.48
546.885	-177.66
547.091	-120.32
547.297	483.83
547.502	-105.98
547.708	-339.45
547.914	-148.99
548.119	147.97
548.325	-253.44
548.531	-359.93
548.736	360.95
548.942	-99.84
549.147	-310.78
549.353	33.28
549.559	358.91
549.764	195.07
549.97	-251.39
550.175	-259.58
550.381	285.18
550.586	-46.59
550.792	-93.69
550.997	-267.77
551.203	150.01
551.408	233.98
551.614	-386.55
551.819	-245.24
552.025	436.73
552.23	504.31
552.435	-343.55
552.641	-77.31
552.846	-146.94
553.052	283.13
553.257	-108.03
553.462	-235
553.668	-110.08
553.873	242.17
554.078	-271.87
554.283	-284.16
554.489	61.95
554.694	31.23
554.899	-232.96
555.105	-26.11
555.31	201.21
555.515	246.27
555.72	-155.13
555.925	-232.96
556.131	254.46
556.336	-101.89
556.541	-278.01
556.746	-310.78
556.951	336.38
557.156	457.21
557.361	-87.55
557.567	-36.35
557.772	535.03
557.977	279.04
558.182	-189.95
558.387	-249.34
558.592	-44.54
558.797	412.15
559.002	-159.23
559.207	-130.56
559.412	66.05
559.617	451.07
559.822	-308.73
560.027	-255.48
560.232	39.42
560.437	229.88
560.642	-339.45
560.847	-335.35
561.051	84.48
561.256	199.16
561.461	-146.94
561.666	-327.16
561.871	111.1
562.076	168.45
562.281	-173.57
562.485	-267.77
562.69	272.89
562.895	242.17
563.1	-224.76
563.305	-351.74
563.509	358.91
563.714	590.33
563.919	-323.07
564.123	-292.35
564.328	-15.87
564.533	287.23
564.737	-151.04
564.942	-245.24
565.147	487.93
565.351	551.42
565.556	-73.21
565.761	-89.6
565.965	18.94
566.17	-97.79
566.374	-237.05
566.579	-316.92
566.784	16.9
566.988	-24.06
567.193	-316.92
567.397	-335.35
567.602	-218.62
567.806	98.81
568.011	-187.9
568.215	-269.82
568.42	-1.54
568.624	37.38
568.828	-275.96
569.033	-1.54
569.237	217.6
569.442	201.21
569.646	-372.22
569.85	-251.39
570.055	23.04
570.259	2.56
570.463	-19.97
570.668	-232.96
570.872	20.99
571.076	23.04
571.281	-50.69
571.485	-93.69
571.689	68.09
571.893	274.94
572.098	-60.93
572.302	-187.9
572.506	178.69
572.71	135.68
572.914	-273.92
573.119	-179.71
573.323	455.16
573.527	313.85
573.731	-175.61
573.935	-310.78
574.139	174.59
574.343	-19.97
574.547	-171.52
574.751	-116.22
574.955	467.45
575.159	320
575.364	-273.92
575.568	-275.96
575.772	8.7
575.976	365.05
576.18	-134.65
576.383	-374.27
576.587	313.85
576.791	223.74
576.995	-407.03
577.199	-392.7
577.403	338.43
577.607	285.18
577.811	-370.17
578.015	-85.5
578.219	147.97
578.422	233.98
578.626	-181.76
578.83	-24.06
579.034	322.04
579.238	57.86
579.442	-331.26
579.645	109.05
579.849	119.29
580.053	145.92
580.257	-187.9
580.46	-146.94
580.664	336.38
580.868	254.46
581.071	6.66
581.275	-126.46
581.479	-273.92
581.682	244.22
581.886	-212.48
582.09	-77.31
582.293	258.56
582.497	236.03
582.7	8.7
582.904	-296.44
583.107	66.05
583.311	-87.55
583.515	-97.79
583.718	-126.46
583.922	188.93
584.125	496.12
584.329	-189.95
584.532	-26.11
584.735	422.39
584.939	190.97
585.142	-384.51
585.346	-273.92
585.549	213.5
585.753	-99.84
585.956	-165.37
586.159	-56.83
586.363	575.99
586.566	276.99
586.769	-300.54
586.973	-237.05
587.176	180.73
587.379	379.39
587.582	139.77
587.786	23.04
587.989	115.2
588.192	735.73
588.395	-95.74
588.599	98.81
588.802	156.16
589.005	283.13
589.208	-198.14
589.411	-187.9
589.615	346.62
589.818	504.31
590.021	86.53
590.224	-95.74
590.427	338.43
590.63	299.52
590.833	-329.21
591.036	-306.68
591.239	12.8
591.442	-46.59
591.645	92.67
591.848	-271.87
592.051	150.01
592.254	311.8
592.457	-112.13
592.66	-128.51
592.863	33.28
593.066	172.54
593.269	-175.61
593.472	-58.88
593.675	-67.07
593.878	291.32
594.081	-36.35
594.284	-325.12
594.486	115.2
594.689	10.75
594.892	-1.54
595.095	-148.99
595.298	211.45
595.5	-15.87
595.703	35.33
595.906	18.94
596.109	412.15
596.311	352.76
596.514	-466.42
596.717	-67.07
596.92	438.78
597.122	264.7
597.325	-374.27
597.528	-251.39
597.73	283.13
597.933	41.47
598.136	-224.76
598.338	-452.09
598.541	219.64
598.743	334.33
598.946	-245.24
599.148	-165.37
599.351	307.71
599.554	254.46
599.756	-62.98
599.959	-93.69
600.161	379.39
600.363	676.34
600.566	207.36
600.768	-97.79
600.971	518.65
601.173	334.33
601.376	-185.85
601.578	-128.51
601.78	203.26
601.983	657.91
602.185	-153.09
602.388	43.52
602.59	186.88
602.792	57.86
602.995	49.66
603.197	-200.19
603.399	315.9
603.601	258.56
603.804	-165.37
604.006	-210.43
604.208	45.57
604.41	-273.92
604.613	41.47
604.815	-226.81
605.017	625.14
605.219	-77.31
605.421	297.47
605.623	-194.05
605.826	461.3
606.028	420.35
606.23	-237.05
606.432	-101.89
606.634	608.76
606.836	328.19
607.038	-228.86
607.24	12.8
607.442	158.21
607.644	113.15
607.846	2.56
608.048	-253.44
608.25	508.41
608.452	-69.12
608.654	-157.18
608.856	-333.31
609.058	94.72
609.26	287.23
609.462	-22.02
609.664	-120.32
609.866	651.77
610.067	426.49
610.269	-11.78
610.471	-112.13
610.673	57.86
610.875	283.13
611.077	-282.11
611.278	-81.41
611.48	162.3
611.682	666.1
611.884	88.57
612.085	-32.26
612.287	-128.51
612.489	238.08
612.69	-253.44
612.892	-11.78
613.094	350.71
613.295	238.08
613.497	-175.61
613.699	-222.72
613.9	471.54
614.102	328.19
614.304	-52.74
614.505	-167.42
614.707	172.54
614.908	8.7
615.11	-237.05
615.311	-3.58
615.513	258.56
615.714	338.43
615.916	-235
616.117	-36.35
616.319	23.04
616.52	322.04
616.722	-222.72
616.923	-144.89
617.124	408.06
617.326	252.41
617.527	31.23
617.729	131.58
617.93	358.91
618.131	258.56
618.333	-124.41
618.534	-126.46
618.735	-24.06
618.937	516.6
619.138	-265.72
619.339	-187.9
619.54	293.37
619.742	51.71
619.943	70.14
620.144	-9.73
620.345	266.75
620.546	406.01
620.748	-142.85
620.949	-169.47
621.15	174.59
621.351	184.83
621.552	-138.75
621.753	-314.88
621.954	-171.52
622.155	655.86
622.356	-183.81
622.558	86.53
622.759	74.24
622.96	545.27
623.161	-62.98
623.362	-52.74
623.563	139.77
623.764	158.21
623.965	-60.93
624.166	90.62
624.366	117.25
624.567	164.35
624.768	-312.83
624.969	-122.37
625.17	66.05
625.371	424.44
625.572	88.57
625.773	-136.7
625.973	348.67
626.174	383.48
626.375	23.04
626.576	-19.97
626.777	291.32
626.977	684.53
627.178	-142.85
627.379	6.66
627.58	143.87
627.78	117.25
627.981	68.09
628.182	8.7
628.382	416.25
628.583	-257.53
628.784	-171.52
628.984	39.42
629.185	311.8
629.386	348.67
629.586	33.28
629.787	-198.14
629.987	377.34
630.188	164.35
630.388	-50.69
630.589	-5.63
630.79	768.5
630.99	246.27
631.191	23.04
631.391	51.71
631.591	391.67
631.792	582.14
631.992	12.8
632.193	-56.83
632.393	545.27
632.594	213.5
632.794	-56.83
632.994	61.95
633.195	145.92
633.395	270.84
633.595	-161.28
633.796	154.11
633.996	35.33
634.196	459.26
634.397	-251.39
634.597	61.95
634.797	-15.87
634.997	569.85
635.198	233.98
635.398	-163.33
635.598	242.17
635.798	535.03
635.998	401.91
636.199	-155.13
636.399	27.14
636.599	-38.4
636.799	-79.36
636.999	248.32
637.199	270.84
637.399	438.78
637.599	-126.46
637.799	94.72
637.999	33.28
638.199	516.6
638.399	-163.33
638.599	-79.36
638.799	358.91
638.999	680.44
639.199	29.18
639.399	45.57
639.599	621.05
639.799	16.9
639.999	-161.28
640.199	-62.98
640.399	254.46
640.599	262.65
640.799	25.09
640.998	172.54
641.198	438.78
641.398	291.32
641.598	16.9
641.798	51.71
641.997	1118.7
642.197	133.63
642.397	125.44
642.597	-73.21
642.796	250.36
642.996	559.61
643.196	164.35
643.395	-97.79
643.595	276.99
643.795	-155.13
643.994	14.85
644.194	-5.63
644.394	426.49
644.593	266.75
644.793	-177.66
644.992	64
645.192	367.1
645.392	-120.32
645.591	94.72
645.791	-15.87
645.99	354.81
646.19	92.67
646.389	20.99
646.589	-22.02
646.788	401.91
646.987	395.77
647.187	229.88
647.386	184.83
647.586	178.69
647.785	428.54
647.984	-38.4
648.184	119.29
648.383	117.25
648.582	162.3
648.782	-15.87
648.981	80.38
649.18	70.14
649.38	168.45
649.579	12.8
649.778	-48.64
649.977	393.72
650.177	268.8
650.376	-65.02
650.575	-105.98
650.774	690.68
650.973	-19.97
651.173	-243.2
651.372	90.62
651.571	283.13
651.77	414.2
651.969	-36.35
652.168	141.82
652.367	-69.12
652.566	338.43
652.765	-105.98
652.964	281.08
653.163	735.73
653.362	197.12
653.561	-28.16
653.76	-15.87
653.959	143.87
654.158	340.47
654.357	213.5
654.556	0.51
654.755	387.58
654.954	387.58
655.153	-7.68
655.352	59.9
655.551	565.75
655.749	29.18
655.948	82.43
656.147	86.53
656.346	279.04
656.545	137.73
656.743	49.66
656.942	25.09
657.141	295.42
657.34	-54.78
657.538	10.75
657.737	-67.07
657.936	147.97
658.135	303.61
658.333	-30.21
658.532	80.38
658.731	655.86
658.929	457.21
659.128	315.9
659.326	-77.31
659.525	473.59
659.724	147.97
659.922	-169.47
660.121	-54.78
660.319	389.63
660.518	31.23
660.716	-46.59
660.915	-114.17
661.113	543.22
661.312	-13.82
661.51	147.97
661.709	-48.64
661.907	420.35
662.105	631.29
662.304	-89.6
662.502	76.29
662.701	612.85
662.899	139.77
663.097	264.7
663.296	-128.51
663.494	463.35
663.692	610.81
663.891	-101.89
664.089	-77.31
664.287	360.95
664.485	604.66
664.684	-153.09
664.882	143.87
665.08	180.73
665.278	297.47
665.476	-148.99
665.675	324.09
665.873	729.59
666.071	492.02
666.269	-32.26
666.467	281.08
666.665	289.28
666.863	172.54
667.061	266.75
667.259	33.28
667.457	211.45
667.655	397.82
667.853	-77.31
668.051	82.43
668.249	47.62
668.447	356.86
668.645	-146.94
668.843	107.01
669.041	467.45
669.239	176.64
669.437	117.25
669.635	195.07
669.833	119.29
670.031	436.73
670.229	168.45
670.426	64
670.624	104.96
670.822	35.33
671.02	86.53
671.218	23.04
671.415	14.85
671.613	281.08
671.811	270.84
672.009	20.99
672.206	410.11
672.404	248.32
672.602	274.94
672.799	164.35
672.997	299.52
673.195	512.5
673.392	127.49
673.59	-73.21
673.788	481.78
673.985	-148.99
674.183	66.05
674.38	49.66
674.578	483.83
674.775	102.91
674.973	-77.31
675.17	-28.16
675.368	539.13
675.565	358.91
675.763	-40.45
675.96	33.28
676.158	547.32
676.355	270.84
676.553	39.42
676.75	23.04
676.947	238.08
677.145	199.16
677.342	209.4
677.539	166.4
677.737	322.04
677.934	776.69
678.131	225.79
678.329	27.14
678.526	602.61
678.723	414.2
678.92	152.06
679.118	49.66
679.315	-42.5
679.512	573.94
679.709	117.25
679.906	61.95
680.104	524.79
680.301	467.45
680.498	-32.26
680.695	-89.6
680.892	102.91
681.089	182.78
681.286	133.63
681.483	-62.98
681.68	477.69
681.877	440.83
682.075	88.57
682.272	346.62
682.469	246.27
682.665	231.93
682.862	2.56
683.059	-138.75
683.256	260.6
683.453	313.85
683.65	115.2
683.847	100.86
684.044	215.55
684.241	61.95
684.438	135.68
684.635	-22.02
684.831	803.32
685.028	831.99
685.225	-5.63
685.422	266.75
685.619	324.09
685.815	287.23
686.012	158.21
686.209	141.82
686.405	137.73
686.602	514.55
686.799	-11.78
686.996	-69.12
687.192	-22.02
687.389	762.36
687.586	66.05
687.782	57.86
687.979	662.01
688.175	500.22
688.372	133.63
688.568	92.67
688.765	211.45
688.962	528.89
689.158	246.27
689.355	-50.69
689.551	459.26
689.748	176.64
689.944	166.4
690.14	-103.93
690.337	512.5
690.533	166.4
690.73	320
690.926	143.87
691.123	342.52
691.319	338.43
691.515	-67.07
691.712	174.59
691.908	406.01
692.104	381.43
692.301	174.59
692.497	-24.06
692.693	451.07
692.889	446.97
693.086	205.31
693.282	-151.04
693.478	283.13
693.674	725.49
693.87	182.78
694.067	-44.54
694.263	502.26
694.459	193.02
694.655	283.13
694.851	147.97
695.047	426.49
695.243	510.46
695.439	260.6
695.635	-3.58
695.831	479.74
696.027	264.7
696.224	94.72
696.42	436.73
696.615	649.72
696.811	389.63
697.007	-42.5
697.203	121.34
697.399	422.39
697.595	631.29
697.791	82.43
697.987	178.69
698.183	98.81
698.379	156.16
698.575	102.91
698.77	102.91
698.966	444.92
699.162	612.85
699.358	207.36
699.554	113.15
699.749	492.02
699.945	444.92
700.141	225.79
700.337	174.59
700.532	309.76
700.728	162.3
700.924	82.43
701.119	-30.21
701.315	426.49
701.511	264.7
701.706	215.55
701.902	33.28
702.097	469.5
702.293	475.64
702.489	203.26
702.684	127.49
702.88	309.76
703.075	225.79
703.271	107.01
703.466	2.56
703.662	332.28
703.857	457.21
704.053	49.66
704.248	145.92
704.443	549.37
704.639	530.94
704.834	176.64
705.03	107.01
705.225	502.26
705.42	608.76
705.616	250.36
705.811	23.04
706.006	205.31
706.202	219.64
706.397	236.03
706.592	-54.78
706.787	377.34
706.983	338.43
707.178	403.96
707.373	131.58
707.568	516.6
707.763	610.81
707.959	141.82
708.154	74.24
708.349	414.2
708.544	391.67
708.739	293.37
708.934	76.29
709.129	477.69
709.324	428.54
709.519	0.51
709.714	94.72
709.909	510.46
710.104	438.78
710.299	133.63
710.494	168.45
710.689	487.93
710.884	385.53
711.079	168.45
711.274	272.89
711.469	430.59
711.664	420.35
711.859	90.62
712.054	276.99
712.249	614.9
712.443	600.57
712.638	-3.58
712.833	68.09
713.028	322.04
713.223	303.61
713.417	444.92
713.612	57.86
713.807	561.66
714.002	893.43
714.196	299.52
714.391	80.38
714.586	571.9
714.78	387.58
714.975	180.73
715.17	164.35
715.364	336.38
715.559	637.43
715.754	-71.17
715.948	119.29
716.143	760.31
716.337	440.83
716.532	422.39
716.726	-65.02
716.921	477.69
717.115	805.36
717.31	-15.87
717.504	629.24
717.699	309.76
717.893	508.41
718.088	61.95
718.282	31.23
718.476	406.01
718.671	498.17
718.865	176.64
719.059	135.68
719.254	344.57
719.448	725.49
719.642	1481.19
719.837	-36.35
720.031	532.98
720.225	670.2
720.419	240.12
720.614	14.85
720.808	582.14
721.002	348.67
721.196	45.57
721.39	164.35
721.585	700.92
721.779	430.59
721.973	197.12
722.167	-65.02
722.361	414.2
722.555	547.32
722.749	115.2
722.943	90.62
723.137	121.34
723.331	403.96
723.525	131.58
723.719	84.48
723.913	428.54
724.107	668.15
724.301	4.61
724.495	143.87
724.689	836.08
724.883	700.92
725.077	57.86
725.271	182.78
725.465	743.92
725.659	346.62
725.853	231.93
726.046	-87.55
726.24	176.64
726.434	623.09
726.628	84.48
726.822	215.55
727.015	619
727.209	719.35
727.403	109.05
727.596	-17.92
727.79	578.04
727.984	594.42
728.177	164.35
728.371	158.21
728.565	643.57
728.758	145.92
728.952	27.14
729.146	57.86
729.339	633.33
729.533	373.24
729.726	164.35
729.92	107.01
730.113	664.05
730.307	453.11
730.5	154.11
730.694	-15.87
730.887	342.52
731.081	459.26
731.274	57.86
731.468	170.49
731.661	334.33
731.854	266.75
732.048	96.77
732.241	55.81
732.435	154.11
732.628	465.4
732.821	168.45
733.014	-22.02
733.208	109.05
733.401	575.99
733.594	150.01
733.788	193.02
733.981	731.64
734.174	463.35
734.367	147.97
734.56	199.16
734.754	535.03
734.947	346.62
735.14	127.49
735.333	123.39
735.526	545.27
735.719	186.88
735.912	31.23
736.105	33.28
736.298	395.77
736.491	268.8
736.684	70.14
736.877	152.06
737.07	465.4
737.263	733.68
737.456	100.86
737.649	55.81
737.842	209.4
738.035	408.06
738.228	174.59
738.421	291.32
738.614	631.29
738.807	575.99
739	0.51
739.192	8.7
739.385	553.46
739.578	553.46
739.771	393.72
739.964	121.34
740.156	428.54
740.349	344.57
740.542	303.61
740.735	-38.4
740.927	82.43
741.12	154.11
741.313	33.28
741.505	266.75
741.698	432.63
741.891	532.98
742.083	276.99
742.276	215.55
742.468	428.54
742.661	352.76
742.854	193.02
743.046	180.73
743.239	760.31
743.431	373.24
743.624	225.79
743.816	-50.69
744.009	363
744.201	432.63
744.393	311.8
744.586	10.75
744.778	688.63
744.971	338.43
745.163	225.79
745.355	180.73
745.548	365.05
745.74	244.22
745.932	223.74
746.125	156.16
746.317	936.43
746.509	354.81
746.702	102.91
746.894	217.6
747.086	500.22
747.278	737.78
747.471	170.49
747.663	168.45
747.855	365.05
748.047	713.21
748.239	74.24
748.431	78.33
748.623	844.28
748.815	682.49
749.008	57.86
749.2	147.97
749.392	526.84
749.584	426.49
749.776	279.04
749.968	244.22
750.16	936.43
750.352	291.32
750.544	221.69
750.736	55.81
750.928	569.85
751.12	385.53
751.311	197.12
751.503	172.54
751.695	483.83
751.887	385.53
752.079	-62.98
752.271	172.54
752.463	1171.95
752.654	530.94
752.846	188.93
753.038	225.79
753.23	225.79
753.421	516.6
753.613	164.35
753.805	356.86
753.997	528.89
754.188	598.52
754.38	98.81
754.572	96.77
754.763	307.71
754.955	635.38
755.146	242.17
755.338	258.56
755.53	537.08
755.721	295.42
755.913	131.58
756.104	86.53
756.296	389.63
756.487	639.48
756.679	180.73
756.87	188.93
757.062	287.23
757.253	532.98
757.445	141.82
757.636	381.43
757.827	354.81
758.019	958.96
758.21	57.86
758.401	168.45
758.593	854.51
758.784	686.58
758.975	-30.21
759.167	12.8
759.358	371.19
759.549	772.6
759.74	180.73
759.932	168.45
760.123	827.89
760.314	272.89
760.505	211.45
760.696	172.54
760.888	881.14
761.079	416.25
761.27	37.38
761.461	43.52
761.652	758.26
761.843	279.04
762.034	195.07
762.225	426.49
762.416	373.24
762.607	344.57
762.798	197.12
762.989	115.2
763.18	1130.99
763.371	360.95
763.562	98.81
763.753	231.93
763.944	647.67
764.135	520.7
764.326	266.75
764.517	78.33
764.708	522.74
764.899	504.31
765.089	107.01
765.28	-7.68
765.471	451.07
765.662	623.09
765.853	178.69
766.043	20.99
766.234	639.48
766.425	635.38
766.615	139.77
766.806	6.66
766.997	768.5
767.187	508.41
767.378	59.9
767.569	-9.73
767.759	520.7
767.95	418.3
768.141	340.47
768.331	2.56
768.522	432.63
768.712	526.84
768.903	98.81
769.093	109.05
769.284	883.19
769.474	436.73
769.665	25.09
769.855	-15.87
770.046	596.47
770.236	342.52
770.426	322.04
770.617	115.2
770.807	557.56
770.998	330.23
771.188	334.33
771.378	94.72
771.569	553.46
771.759	555.51
771.949	113.15
772.139	-69.12
772.33	473.59
772.52	823.8
772.71	78.33
772.9	-56.83
773.09	895.47
773.281	745.97
773.471	129.53
773.661	223.74
773.851	582.14
774.041	358.91
774.231	88.57
774.421	264.7
774.611	877.04
774.802	483.83
774.992	182.78
775.182	2.56
775.372	344.57
775.562	543.22
775.752	229.88
775.942	154.11
776.131	664.05
776.321	500.22
776.511	197.12
776.701	20.99
776.891	616.95
777.081	156.16
777.271	139.77
777.461	86.53
777.651	516.6
777.84	592.37
778.03	281.08
778.22	225.79
778.41	772.6
778.599	137.73
778.789	252.41
778.979	84.48
779.169	535.03
779.358	375.29
779.548	440.83
779.738	-28.16
779.927	410.11
780.117	147.97
780.307	164.35
780.496	-89.6
780.686	569.85
780.875	838.13
781.065	154.11
781.254	168.45
781.444	379.39
781.633	438.78
781.823	78.33
782.012	104.96
782.202	311.8
782.391	322.04
782.581	41.47
782.77	317.95
782.96	565.75
783.149	344.57
783.338	152.06
783.528	-81.41
783.717	647.67
783.906	592.37
784.096	248.32
784.285	27.14
784.474	338.43
784.663	180.73
784.853	193.02
785.042	119.29
785.231	397.82
785.42	598.52
785.61	283.13
785.799	117.25
785.988	299.52
786.177	399.87
786.366	166.4
786.555	313.85
786.744	569.85
786.933	352.76
787.122	53.76
787.312	-15.87
787.501	346.62
787.69	401.91
787.879	172.54
788.068	84.48
788.257	131.58
788.445	352.76
788.634	195.07
788.823	25.09
789.012	1028.59
789.201	735.73
789.39	164.35
789.579	47.62
789.768	373.24
789.957	317.95
790.145	74.24
790.334	-196.09
790.523	305.66
790.712	317.95
790.9	182.78
791.089	59.9
791.278	559.61
791.467	426.49
791.655	379.39
791.844	541.18
792.033	219.64
792.221	344.57
792.41	78.33
792.599	-5.63
792.787	592.37
792.976	516.6
793.164	76.29
793.353	90.62
793.541	582.14
793.73	539.13
793.918	164.35
794.107	117.25
794.295	358.91
794.484	428.54
794.672	301.56
794.861	86.53
795.049	489.98
795.238	836.08
795.426	29.18
795.614	190.97
795.803	479.74
795.991	612.85
796.179	111.1
796.368	131.58
796.556	598.52
796.744	84.48
796.932	59.9
797.121	66.05
797.309	412.15
797.497	569.85
797.685	170.49
797.874	10.75
798.062	217.6
798.25	774.64
798.438	-7.68
798.626	0.51
798.814	553.46
799.002	881.14
799.19	303.61
799.378	143.87
799.566	707.06
799.755	694.77
799.943	336.38
800.131	86.53
800.318	385.53
800.506	543.22
800.694	168.45
800.882	348.67
801.07	715.25
801.258	246.27
801.446	158.21
801.634	164.35
801.822	459.26
802.01	365.05
802.197	86.53
802.385	315.9
802.573	381.43
802.761	279.04
802.949	219.64
803.136	6.66
803.324	674.29
803.512	451.07
803.699	205.31
803.887	8.7
804.075	680.44
804.262	287.23
804.45	16.9
804.638	188.93
804.825	172.54
805.013	305.66
805.201	219.64
805.388	-1.54
805.576	301.56
805.763	811.51
805.951	115.2
806.138	320
806.326	903.67
806.513	541.18
806.701	213.5
806.888	51.71
807.075	455.16
807.263	795.12
807.45	23.04
807.638	258.56
807.825	885.23
808.012	596.47
808.2	213.5
808.387	375.29
808.574	475.64
808.761	752.12
808.949	31.23
809.136	276.99
809.323	207.36
809.51	412.15
809.698	449.02
809.885	328.19
810.072	492.02
810.259	672.25
810.446	166.4
810.633	154.11
810.82	680.44
811.008	823.8
811.195	363
811.382	223.74
811.569	348.67
811.756	166.4
811.943	190.97
812.13	201.21
812.317	221.69
812.504	268.8
812.691	274.94
812.878	258.56
813.064	766.45
813.251	395.77
813.438	49.66
813.625	322.04
813.812	438.78
813.999	338.43
814.186	205.31
814.372	168.45
814.559	475.64
814.746	737.78
814.933	111.1
815.12	379.39
815.306	250.36
815.493	176.64
815.68	131.58
815.866	178.69
816.053	657.91
816.24	932.34
816.426	262.65
816.613	12.8
816.799	619
816.986	721.4
817.173	193.02
817.359	131.58
817.546	440.83
817.732	131.58
817.919	-58.88
818.105	240.12
818.292	367.1
818.478	637.43
818.665	375.29
818.851	160.25
819.037	995.82
819.224	506.36
819.41	57.86
819.597	70.14
819.783	752.12
819.969	582.14
820.156	133.63
820.342	35.33
820.528	1253.87
820.714	303.61
820.901	455.16
821.087	201.21
821.273	823.8
821.459	369.15
821.646	86.53
821.832	96.77
822.018	414.2
822.204	418.3
822.39	158.21
822.576	117.25
822.762	604.66
822.948	449.02
823.134	338.43
823.32	186.88
823.507	217.6
823.693	492.02
823.879	557.56
824.065	78.33
824.25	444.92
824.436	166.4
824.622	178.69
824.808	88.57
824.994	395.77
825.18	217.6
825.366	152.06
825.552	49.66
825.738	336.38
825.923	586.23
826.109	287.23
826.295	215.55
826.481	313.85
826.667	240.12
826.852	332.28
827.038	92.67
827.224	696.82
827.409	870.9
827.595	12.8
827.781	422.39
827.966	616.95
828.152	664.05
828.338	141.82
828.523	0.51
828.709	236.03
828.894	723.44
829.08	209.4
829.266	119.29
829.451	268.8
829.637	547.32
829.822	365.05
830.008	131.58
830.193	619
830.378	829.94
830.564	262.65
830.749	70.14
830.935	569.85
831.12	557.56
831.305	57.86
831.491	233.98
831.676	209.4
831.861	602.61
832.047	139.77
832.232	59.9
832.417	686.58
832.602	498.17
832.788	107.01
832.973	20.99
833.158	344.57
833.343	420.35
833.528	279.04
833.714	231.93
833.899	655.86
834.084	877.04
834.269	408.06
834.454	147.97
834.639	655.86
834.824	363
835.009	219.64
835.194	352.76
835.379	633.33
835.564	858.61
835.749	356.86
835.934	-3.58
836.119	578.04
836.304	469.5
836.489	190.97
836.674	440.83
836.859	180.73
837.044	825.84
837.228	199.16
837.413	78.33
837.598	494.07
837.783	598.52
837.968	219.64
838.152	-46.59
838.337	-36.35
838.522	690.68
838.707	578.04
838.891	348.67
839.076	455.16
839.261	688.63
839.445	170.49
839.63	334.33
839.815	762.36
839.999	369.15
840.184	141.82
840.368	266.75
840.553	637.43
840.737	575.99
840.922	49.66
841.106	47.62
841.291	156.16
841.475	455.16
841.66	115.2
841.844	186.88
842.029	1081.84
842.213	143.87
842.397	225.79
842.582	37.38
842.766	688.63
842.951	569.85
843.135	238.08
843.319	270.84
843.504	455.16
843.688	602.61
843.872	-3.58
844.056	61.95
844.241	483.83
844.425	360.95
844.609	340.47
844.793	45.57
844.977	586.23
845.161	500.22
845.346	82.43
845.53	135.68
845.714	383.48
845.898	778.74
846.082	39.42
846.266	174.59
846.45	471.54
846.634	483.83
846.818	102.91
847.002	367.1
847.186	614.9
847.37	276.99
847.554	86.53
847.738	289.28
847.922	471.54
848.106	502.26
848.29	84.48
848.473	188.93
848.657	745.97
848.841	346.62
849.025	254.46
849.209	18.94
849.392	608.76
849.576	381.43
849.76	-34.3
849.944	256.51
850.127	741.88
850.311	113.15
850.495	16.9
850.678	-26.11
850.862	674.29
851.046	805.36
851.229	436.73
851.413	66.05
851.596	516.6
851.78	360.95
851.964	307.71
852.147	209.4
852.331	1165.81
852.514	739.83
852.698	279.04
852.881	-24.06
853.065	676.34
853.248	395.77
853.431	307.71
853.615	301.56
853.798	979.44
853.982	543.22
854.165	320
854.348	152.06
854.532	158.21
854.715	274.94
854.898	279.04
855.081	193.02
855.265	723.44
855.448	791.03
855.631	113.15
855.814	164.35
855.997	631.29
856.181	397.82
856.364	223.74
856.547	45.57
856.73	391.67
856.913	543.22
857.096	18.94
857.279	250.36
857.462	303.61
857.645	662.01
857.828	289.28
858.011	303.61
858.194	352.76
858.377	651.77
858.56	53.76
858.743	225.79
858.926	242.17
859.109	594.42
859.292	117.25
859.475	27.14
859.658	764.4
859.841	602.61
860.023	100.86
860.206	145.92
860.389	410.11
860.572	797.17
860.755	168.45
860.937	231.93
861.12	330.23
861.303	471.54
861.486	338.43
861.668	49.66
861.851	602.61
862.034	537.08
862.216	317.95
862.399	61.95
862.581	573.94
862.764	776.69
862.947	303.61
863.129	64
863.312	213.5
863.494	950.77
863.677	539.13
863.859	-24.06
864.042	600.57
864.224	784.88
864.406	279.04
864.589	84.48
864.771	592.37
864.954	227.84
865.136	119.29
865.318	-24.06
865.501	629.24
865.683	35.33
865.865	209.4
866.048	74.24
866.23	592.37
866.412	422.39
866.594	66.05
866.777	311.8
866.959	526.84
867.141	168.45
867.323	365.05
867.505	295.42
867.687	385.53
867.869	426.49
868.052	272.89
868.234	90.62
868.416	401.91
868.598	590.33
868.78	244.22
868.962	102.91
869.144	651.77
869.326	682.49
869.508	119.29
869.69	70.14
869.872	311.8
870.054	715.25
870.236	-22.02
870.417	82.43
870.599	274.94
870.781	829.94
870.963	270.84
871.145	141.82
871.327	70.14
871.508	571.9
871.69	135.68
871.872	145.92
872.054	383.48
872.235	659.96
872.417	186.88
872.599	72.19
872.78	854.51
872.962	461.3
873.144	10.75
873.325	141.82
873.507	737.78
873.689	457.21
873.87	33.28
874.052	244.22
874.233	373.24
874.415	678.39
874.596	172.54
874.778	43.52
874.959	432.63
875.141	569.85
875.322	199.16
875.503	160.25
875.685	555.51
875.866	139.77
876.048	127.49
876.229	-28.16
876.41	408.06
876.592	446.97
876.773	102.91
876.954	-22.02
877.136	778.74
877.317	340.47
877.498	-22.02
877.679	287.23
877.86	500.22
878.042	371.19
878.223	176.64
878.404	393.72
878.585	641.53
878.766	903.67
878.947	483.83
879.128	248.32
879.309	643.57
879.49	639.48
879.672	240.12
879.853	285.18
880.034	264.7
880.215	299.52
880.396	219.64
880.576	201.21
880.757	197.12
880.938	770.55
881.119	145.92
881.3	119.29
881.481	223.74
881.662	1202.67
881.843	117.25
882.023	68.09
882.204	463.35
882.385	432.63
882.566	156.16
882.747	131.58
882.927	270.84
883.108	508.41
883.289	41.47
883.469	365.05
883.65	360.95
883.831	403.96
884.011	268.8
884.192	111.1
884.373	639.48
884.553	555.51
884.734	356.86
884.914	412.15
885.095	1106.42
885.275	760.31
885.456	457.21
885.636	25.09
885.817	436.73
885.997	381.43
886.178	135.68
886.358	338.43
886.538	475.64
886.719	1409.51
886.899	139.77
887.08	199.16
887.26	702.97
887.44	231.93
887.621	94.72
887.801	346.62
887.981	1014.26
888.161	600.57
888.342	166.4
888.522	182.78
888.702	631.29
888.882	659.96
889.062	305.66
889.242	-24.06
889.423	827.89
889.603	584.18
889.783	283.13
889.963	184.83
890.143	631.29
890.323	688.63
890.503	217.6
890.683	188.93
890.863	522.74
891.043	561.66
891.223	289.28
891.403	420.35
891.583	475.64
891.763	471.54
891.943	287.23
892.122	66.05
892.302	424.44
892.482	496.12
892.662	311.8
892.842	147.97
893.022	565.75
893.201	313.85
893.381	360.95
893.561	225.79
893.741	717.3
893.92	530.94
894.1	350.71
894.28	305.66
894.459	619
894.639	449.02
894.819	219.64
894.998	338.43
895.178	510.46
895.357	565.75
895.537	211.45
895.716	57.86
895.896	444.92
896.075	799.22
896.255	240.12
896.434	12.8
896.614	627.19
896.793	840.18
896.973	328.19
897.152	385.53
897.331	537.08
897.511	705.01
897.69	16.9
897.87	311.8
898.049	619
898.228	502.26
898.407	430.59
898.587	383.48
898.766	266.75
898.945	631.29
899.124	426.49
899.304	336.38
899.483	674.29
899.662	946.67
899.841	160.25
900.02	268.8
900.199	717.3
900.378	541.18
900.557	143.87
900.737	16.9
900.916	565.75
901.095	653.81
901.274	551.42
901.453	20.99
901.632	328.19
901.811	322.04
901.989	223.74
902.168	258.56
902.347	723.44
902.526	434.68
902.705	238.08
902.884	414.2
903.063	831.99
903.242	831.99
903.42	137.73
903.599	279.04
903.778	696.82
903.957	842.23
904.135	303.61
904.314	272.89
904.493	616.95
904.672	621.05
904.85	307.71
905.029	219.64
905.207	557.56
905.386	1135.09
905.565	92.67
905.743	176.64
905.922	418.3
906.1	637.43
906.279	100.86
906.457	70.14
906.636	334.33
906.814	358.91
906.993	233.98
907.171	150.01
907.35	651.77
907.528	657.91
907.707	438.78
907.885	207.36
908.063	862.71
908.242	295.42
908.42	199.16
908.598	96.77
908.777	592.37
908.955	356.86
909.133	352.76
909.311	168.45
909.49	358.91
909.668	473.59
909.846	289.28
910.024	-24.06
910.202	526.84
910.38	547.32
910.559	160.25
910.737	172.54
910.915	582.14
911.093	565.75
911.271	240.12
911.449	432.63
911.627	629.24
911.805	956.91
911.983	180.73
912.161	180.73
912.339	553.46
912.517	774.64
912.695	442.87
912.872	236.03
913.05	279.04
913.228	631.29
913.406	225.79
913.584	86.53
913.762	717.3
913.939	297.47
914.117	162.3
914.295	115.2
914.473	551.42
914.65	623.09
914.828	186.88
915.006	143.87
915.184	231.93
915.361	506.36
915.539	350.71
915.716	475.64
915.894	537.08
916.072	674.29
916.249	373.24
916.427	340.47
916.604	229.88
916.782	627.19
916.959	35.33
917.137	229.88
917.314	537.08
917.492	635.38
917.669	434.68
917.847	283.13
918.024	469.5
918.201	352.76
918.379	285.18
918.556	246.27
918.733	567.8
918.911	449.02
919.088	313.85
919.265	186.88
919.442	479.74
919.62	455.16
919.797	207.36
919.974	100.86
920.151	514.55
920.328	340.47
920.506	229.88
920.683	455.16
920.86	236.03
921.037	354.81
921.214	264.7
921.391	156.16
921.568	606.71
921.745	322.04
921.922	203.26
922.099	176.64
922.276	631.29
922.453	543.22
922.63	182.78
922.807	545.27
922.984	465.4
923.161	315.9
923.338	147.97
923.514	129.53
923.691	442.87
923.868	455.16
924.045	233.98
924.222	117.25
924.399	545.27
924.575	731.64
924.752	186.88
924.929	238.08
925.105	569.85
925.282	242.17
925.459	274.94
925.635	320
925.812	397.82
925.989	217.6
926.165	223.74
926.342	8.7
926.518	180.73
926.695	428.54
926.871	158.21
927.048	23.04
927.224	635.38
927.401	401.91
927.577	182.78
927.754	20.99
927.93	698.87
928.107	641.53
928.283	109.05
928.459	299.52
928.636	504.31
928.812	348.67
928.988	127.49
929.165	61.95
929.341	387.58
929.517	469.5
929.693	541.18
929.87	-52.74
930.046	627.19
930.222	121.34
930.398	107.01
930.574	305.66
930.751	422.39
930.927	348.67
931.103	272.89
931.279	188.93
931.455	170.49
931.631	395.77
931.807	20.99
931.983	53.76
932.159	96.77
932.335	399.87
932.511	207.36
932.687	156.16
932.863	455.16
933.039	494.07
933.215	33.28
933.391	12.8
933.566	336.38
933.742	469.5
933.918	205.31
934.094	-40.45
934.27	365.05
934.445	414.2
934.621	209.4
934.797	111.1
934.973	586.23
935.148	444.92
935.324	51.71
935.5	-144.89
935.675	649.72
935.851	524.79
936.027	86.53
936.202	141.82
936.378	444.92
936.553	281.08
936.729	590.33
936.904	4.61
937.08	100.86
937.255	127.49
937.431	23.04
937.606	-56.83
937.782	240.12
937.957	293.37
938.133	111.1
938.308	68.09
938.483	317.95
938.659	111.1
938.834	172.54
939.009	-5.63
939.185	283.13
939.36	182.78
939.535	-151.04
939.71	168.45
939.886	530.94
940.061	557.56
940.236	274.94
940.411	131.58
940.586	358.91
940.761	444.92
940.937	37.38
941.112	10.75
941.287	369.15
941.462	324.09
941.637	-163.33
941.812	55.81
941.987	430.59
942.162	363
942.337	143.87
942.512	139.77
942.687	418.3
942.862	399.87
943.037	-32.26
943.212	-263.68
943.386	180.73
943.561	338.43
943.736	145.92
943.911	317.95
944.086	373.24
944.26	369.15
944.435	41.47
944.61	135.68
944.785	565.75
944.959	678.39
945.134	117.25
945.309	-15.87
945.483	6.66
945.658	559.61
945.833	-230.91
946.007	-24.06
946.182	662.01
946.357	-1.54
946.531	-62.98
946.706	29.18
946.88	-155.13
947.055	285.18
947.229	8.7
947.404	-69.12
947.578	393.72
947.752	252.41
947.927	-110.08
948.101	-204.28
948.276	193.02
948.45	256.51
948.624	193.02
948.799	-19.97
948.973	328.19
949.147	-22.02
949.321	86.53
949.496	-28.16
949.67	485.88
949.844	141.82
950.018	16.9
950.193	-69.12
950.367	795.12
950.541	188.93
950.715	102.91
950.889	197.12
951.063	197.12
951.237	356.86
951.411	-208.38
951.585	-185.85
951.759	303.61
951.933	172.54
952.107	-28.16
952.281	123.39
952.455	584.18
952.629	414.2
952.803	-5.63
952.977	-13.82
953.151	471.54
953.325	354.81
953.499	168.45
953.672	-103.93
953.846	72.19
954.02	70.14
954.194	-140.8
954.368	-34.3
954.541	260.6
954.715	82.43
954.889	55.81
955.062	-132.61
955.236	98.81
955.41	76.29
955.583	174.59
955.757	-171.52
955.93	102.91
956.104	-1.54
956.278	-105.98
956.451	25.09
956.625	311.8
956.798	594.42
956.972	229.88
957.145	-99.84
957.319	176.64
957.492	131.58
957.665	141.82
957.839	-24.06
958.012	305.66
958.185	160.25
958.359	-26.11
958.532	186.88
958.705	348.67
958.879	311.8
959.052	94.72
959.225	-194.05
959.398	147.97
959.572	229.88
959.745	-87.55
959.918	4.61
960.091	186.88
960.264	303.61
960.438	-144.89
960.611	-108.03
960.784	348.67
960.957	111.1
961.13	348.67
961.303	-58.88
961.476	197.12
961.649	459.26
961.822	-169.47
961.995	25.09
962.168	279.04
962.341	264.7
962.514	-38.4
962.686	4.61
962.859	188.93
963.032	303.61
963.205	-46.59
963.378	-235
963.551	262.65
963.723	248.32
963.896	55.81
964.069	25.09
964.242	180.73
964.414	365.05
964.587	33.28
964.76	111.1
964.932	299.52
965.105	102.91
965.278	-30.21
965.45	-130.56
965.623	276.99
965.795	420.35
965.968	-134.65
966.14	43.52
966.313	156.16
966.485	274.94
966.658	-5.63
966.83	-75.26
967.003	502.26
967.175	406.01
967.348	23.04
967.52	-40.45
967.692	688.63
967.865	369.15
968.037	37.38
968.209	238.08
968.382	236.03
968.554	406.01
968.726	107.01
968.898	-101.89
969.071	248.32
969.243	274.94
969.415	-1.54
969.587	49.66
969.759	686.58
969.932	403.96
970.104	57.86
970.276	-237.05
970.448	53.76
970.62	57.86
970.792	111.1
970.964	135.68
971.136	608.76
971.308	320
971.48	-101.89
971.652	0.51
971.824	512.5
971.996	88.57
972.168	49.66
972.339	-69.12
972.511	496.12
972.683	135.68
972.855	205.31
973.027	-7.68
973.199	188.93
973.37	383.48
973.542	176.64
973.714	127.49
973.886	199.16
974.057	514.55
974.229	-130.56
974.401	10.75
974.572	47.62
974.744	-112.13
974.915	-99.84
975.087	-79.36
975.259	649.72
975.43	107.01
975.602	-60.93
975.773	-103.93
975.945	49.66
976.116	338.43
976.288	-56.83
976.459	123.39
976.63	137.73
976.802	238.08
976.973	-87.55
977.145	98.81
977.316	659.96
977.487	543.22
977.659	109.05
977.83	4.61
978.001	702.97
978.172	215.55
978.344	-56.83
978.515	29.18
978.686	64
978.857	483.83
979.028	-19.97
979.2	-28.16
979.371	514.55
979.542	272.89
979.713	145.92
979.884	-437.75
980.055	31.23
980.226	0.51
980.397	-48.64
980.568	-134.65
980.739	401.91
980.91	223.74
981.081	6.66
981.252	-71.17
981.423	320
981.594	385.53
981.765	-144.89
981.936	68.09
982.106	211.45
982.277	545.27
982.448	-103.93
982.619	168.45
982.79	184.83
982.96	479.74
983.131	98.81
983.302	-282.11
983.472	156.16
983.643	227.84
983.814	111.1
983.984	-136.7
984.155	66.05
984.326	342.52
984.496	37.38
984.667	-97.79
984.837	55.81
985.008	504.31
985.178	215.55
985.349	90.62
985.519	229.88
985.69	6.66
985.86	-26.11
986.031	-69.12
986.201	242.17
986.371	326.14
986.542	-142.85
986.712	-286.2
986.882	416.25
987.053	317.95
987.223	-105.98
987.393	107.01
987.563	82.43
987.734	352.76
987.904	268.8
988.074	0.51
988.244	213.5
988.414	102.91
988.585	-85.5
988.755	66.05
988.925	227.84
989.095	539.13
989.265	-42.5
989.435	64
989.605	315.9
989.775	276.99
989.945	231.93
990.115	-124.41
990.285	188.93
990.455	213.5
990.625	78.33
990.795	-140.8
990.965	471.54
991.134	57.86
991.304	-52.74
991.474	-103.93
991.644	236.03
991.814	629.24
991.984	-116.22
992.153	-153.09
992.323	135.68
992.493	133.63
992.662	-269.82
992.832	90.62
993.002	211.45
993.171	238.08
993.341	-257.53
993.511	186.88
993.68	29.18
993.85	258.56
994.019	-255.48
994.189	-179.71
994.358	154.11
994.528	39.42
994.697	-390.65
994.867	-222.72
995.036	283.13
995.206	76.29
995.375	-177.66
995.544	51.71
995.714	129.53
995.883	152.06
996.052	27.14
996.222	-312.83
996.391	662.01
996.56	172.54
996.73	-95.74
996.899	-253.44
997.068	522.74
997.237	98.81
997.406	-220.67
997.576	-251.39
997.745	152.06
997.914	133.63
998.083	-310.78
998.252	-71.17
998.421	139.77
998.59	8.7
998.759	-243.2
998.928	-226.81
999.097	446.97
999.266	330.23
999.435	-15.87
999.604	-374.27
999.773	619
999.942	137.73
1000.111	-282.11
1000.28	-355.83
1000.448	-114.17
1000.617	-52.74
1000.786	25.09
1000.955	-261.63
1001.124	188.93
1001.292	823.8
1001.461	-192
1001.63	-253.44
1001.798	524.79
1001.967	471.54
1002.136	-206.33
1002.304	-253.44
1002.473	217.6
1002.642	229.88
1002.81	-87.55
1002.979	-251.39
1003.147	311.8
1003.316	676.34
1003.484	-140.8
1003.653	-237.05
1003.821	371.19
1003.99	162.3
1004.158	-46.59
1004.327	-56.83
1004.495	213.5
1004.663	25.09
1004.832	-42.5
1005	-312.83
1005.168	250.36
1005.337	193.02
1005.505	-241.15
1005.673	51.71
1005.842	299.52
1006.01	205.31
1006.178	-388.6
1006.346	-157.18
1006.514	313.85
1006.683	365.05
1006.851	-210.43
1007.019	-286.2
1007.187	-155.13
1007.355	-329.21
1007.523	-325.12
1007.691	-333.31
1007.859	-210.43
1008.027	422.39
1008.195	-142.85
1008.363	-321.02
1008.531	301.56
1008.699	-58.88
1008.867	-302.59
1009.035	-298.49
1009.203	369.15
1009.37	131.58
1009.538	-136.7
1009.706	207.36
1009.874	238.08
1010.042	70.14
1010.209	-337.4
1010.377	-278.01
1010.545	264.7
1010.713	90.62
1010.88	-253.44
1011.048	-179.71
1011.216	2.56
1011.383	467.45
1011.551	-163.33
1011.718	-282.11
1011.886	352.76
1012.054	107.01
1012.221	-255.48
1012.389	-224.76
1012.556	82.43
1012.724	543.22
1012.891	-48.64
1013.058	-427.51
1013.226	260.6
1013.393	328.19
1013.561	-368.12
1013.728	-339.45
1013.895	395.77
1014.063	307.71
1014.23	-282.11
1014.397	-269.82
1014.565	272.89
1014.732	96.77
1014.899	-339.45
1015.066	-304.64
1015.233	152.06
1015.401	289.28
1015.568	-175.61
1015.735	-81.41
1015.902	119.29
1016.069	166.4
1016.236	-237.05
1016.403	-273.92
1016.57	-126.46
1016.737	365.05
1016.904	-120.32
1017.071	-218.62
1017.238	6.66
1017.405	320
1017.572	-179.71
1017.739	25.09
1017.906	195.07
1018.073	356.86
1018.24	-323.07
1018.407	-155.13
1018.573	360.95
1018.74	82.43
1018.907	-194.05
1019.074	-345.59
1019.241	379.39
1019.407	150.01
1019.574	-206.33
1019.741	-361.98
1019.907	176.64
1020.074	270.84
1020.241	-392.7
1020.407	-339.45
1020.574	211.45
1020.74	340.47
1020.907	-212.48
1021.073	-259.58
1021.24	709.11
1021.406	483.83
1021.573	-366.07
1021.739	-316.92
1021.906	299.52
1022.072	66.05
1022.239	-220.67
1022.405	-177.66
1022.571	172.54
1022.738	-36.35
1022.904	-194.05
1023.07	-128.51
1023.237	139.77
1023.403	403.96
1023.569	-232.96
1023.735	-144.89
1023.902	315.9
1024.068	291.32
1024.234	-425.47
1024.4	-239.1
1024.566	254.46
1024.732	283.13
1024.898	-192
1025.065	-359.93
1025.231	369.15
1025.397	98.81
1025.563	-220.67
1025.729	-280.06
1025.895	-286.2
1026.061	-148.99
1026.227	-427.51
1026.392	-220.67
1026.558	426.49
1026.724	111.1
1026.89	-361.98
1027.056	-177.66
1027.222	303.61
1027.388	33.28
1027.553	-241.15
1027.719	-294.4
1027.885	569.85
1028.051	215.55
1028.216	-402.94
1028.382	-210.43
1028.548	442.87
1028.713	2.56
1028.879	-290.3
1029.045	4.61
1029.21	426.49
1029.376	430.59
1029.541	-228.86
1029.707	-148.99
1029.873	295.42
1030.038	363
1030.204	-280.06
1030.369	-140.8
1030.534	279.04
1030.7	41.47
1030.865	-286.2
1031.031	-269.82
1031.196	219.64
1031.361	254.46
1031.527	-232.96
1031.692	-273.92
1031.857	-167.42
1032.023	242.17
1032.188	-306.68
1032.353	-128.51
1032.518	598.52
1032.684	215.55
1032.849	-353.79
1033.014	-224.76
1033.179	262.65
1033.344	289.28
1033.509	-124.41
1033.674	-245.24
1033.839	360.95
1034.004	313.85
1034.17	-261.63
1034.335	-372.22
1034.5	-1.54
1034.664	51.71
1034.829	-282.11
1034.994	-136.7
1035.159	303.61
1035.324	238.08
1035.489	-202.24
1035.654	-280.06
1035.819	475.64
1035.984	242.17
1036.148	-220.67
1036.313	-118.27
1036.478	459.26
1036.643	129.53
1036.807	-230.91
1036.972	-339.45
1037.137	442.87
1037.301	127.49
1037.466	-372.22
1037.631	-148.99
1037.795	428.54
1037.96	248.32
1038.124	-73.21
1038.289	-318.97
1038.454	328.19
1038.618	281.08
1038.783	-140.8
1038.947	-138.75
1039.111	197.12
1039.276	82.43
1039.44	-243.2
1039.605	266.75
1039.769	117.25
1039.933	164.35
1040.098	-112.13
1040.262	88.57
1040.426	383.48
1040.591	287.23
1040.755	-269.82
1040.919	-210.43
1041.083	215.55
1041.248	102.91
1041.412	-218.62
1041.576	-247.29
1041.74	16.9
1041.904	338.43
1042.068	-255.48
1042.232	-73.21
1042.397	391.67
1042.561	287.23
1042.725	-384.51
1042.889	20.99
1043.053	289.28
1043.217	254.46
1043.381	-118.27
1043.544	-261.63
1043.708	406.01
1043.872	-52.74
1044.036	-474.62
1044.2	-415.23
1044.364	487.93
1044.528	471.54
1044.691	4553.15
1044.855	-312.83
1045.019	440.83
1045.183	303.61
1045.346	-167.42
1045.51	-296.44
1045.674	350.71
1045.837	334.33
1046.001	-226.81
1046.165	-200.19
1046.328	762.36
1046.492	276.99
1046.655	-44.54
1046.819	-128.51
1046.983	12.8
1047.146	373.24
1047.31	-99.84
1047.473	-445.95
1047.636	223.74
1047.8	-77.31
1047.963	-200.19
1048.127	-204.28
1048.29	12.8
