Data from Ink_Intensity_USB4F045381__9__00009.txt Node

Date: Mon Jul 17 09:33:08 EDT 2023
User: mmckonesweet
Spectrometer: USB4F04538
Trigger mode: 4
Integration Time (sec): 9.000000E-1
Scans to average: 1
Electric dark correction enabled: true
Nonlinearity correction enabled: false
Boxcar width: 0
XAxis mode: Wavelengths
Number of Pixels in Spectrum: 3648
>>>>>Begin Spectral Data<<<<<
345.52	-872.09
345.736	-872.09
345.952	-872.09
346.168	-911
346.384	-956.06
346.6	-145.06
346.816	-233.13
347.032	-235.18
347.248	293.2
347.464	-251.56
347.68	-30.38
347.896	102.74
348.112	414.03
348.328	-59.05
348.544	-153.26
348.76	67.92
348.975	229.71
349.191	-138.92
349.407	-165.54
349.623	80.21
349.839	-69.29
350.055	-13.99
350.27	166.23
350.486	168.27
350.702	430.41
350.918	356.69
351.133	-130.73
351.349	182.61
351.565	360.78
351.781	-140.97
351.996	63.83
352.212	397.65
352.428	-42.67
352.644	-30.38
352.859	-153.26
353.075	268.63
353.291	8.53
353.506	-67.24
353.722	-128.68
353.938	-83.63
354.153	459.09
354.369	162.13
354.584	-124.58
354.8	246.1
355.016	-261.8
355.231	-167.59
355.447	-11.95
355.662	94.55
355.878	950.6
356.093	-206.5
356.309	45.4
356.524	-179.88
356.74	194.9
356.955	-36.52
357.171	37.2
357.386	143.7
357.602	-212.65
357.817	6.49
358.033	-93.87
358.248	395.6
358.464	160.08
358.679	24.92
358.895	-206.5
359.11	29.01
359.325	399.7
359.541	336.21
359.756	115.03
359.972	-294.57
360.187	168.27
360.402	-149.16
360.618	-36.52
360.833	1030.47
361.048	299.34
361.264	-104.11
361.479	47.44
361.694	-28.33
361.909	278.87
362.125	-194.22
362.34	-48.81
362.555	297.3
362.77	55.64
362.986	-171.69
363.201	-95.91
363.416	278.87
363.631	123.22
363.847	-32.43
364.062	-16.04
364.277	285.01
364.492	184.66
364.707	-77.48
364.922	-249.51
365.138	262.48
365.353	289.1
365.568	-149.16
365.783	-7.85
365.998	80.21
366.213	659.79
366.428	-73.39
366.643	153.94
366.858	366.93
367.073	246.1
367.288	-57
367.503	-130.73
367.718	145.75
367.933	282.96
368.148	-233.13
368.363	-48.81
368.578	8.53
368.793	520.53
369.008	-108.2
369.223	-95.91
369.438	211.28
369.653	477.52
369.868	-161.45
370.083	-48.81
370.298	69.97
370.513	315.73
370.728	180.56
370.943	-20.14
371.157	-87.72
371.372	588.11
371.587	-177.83
371.802	-102.06
372.017	80.21
372.232	524.62
372.446	92.5
372.661	-157.35
372.876	328.02
373.091	174.42
373.306	82.26
373.52	-79.53
373.735	-38.57
373.95	563.53
374.165	20.82
374.379	-7.85
374.594	-57
374.809	231.76
375.023	115.03
375.238	-151.21
375.453	254.29
375.667	-155.3
375.882	-7.85
376.097	-34.47
376.311	139.6
376.526	49.49
376.741	-108.2
376.955	264.53
377.17	608.59
377.384	516.43
377.599	-13.99
377.813	-97.96
378.028	661.84
378.242	225.62
378.457	-34.47
378.672	-200.36
378.886	176.47
379.101	102.74
379.315	-126.63
379.53	-1.71
379.744	336.21
379.958	315.73
380.173	-1.71
380.387	-22.19
380.602	254.29
380.816	-26.28
381.031	14.68
381.245	63.83
381.459	356.69
381.674	856.39
381.888	22.87
382.103	215.38
382.317	-54.95
382.531	633.16
382.746	72.02
382.96	59.73
383.174	47.44
383.388	559.44
383.603	209.23
383.817	-126.63
384.031	280.91
384.246	549.2
384.46	168.27
384.674	407.89
384.888	170.32
385.103	143.7
385.317	-3.75
385.531	170.32
385.745	522.57
385.959	428.37
386.174	-5.8
386.388	-32.43
386.602	92.5
386.816	37.2
387.03	96.6
387.244	65.88
387.458	164.18
387.672	373.07
387.887	-1.71
388.101	-106.15
388.315	479.57
388.529	305.49
388.743	143.7
388.957	-26.28
389.171	397.65
389.385	-52.91
389.599	135.51
389.813	289.1
390.027	323.92
390.241	692.55
390.455	88.4
390.669	178.51
390.883	16.73
391.097	684.36
391.311	242
391.525	22.87
391.738	330.06
391.952	211.28
392.166	125.27
392.38	-3.75
392.594	457.04
392.808	487.76
393.022	137.56
393.236	123.22
393.449	457.04
393.663	371.02
393.877	31.06
394.091	117.08
394.305	90.45
394.518	94.55
394.732	-38.57
394.946	233.81
395.16	659.79
395.373	282.96
395.587	67.92
395.801	-9.9
396.015	428.37
396.228	321.87
396.442	59.73
396.656	-7.85
396.869	584.01
397.083	586.06
397.297	225.62
397.51	166.23
397.724	649.55
397.938	434.51
398.151	-26.28
398.365	-9.9
398.578	364.88
398.792	579.92
399.005	211.28
399.219	188.75
399.433	319.82
399.646	422.22
399.86	325.97
400.073	309.58
400.287	491.85
400.5	151.89
400.714	291.15
400.927	301.39
401.141	483.66
401.354	1245.51
401.567	454.99
401.781	106.84
401.994	489.81
402.208	848.2
402.421	201.04
402.635	242
402.848	248.15
403.061	606.54
403.275	293.2
403.488	61.78
403.701	833.86
403.915	471.37
404.128	373.07
404.341	190.8
404.555	411.98
404.768	381.26
404.981	375.12
405.195	205.14
405.408	921.93
405.621	577.87
405.834	414.03
406.048	151.89
406.261	629.07
406.474	756.04
406.687	190.8
406.9	391.5
407.114	295.25
407.327	444.75
407.54	104.79
407.753	201.04
407.966	186.71
408.179	618.83
408.392	170.32
408.605	0.34
408.819	428.37
409.032	495.95
409.245	190.8
409.458	471.37
409.671	545.1
409.884	659.79
410.097	141.65
410.31	459.09
410.523	502.09
410.736	342.35
410.949	352.59
411.162	332.11
411.375	905.54
411.588	741.71
411.801	479.57
412.014	307.54
412.227	483.66
412.44	389.46
412.653	274.77
412.865	465.23
413.078	676.17
413.291	624.97
413.504	409.94
413.717	332.11
413.93	686.41
414.143	297.3
414.356	366.93
414.568	235.86
414.781	708.94
414.994	551.24
415.207	418.13
415.42	395.6
415.632	698.7
415.845	940.36
416.058	246.1
416.271	223.57
416.483	500.05
416.696	997.7
416.909	481.61
417.121	319.82
417.334	692.55
417.547	1083.72
417.759	354.64
417.972	350.54
418.185	373.07
418.397	719.18
418.61	426.32
418.823	489.81
419.035	926.02
419.248	563.53
419.46	489.81
419.673	663.88
419.885	696.65
420.098	606.54
420.311	485.71
420.523	209.23
420.736	823.62
420.948	543.05
421.161	430.41
421.373	282.96
421.586	651.6
421.798	389.46
422.01	231.76
422.223	575.82
422.435	530.77
422.648	866.63
422.86	397.65
423.073	477.52
423.285	956.74
423.497	336.21
423.71	541.01
423.922	434.51
424.134	778.57
424.347	1012.04
424.559	706.89
424.771	770.38
424.984	491.85
425.196	825.67
425.408	401.74
425.621	379.22
425.833	1020.23
426.045	966.98
426.257	512.33
426.47	457.04
426.682	913.74
426.894	866.63
427.106	604.49
427.318	647.5
427.531	733.51
427.743	923.98
427.955	577.87
428.167	1044.81
428.379	962.89
428.591	692.55
428.804	633.16
429.016	502.09
429.228	659.79
429.44	940.36
429.652	825.67
429.864	553.29
430.076	710.99
430.288	815.43
430.5	678.22
430.712	733.51
430.924	1026.37
431.136	930.12
431.348	487.76
431.56	635.21
431.772	850.25
431.984	792.91
432.196	741.71
432.408	672.08
432.62	706.89
432.832	975.17
433.044	1075.52
433.256	960.84
433.468	1063.24
433.679	764.23
433.891	667.98
434.103	923.98
434.315	1212.74
434.527	1055.05
434.739	903.5
434.95	858.44
435.162	1167.68
435.374	835.91
435.586	940.36
435.798	803.15
436.009	760.14
436.221	923.98
436.433	813.38
436.645	868.68
436.856	917.83
437.068	1169.73
437.28	878.92
437.491	1210.69
437.703	1132.87
437.915	1104.2
438.126	1032.52
438.338	1108.29
438.55	1022.28
438.761	1290.56
438.973	930.12
439.184	905.54
439.396	1241.41
439.608	1399.1
439.819	958.79
440.031	1057.09
440.242	1184.07
440.454	1259.84
440.665	999.75
440.877	1159.49
441.088	1270.08
441.3	1098.05
441.511	932.17
441.723	921.93
441.934	1196.36
442.146	1071.43
442.357	1175.88
442.569	1321.28
442.78	1227.07
442.991	1593.66
443.203	1347.9
443.414	995.65
443.626	1593.66
443.837	1044.81
444.048	989.51
444.26	942.41
444.471	1243.46
444.682	1337.66
444.894	821.58
445.105	921.93
445.316	1352
445.528	1456.45
445.739	1216.83
445.95	1235.27
446.161	1227.07
446.373	1614.14
446.584	1208.64
446.795	1155.4
447.006	1452.35
447.217	1730.87
447.429	969.03
447.64	964.93
447.851	1663.29
448.062	1290.56
448.273	956.74
448.484	1241.41
448.695	1474.88
448.907	1245.51
449.118	1356.1
449.329	1382.72
449.54	1212.74
449.751	991.56
449.962	1356.1
450.173	1257.79
450.384	1773.88
450.595	1679.68
450.806	1360.19
451.017	1319.23
451.228	1714.49
451.439	1624.38
451.65	1370.43
451.861	1116.48
452.072	1231.17
452.283	1397.06
452.494	1534.27
452.705	1345.86
452.915	1784.12
453.126	1521.98
453.337	1478.97
453.548	1265.99
453.759	1802.55
453.97	2058.55
454.181	1616.19
454.391	1427.78
454.602	1771.83
454.813	1755.45
455.024	1616.19
455.235	1517.89
455.445	1669.44
455.656	1800.51
455.867	1673.53
456.078	1538.37
456.288	1579.33
456.499	1814.84
456.71	1489.21
456.921	1788.22
457.131	1796.41
457.342	1788.22
457.553	1718.59
457.763	1642.81
457.974	1919.29
458.184	2093.37
458.395	1651
458.606	1524.03
458.816	2144.56
459.027	2335.03
459.237	1843.51
459.448	1579.33
459.659	2167.09
459.869	2537.77
460.08	1587.52
460.29	2009.4
460.501	2416.94
460.711	1956.15
460.922	1712.44
461.132	1882.42
461.343	2625.84
461.553	1843.51
461.764	2019.64
461.974	2011.45
462.184	2261.3
462.395	2238.77
462.605	2158.9
462.816	1874.23
463.026	2165.04
463.236	2568.49
463.447	2136.37
463.657	2066.74
463.867	2459.95
464.078	2171.19
464.288	2115.89
464.498	2113.85
464.709	2300.21
464.919	2292.02
465.129	2455.86
465.339	2263.35
465.55	2521.39
465.76	2550.06
465.97	2312.5
466.18	2226.48
466.391	2697.52
466.601	2627.89
466.811	2464.05
467.021	2310.45
467.231	2713.9
467.441	2885.93
467.651	2613.55
467.862	2224.44
468.072	2758.96
468.282	3100.97
468.492	2625.84
468.702	2732.33
468.912	2861.35
469.122	3397.92
469.332	3078.44
469.542	2537.77
469.752	3221.8
469.962	3037.48
470.172	2765.1
470.382	2758.96
470.592	3162.41
470.802	3397.92
471.012	3170.6
471.222	3080.49
471.432	3492.13
471.642	3404.07
471.852	3182.88
472.062	2982.18
472.272	3309.86
472.482	3221.8
472.691	3143.97
472.901	3043.62
473.111	3528.99
473.321	3957.02
473.531	3330.34
473.741	3545.38
473.95	3684.64
474.16	3834.14
474.37	3471.65
474.58	3528.99
474.79	4202.77
474.999	3973.4
475.209	3658.01
475.419	3809.56
475.628	3803.42
475.838	4249.88
476.048	3930.39
476.258	3821.85
476.467	4395.28
476.677	4067.61
476.886	4145.43
477.096	4239.64
477.306	4083.99
477.515	4622.61
477.725	4258.07
477.935	4380.95
478.144	4614.41
478.354	4315.41
478.563	4419.86
478.773	4550.93
478.982	4929.8
479.192	4858.12
479.401	4528.4
479.611	4659.47
479.82	4620.56
480.03	4989.19
480.239	4645.13
480.449	4669.71
480.658	5454.08
480.868	4956.43
481.077	4923.66
481.287	4995.34
481.496	5466.37
481.705	5533.95
481.915	5396.74
482.124	5261.57
482.333	5527.81
482.543	5689.6
482.752	5392.64
482.961	5247.24
483.171	5714.17
483.38	5761.28
483.589	5581.06
483.799	5556.48
484.008	5822.72
484.217	5947.64
484.426	5773.57
484.636	5581.06
484.845	6146.3
485.054	5667.07
485.263	6226.17
485.472	5878.01
485.682	6615.28
485.891	6414.58
486.1	5814.52
486.309	6326.52
486.518	6549.75
486.727	6676.72
486.936	6156.54
487.146	6424.82
487.355	6807.79
487.564	6217.97
487.773	6328.56
487.982	6326.52
488.191	6541.55
488.4	6922.48
488.609	6410.48
488.818	6809.84
489.027	7358.69
489.236	7088.36
489.445	6858.99
489.654	6772.97
489.863	7465.19
490.072	7262.44
490.281	7373.03
490.49	6967.53
490.698	7473.38
490.907	7604.45
491.116	7078.12
491.325	7080.17
491.534	7555.3
491.743	7530.72
491.952	7397.6
492.16	7248.1
492.369	7600.35
492.578	7774.43
492.787	7426.28
492.996	7282.92
493.204	7629.02
493.413	8034.52
493.622	7557.35
493.831	7309.54
494.039	8290.52
494.248	7768.29
494.457	7622.88
494.665	7803.1
494.874	8153.3
495.083	8591.57
495.291	7862.49
495.5	7901.4
495.709	8394.97
495.917	8222.94
496.126	7997.66
496.335	8390.87
496.543	8323.29
496.752	8374.49
496.96	8376.53
497.169	8167.64
497.377	8450.26
497.586	8814.8
497.794	8577.23
498.003	8222.94
498.211	8724.69
498.42	9035.98
498.628	8827.09
498.837	8429.78
499.045	8890.57
499.254	8913.1
499.462	8790.22
499.671	8708.3
499.879	9347.27
500.087	9365.7
500.296	8800.46
500.504	8880.33
500.713	9287.88
500.921	9648.32
501.129	9050.32
501.338	9062.6
501.546	9388.23
501.754	9427.14
501.962	9371.85
502.171	9085.13
502.379	9545.92
502.587	9812.16
502.795	9480.39
503.004	9261.26
503.212	9466.05
503.42	9812.16
503.628	9572.55
503.837	9447.62
504.045	10004.67
504.253	10318.01
504.461	9414.85
504.669	9507.01
504.877	9959.61
505.085	10348.73
505.294	9683.14
505.502	9879.74
505.71	10332.34
505.918	10150.07
506.126	9846.98
506.334	9773.25
506.542	10025.15
506.75	10172.6
506.958	10064.06
507.166	10053.82
507.374	10195.13
507.582	10799.28
507.79	10313.91
507.998	10262.71
508.206	10440.89
508.414	10471.61
508.622	9982.14
508.83	10094.78
509.037	10633.4
509.245	10303.67
509.453	10258.62
509.661	10301.62
509.869	10711.22
510.077	10436.79
510.285	10684.59
510.492	10281.14
510.7	11466.92
510.908	10627.25
511.116	10672.31
511.324	10522.8
511.531	10883.25
511.739	10889.39
511.947	10975.41
512.155	11028.65
512.362	10993.84
512.57	10678.45
512.778	10881.2
512.985	10670.26
513.193	11243.69
513.401	11442.34
513.608	11184.3
513.816	10956.97
514.024	11196.59
514.231	11403.43
514.439	10918.06
514.646	10959.02
514.854	11626.66
515.061	11382.95
515.269	11167.91
515.477	11296.94
515.684	11247.79
515.892	11655.33
516.099	10948.78
516.307	11094.19
516.514	11671.72
516.722	12288.15
516.929	11225.26
517.136	11360.42
517.344	11837.6
517.551	11591.84
517.759	11397.29
517.966	11630.76
518.173	11751.59
518.381	11870.37
518.588	11886.75
518.796	11686.05
519.003	11972.77
519.21	12036.25
519.418	11927.71
519.625	11946.14
519.832	11987.1
520.039	12134.56
520.247	11602.08
520.454	11985.05
520.661	12435.61
520.868	12263.58
521.076	12183.71
521.283	12163.23
521.49	12988.56
521.697	12566.68
521.904	12239
522.112	12474.52
522.319	12753.04
522.526	12523.67
522.733	12294.3
522.94	12548.25
523.147	12736.66
523.354	13052.05
523.561	12345.5
523.768	12746.9
523.975	13027.47
524.183	12968.08
524.39	12755.09
524.597	12841.11
524.804	12972.18
525.011	12755.09
525.218	12648.6
525.425	12996.75
525.632	13187.21
525.838	12914.83
526.045	12861.59
526.252	12963.98
526.459	14135.42
526.666	14198.91
526.873	12947.6
527.08	13234.32
527.287	13488.26
527.494	13484.17
527.701	13033.61
527.907	13164.68
528.114	13768.84
528.321	13389.96
528.528	13561.99
528.735	13406.34
528.941	13492.36
529.148	13326.47
529.355	13424.78
529.562	13289.61
529.768	14035.07
529.975	13631.62
530.182	13559.94
530.388	13396.1
530.595	14239.87
530.802	13322.38
531.008	13899.91
531.215	13893.76
531.422	14575.73
531.628	14682.23
531.835	13920.38
532.042	14028.93
532.248	14258.3
532.455	14262.4
532.661	14043.26
532.868	13914.24
533.074	14438.52
533.281	14397.56
533.487	14053.5
533.694	14393.47
533.9	14403.71
534.107	14659.7
534.313	14391.42
534.52	14215.29
534.726	14680.18
534.933	14819.44
535.139	14274.68
535.345	14336.12
535.552	14721.14
535.758	14776.44
535.965	14579.83
536.171	14551.16
536.377	15130.73
536.584	14950.51
536.79	14434.43
536.996	15061.1
537.203	14960.75
537.409	15007.86
537.615	14887.03
537.821	14930.03
538.028	15337.58
538.234	15427.69
538.44	14792.82
538.646	15024.24
538.853	15525.99
539.059	15280.24
539.265	15556.71
539.471	15024.24
539.677	15480.94
539.883	15558.76
540.09	15419.5
540.296	15704.17
540.502	15728.74
540.708	15341.68
540.914	15603.82
541.12	15442.03
541.326	15575.14
541.532	16023.65
541.738	15777.89
541.944	15851.62
542.15	16107.62
542.356	15761.51
542.562	15720.55
542.768	15835.24
542.974	16736.34
543.18	16679
543.386	16101.47
543.592	15943.78
543.798	16380
544.004	16521.31
544.21	16183.39
544.415	16244.83
544.621	16879.7
544.827	16365.66
545.033	16234.59
545.239	16549.98
545.445	16541.78
545.651	16648.28
545.856	16220.25
546.062	16574.55
546.268	16654.42
546.474	16562.26
546.679	16486.49
546.885	16674.9
547.091	16715.86
547.297	16848.98
547.502	16523.35
547.708	16556.12
547.914	16578.65
548.119	16937.04
548.325	16623.7
548.531	16410.71
548.736	17127.5
548.942	16541.78
549.147	16814.16
549.353	17107.02
549.559	17195.09
549.764	17059.92
549.97	16742.49
550.175	16830.55
550.381	17352.78
550.586	16914.52
550.792	17176.66
550.997	16816.21
551.203	17555.53
551.408	17338.44
551.614	16881.75
551.819	17025.11
552.025	17803.33
552.23	18204.74
552.435	17240.14
552.641	17623.11
552.846	17416.27
553.052	18126.91
553.257	17768.52
553.462	17727.56
553.668	17520.71
553.873	17854.53
554.078	17537.1
554.283	17621.06
554.489	18071.62
554.694	18044.99
554.899	17745.99
555.105	18053.19
555.31	17829.96
555.515	18315.33
555.72	18079.81
555.925	17596.49
556.131	18640.95
556.336	18151.49
556.541	18233.41
556.746	18251.84
556.951	18387
557.156	18473.02
557.361	18042.95
557.567	18450.49
557.772	18995.25
557.977	18536.51
558.182	18196.54
558.387	18262.08
558.592	18290.75
558.797	18620.47
559.002	18341.95
559.207	18552.89
559.412	18663.48
559.617	19052.59
559.822	18606.14
560.027	18309.18
560.232	18862.13
560.437	18876.47
560.642	18567.23
560.847	18755.64
561.051	18778.17
561.256	18618.43
561.461	18659.38
561.666	18829.37
561.871	19052.59
562.076	19017.78
562.281	18753.59
562.485	18657.34
562.69	19359.79
562.895	19351.6
563.1	19154.99
563.305	18690.1
563.509	19458.09
563.714	19603.5
563.919	18733.11
564.123	18985.01
564.328	19312.69
564.533	19687.46
564.737	18872.37
564.942	19292.21
565.147	19863.59
565.351	19724.33
565.556	19214.38
565.761	19109.94
565.965	19515.44
566.17	19296.3
566.374	19531.82
566.579	19187.76
566.784	19544.11
566.988	19927.08
567.193	19333.17
567.397	19529.77
567.602	19292.21
567.806	19505.2
568.011	19460.14
568.215	19685.42
568.42	19906.6
568.624	19820.58
568.828	20027.43
569.033	19767.34
569.237	20170.79
569.442	20127.78
569.646	19486.76
569.85	20025.38
570.055	20029.48
570.259	20052
570.463	19957.8
570.668	19945.51
570.872	20099.11
571.076	20101.15
571.281	20131.87
571.485	20072.48
571.689	20226.08
571.893	20363.29
572.098	20039.72
572.302	20269.09
572.506	20733.98
572.71	20117.54
572.914	20398.11
573.119	20467.74
573.323	20723.74
573.527	20711.45
573.731	20332.58
573.935	20367.39
574.139	20803.61
574.343	20312.1
574.547	20224.03
574.751	20555.8
574.955	21110.8
575.159	20815.9
575.364	20727.83
575.568	20596.76
575.772	21020.69
575.976	21180.43
576.18	20486.17
576.383	20791.32
576.587	21288.98
576.791	21192.72
576.995	20553.76
577.199	20733.98
577.403	21237.78
577.607	21338.13
577.811	20885.53
578.015	20713.5
578.219	21358.61
578.422	21438.48
578.626	21145.62
578.83	21313.55
579.034	21549.07
579.238	21624.84
579.442	21530.64
579.645	21735.43
579.849	21549.07
580.053	21637.13
580.257	21239.83
580.46	21418
580.664	21630.99
580.868	21655.56
581.071	21377.04
581.275	21372.94
581.479	21147.67
581.682	21721.1
581.886	21577.74
582.09	21968.9
582.293	21735.43
582.497	21975.05
582.7	21794.82
582.904	21714.95
583.107	22181.89
583.311	21686.28
583.515	21708.81
583.718	21747.72
583.922	22077.44
584.125	22415.36
584.329	21790.73
584.532	21823.5
584.735	22179.84
584.939	21860.36
585.142	21450.77
585.346	21841.93
585.549	22710.27
585.753	22269.95
585.956	22237.19
586.159	22249.47
586.363	22931.45
586.566	22775.8
586.769	22016.01
586.973	21956.61
587.176	22482.94
587.379	22697.98
587.582	22581.24
587.786	22341.63
587.989	22499.33
588.192	23138.29
588.395	22679.55
588.599	22728.7
588.802	22738.94
589.005	22980.6
589.208	22769.66
589.411	22618.11
589.615	23271.41
589.818	23347.19
590.021	23089.14
590.224	22808.57
590.427	23083
590.63	23193.59
590.833	22659.07
591.036	22659.07
591.239	22859.77
591.442	22650.88
591.645	23304.18
591.848	23089.14
592.051	23551.98
592.254	23392.24
592.457	23130.1
592.66	23261.17
592.863	23564.27
593.066	23429.1
593.269	23148.53
593.472	23556.08
593.675	23433.2
593.878	23848.94
594.081	23400.43
594.284	23193.59
594.486	24086.5
594.689	23494.64
594.892	23357.42
595.095	23855.08
595.298	24104.93
595.5	23842.79
595.703	23781.35
595.906	23785.45
596.109	24229.86
596.311	24090.6
596.514	23832.55
596.717	23875.56
596.92	24561.63
597.122	24506.34
597.325	23558.13
597.528	23683.05
597.73	24598.49
597.933	24645.6
598.136	24117.22
598.338	23975.91
598.541	24416.22
598.743	24604.64
598.946	24272.87
599.148	24354.79
599.351	24836.06
599.554	24559.58
599.756	24311.78
599.959	24446.94
600.161	24535.01
600.363	25161.69
600.566	24602.59
600.768	24438.75
600.971	24831.96
601.173	24373.22
601.376	24506.34
601.578	24860.63
601.78	24981.46
601.983	25579.47
602.185	24707.04
602.388	25034.71
602.59	24917.98
602.792	24676.32
602.995	24707.04
603.197	24459.23
603.399	25311.19
603.601	25016.28
603.804	24780.76
604.006	24616.93
604.208	24745.95
604.41	24555.49
604.613	25133.01
604.815	25079.77
605.017	25864.14
605.219	25389.01
605.421	25130.97
605.623	25200.6
605.826	25626.57
606.028	25645.01
606.23	25231.32
606.432	25366.48
606.634	26169.29
606.836	25550.8
607.038	25051.1
607.24	25370.58
607.442	25675.73
607.644	25446.35
607.846	25161.69
608.048	25262.04
608.25	25419.73
608.452	25300.95
608.654	25323.47
608.856	24963.03
609.058	25376.72
609.26	25534.42
609.462	25466.83
609.664	25370.58
609.866	25995.21
610.067	25886.67
610.269	25628.62
610.471	25382.87
610.673	25628.62
610.875	25948.11
611.077	25563.09
611.278	25327.57
611.48	25694.16
611.682	26183.62
611.884	25796.56
612.085	25386.96
612.287	25538.51
612.489	25645.01
612.69	25407.44
612.892	25763.79
613.094	25722.83
613.295	25499.6
613.497	25438.16
613.699	25432.02
613.9	26130.37
614.102	26226.63
614.304	25487.31
614.505	25032.66
614.707	26187.72
614.908	25466.83
615.11	25538.51
615.311	26107.85
615.513	25960.39
615.714	26398.66
615.916	25583.57
616.117	25737.16
616.319	25530.32
616.52	26159.05
616.722	25798.6
616.923	25888.71
617.124	26300.36
617.326	25583.57
617.527	26017.74
617.729	26062.79
617.93	26243.01
618.131	26593.22
618.333	25808.84
618.534	26113.99
618.735	26208.2
618.937	26582.98
619.138	25814.99
619.339	25964.49
619.54	26025.93
619.742	25972.68
619.943	26427.33
620.144	26097.61
620.345	26292.16
620.546	26441.67
620.748	26292.16
620.949	26576.83
621.15	26451.91
621.351	26570.69
621.552	25952.2
621.753	25704.4
621.954	26111.94
622.155	26468.29
622.356	25982.92
622.558	26296.26
622.759	26527.68
622.96	26654.65
623.161	26240.96
623.362	26353.6
623.563	26675.13
623.764	26529.73
623.965	26038.22
624.166	26695.61
624.366	26384.32
624.567	26507.2
624.768	26034.12
624.969	26298.31
625.17	26605.5
625.371	26683.33
625.572	26308.55
625.773	25903.05
625.973	27074.49
626.174	26798.01
626.375	26763.2
626.576	26658.75
626.777	26761.15
626.977	27207.61
627.178	26546.11
627.379	26783.68
627.58	26765.24
627.78	26808.25
627.981	26552.26
628.182	26404.8
628.382	27197.37
628.583	26406.85
628.784	26372.03
628.984	26625.98
629.185	27062.2
629.386	26574.78
629.586	26896.31
629.787	26621.89
629.987	26718.14
630.188	26712
630.388	26742.72
630.589	26310.6
630.79	27406.26
630.99	26886.08
631.191	27154.36
631.391	26939.32
631.591	26982.33
631.792	26918.84
631.992	27146.17
632.193	26855.36
632.393	27240.37
632.594	27076.54
632.794	26998.71
632.994	26783.68
633.195	27213.75
633.395	27084.73
633.595	26838.97
633.796	27322.29
633.996	27332.53
634.196	27588.53
634.397	27129.78
634.597	27197.37
634.797	27213.75
634.997	27574.19
635.198	27293.62
635.398	26996.67
635.598	27508.66
635.798	27549.62
635.998	27281.33
636.199	26986.43
636.399	27484.08
636.599	27031.48
636.799	27162.55
636.999	27504.56
637.199	27709.36
637.399	27504.56
637.599	27084.73
637.799	26902.46
637.999	27705.26
638.199	28155.82
638.399	27336.63
638.599	27310
638.799	27826.09
638.999	28090.28
639.199	27652.02
639.399	27682.73
639.599	28063.66
639.799	27244.47
639.999	27422.64
640.199	27486.13
640.399	27834.28
640.599	27064.25
640.799	27678.64
640.998	27672.5
641.198	27930.54
641.398	27756.46
641.598	27762.61
641.798	27715.5
641.997	28692.38
642.197	28131.24
642.397	27797.42
642.597	28010.41
642.796	28030.89
642.996	28133.29
643.196	27951.02
643.395	27348.92
643.595	28241.83
643.795	27572.14
643.994	27889.58
644.194	27815.85
644.394	27813.8
644.593	27957.16
644.793	27899.82
644.992	28413.86
645.192	28260.26
645.392	27670.45
645.591	28233.64
645.791	28090.28
645.99	28719.01
646.19	28413.86
646.389	28202.92
646.589	28286.89
646.788	28182.44
646.987	28102.57
647.187	28684.19
647.386	28207.01
647.586	28268.45
647.785	28594.08
647.984	28151.72
648.184	28028.84
648.383	28143.53
648.582	28585.89
648.782	28471.2
648.981	28538.79
649.18	27924.4
649.38	28549.03
649.579	28041.13
649.778	28506.02
649.977	28602.27
650.177	28788.64
650.376	28323.75
650.575	28317.61
650.774	29165.46
650.973	28364.71
651.173	28135.34
651.372	28342.18
651.571	28878.75
651.77	28628.9
651.969	28712.86
652.168	28561.31
652.367	28479.39
652.566	29048.73
652.765	28667.81
652.964	28884.89
653.163	29364.12
653.362	28555.17
653.561	28696.48
653.76	28999.58
653.959	28909.47
654.158	28936.09
654.357	28753.82
654.556	28450.72
654.755	29151.13
654.954	29271.96
655.153	28563.36
655.352	28882.84
655.551	28936.09
655.749	29167.51
655.948	29030.3
656.147	28932
656.346	29347.73
656.545	28888.99
656.743	28897.18
656.942	29079.45
657.141	29028.25
657.34	29061.02
657.538	28700.58
657.737	28753.82
657.936	28702.62
658.135	29345.69
658.333	28968.86
658.532	29198.23
658.731	29448.08
658.929	29220.76
659.128	28950.43
659.326	28938.14
659.525	29267.86
659.724	29269.91
659.922	29034.39
660.121	29067.16
660.319	29185.94
660.518	29007.77
660.716	28923.8
660.915	29360.02
661.113	29509.52
661.312	29304.73
661.51	29462.42
661.709	29435.8
661.907	29298.58
662.105	29835.15
662.304	29214.62
662.502	29300.63
662.701	29697.94
662.899	29144.98
663.097	29495.19
663.296	28809.12
663.494	29327.25
663.692	29443.99
663.891	28790.69
664.089	28862.36
664.287	29226.9
664.485	29605.78
664.684	29310.87
664.882	28999.58
665.08	29308.82
665.278	29577.11
665.476	29400.98
665.675	29276.05
665.873	29763.47
666.071	29865.87
666.269	29231
666.467	29175.7
666.665	29470.61
666.863	29472.66
667.061	29489.04
667.259	29073.31
667.457	29292.44
667.655	29503.38
667.853	29296.53
668.051	29155.22
668.249	29484.95
668.447	29691.79
668.645	29298.58
668.843	29570.96
669.041	29695.89
669.239	29245.34
669.437	29253.53
669.635	29560.72
669.833	29038.49
670.031	29845.39
670.229	29161.37
670.426	29515.67
670.624	29554.58
670.822	29208.47
671.02	29134.74
671.218	29118.36
671.415	29278.1
671.613	29274.01
671.811	29220.76
672.009	29450.13
672.206	29546.39
672.404	29491.09
672.602	29618.07
672.799	29450.13
672.997	29640.59
673.195	29786
673.392	29523.86
673.59	29085.59
673.788	29687.7
673.985	28757.92
674.183	29052.83
674.38	29437.84
674.578	29742.99
674.775	29292.44
674.973	28747.68
675.17	28983.2
675.368	30105.48
675.565	29482.9
675.763	28843.93
675.96	29024.15
676.158	29728.66
676.355	29181.85
676.553	29261.72
676.75	28794.78
676.947	29249.43
677.145	28741.53
677.342	29001.63
677.539	28884.89
677.737	29308.82
677.934	29577.11
678.131	28968.86
678.329	29046.68
678.526	29587.35
678.723	29214.62
678.92	29448.08
679.118	28917.66
679.315	28870.56
679.512	29228.95
679.709	29120.41
679.906	28919.71
680.104	29228.95
680.301	29159.32
680.498	29026.2
680.695	28985.24
680.892	28923.8
681.089	28854.17
681.286	29202.33
681.483	28397.48
681.68	28848.03
681.877	29009.82
682.075	28510.11
682.272	29065.11
682.469	29120.41
682.665	28964.76
682.862	28821.41
683.059	28678.05
683.256	28993.43
683.453	29247.38
683.65	29351.83
683.847	29321.11
684.044	29198.23
684.241	28956.57
684.438	29337.49
684.635	28454.82
684.831	29419.41
685.028	29325.21
685.225	28743.58
685.422	28848.03
685.619	28962.72
685.815	28782.49
686.012	28422.05
686.209	28268.45
686.405	28374.95
686.602	28616.61
686.799	27953.07
686.996	28422.05
687.192	28219.3
687.389	28921.76
687.586	28057.51
687.782	28534.69
687.979	28772.25
688.175	28862.36
688.372	28520.35
688.568	28551.07
688.765	28546.98
688.962	29194.14
689.158	28594.08
689.355	28270.5
689.551	28385.19
689.748	28166.06
689.944	28338.08
690.14	28155.82
690.337	28495.78
690.533	28600.22
690.73	28698.53
690.926	28880.8
691.123	28661.66
691.319	28522.4
691.515	28665.76
691.712	28546.98
691.908	28643.23
692.104	28354.47
692.301	28270.5
692.497	27862.96
692.693	28360.61
692.889	28811.17
693.086	28198.82
693.282	27901.87
693.478	28180.39
693.674	28286.89
693.87	28096.42
694.067	27832.24
694.263	28268.45
694.459	28250.02
694.655	28131.24
694.851	28262.31
695.047	28213.16
695.243	28346.28
695.439	28178.34
695.635	27862.96
695.831	28368.8
696.027	28538.79
696.224	28227.49
696.42	28286.89
696.615	28374.95
696.811	28522.4
697.007	27778.99
697.203	27946.92
697.399	28450.72
697.595	28508.07
697.791	27682.73
697.987	28020.65
698.183	27865
698.379	27637.68
698.575	28135.34
698.77	28260.26
698.966	28014.51
699.162	28360.61
699.358	27828.14
699.554	27652.02
699.749	28223.4
699.945	28415.91
700.141	27750.32
700.337	28159.91
700.532	27721.65
700.728	27719.6
700.924	27979.69
701.119	27705.26
701.315	27598.77
701.511	27836.33
701.706	27705.26
701.902	27187.13
702.097	27604.91
702.293	27836.33
702.489	27400.12
702.684	27195.32
702.88	27699.12
703.075	27555.76
703.271	27471.79
703.466	27518.9
703.662	27529.14
703.857	28002.22
704.053	27740.08
704.248	27445.17
704.443	27948.97
704.639	27729.84
704.834	27375.54
705.03	27334.58
705.225	27789.23
705.42	27721.65
705.616	27625.39
705.811	27197.37
706.006	27508.66
706.202	27580.34
706.397	27482.03
706.592	27539.38
706.787	27504.56
706.983	27875.24
707.178	28123.05
707.373	27680.69
707.568	27654.06
707.763	27658.16
707.959	27740.08
708.154	27762.61
708.349	27346.87
708.544	27525.04
708.739	27283.38
708.934	27385.78
709.129	27742.13
709.324	27834.28
709.519	27310
709.714	27256.76
709.909	27826.09
710.104	27402.16
710.299	27146.17
710.494	27416.5
710.689	27340.72
710.884	26871.74
711.079	27223.99
711.274	27107.26
711.469	27582.38
711.664	27322.29
711.859	27535.28
712.054	27064.25
712.249	27031.48
712.443	26949.56
712.638	26849.21
712.833	26609.6
713.028	26984.38
713.223	26673.09
713.417	27459.51
713.612	27123.64
713.807	27477.94
714.002	27922.35
714.196	27211.7
714.391	27183.03
714.586	27367.35
714.78	26998.71
714.975	26978.23
715.17	26769.34
715.364	26859.45
715.559	27584.43
715.754	26476.48
715.948	26623.94
716.143	27572.14
716.337	27223.99
716.532	27414.45
716.726	26976.19
716.921	26900.41
717.115	27461.55
717.31	26625.98
717.504	27293.62
717.699	27084.73
717.893	26841.02
718.088	26515.39
718.282	27004.86
718.476	26847.16
718.671	26767.29
718.865	26443.71
719.059	26349.51
719.254	26542.02
719.448	26982.33
719.642	27670.45
719.837	26300.36
720.031	26582.98
720.225	26722.24
720.419	26138.57
720.614	26107.85
720.808	26697.66
721.002	26116.04
721.196	26222.53
721.39	26386.37
721.585	26560.45
721.779	26589.12
721.973	26243.01
722.167	25614.29
722.361	26441.67
722.555	26652.61
722.749	26154.95
722.943	26167.24
723.137	25974.73
723.331	26193.86
723.525	25931.72
723.719	26150.85
723.913	26281.92
724.107	26415.04
724.301	25890.76
724.495	25649.1
724.689	26331.08
724.883	26185.67
725.077	25802.7
725.271	25995.21
725.465	26363.84
725.659	25964.49
725.853	25929.67
726.046	25962.44
726.24	25778.12
726.434	25747.4
726.628	25569.23
726.822	25845.71
727.015	26419.14
727.209	26501.06
727.403	25763.79
727.596	25501.65
727.79	26181.57
727.984	26707.9
728.177	25946.06
728.371	26308.55
728.565	26456
728.758	26085.32
728.952	25733.07
729.146	25874.38
729.339	26048.46
729.533	25890.76
729.726	25835.47
729.92	25843.66
730.113	26204.1
730.307	26077.13
730.5	25741.26
730.694	25767.88
730.887	25673.68
731.081	26386.37
731.274	25960.39
731.468	25685.97
731.661	26073.03
731.854	26200.01
732.048	25911.24
732.241	25782.22
732.435	26036.17
732.628	26027.98
732.821	25651.15
733.014	25726.92
733.208	26138.57
733.401	26582.98
733.594	25530.32
733.788	25231.32
733.981	25792.46
734.174	25749.45
734.367	25771.98
734.56	25632.72
734.754	25841.61
734.947	25851.85
735.14	25681.87
735.333	25714.64
735.526	26015.69
735.719	25632.72
735.912	25395.15
736.105	25458.64
736.298	25569.23
736.491	25315.28
736.684	25303
736.877	25341.91
737.07	25352.15
737.263	25692.11
737.456	25454.54
737.649	25561.04
737.842	25399.25
738.035	25518.03
738.228	25200.6
738.421	25882.57
738.614	26001.35
738.807	26179.53
739	25235.41
739.192	24954.84
739.385	25569.23
739.578	25632.72
739.771	25819.08
739.964	25266.13
740.156	25688.01
740.349	25497.55
740.542	25933.77
740.735	25515.98
740.927	25526.22
741.12	25710.54
741.313	25235.41
741.505	26025.93
741.698	25706.45
741.891	25442.26
742.083	25472.98
742.276	25397.2
742.468	25411.54
742.661	25335.76
742.854	25202.64
743.046	25389.01
743.239	26066.89
743.431	25688.01
743.624	25249.75
743.816	25075.67
744.009	25282.52
744.201	25155.54
744.393	25313.24
744.586	25079.77
744.778	25450.45
744.971	25409.49
745.163	25315.28
745.355	25462.74
745.548	25335.76
745.74	25300.95
745.932	25661.39
746.125	25448.4
746.317	26064.84
746.509	25311.19
746.702	25456.59
746.894	25319.38
747.086	25774.03
747.278	25679.82
747.471	25210.84
747.663	24874.97
747.855	25034.71
748.047	25520.08
748.239	24770.52
748.431	25036.76
748.623	25362.39
748.815	25001.94
749.008	24510.43
749.2	24571.87
749.392	24891.35
749.584	24973.27
749.776	24741.85
749.968	25219.03
750.16	25573.33
750.352	25151.45
750.544	24969.18
750.736	24844.25
750.928	25151.45
751.12	24254.44
751.311	24301.54
751.503	24674.27
751.695	24950.74
751.887	24971.22
752.079	24344.55
752.271	24645.6
752.463	25626.57
752.654	24909.79
752.846	24823.77
753.038	24575.97
753.23	24356.83
753.421	24768.48
753.613	24690.65
753.805	24588.25
753.997	24672.22
754.188	24594.4
754.38	24195.04
754.572	24297.44
754.763	24608.73
754.955	24434.66
755.146	24516.58
755.338	24215.52
755.53	24365.03
755.721	24215.52
755.913	24215.52
756.104	23705.58
756.296	24137.7
756.487	24565.73
756.679	24053.73
756.87	23887.85
757.062	24076.26
757.253	24266.72
757.445	24102.89
757.636	24301.54
757.827	24209.38
758.019	24748
758.21	24006.63
758.401	24082.41
758.593	24301.54
758.784	24621.02
758.975	23656.43
759.167	23840.75
759.358	24276.96
759.549	24498.14
759.74	23764.97
759.932	23955.43
760.123	24297.44
760.314	24084.45
760.505	23787.5
760.696	23926.76
760.888	24416.22
761.079	23666.67
761.27	23543.79
761.461	23468.02
761.652	24117.22
761.843	23230.45
762.034	23322.61
762.225	23959.53
762.416	23525.36
762.607	23789.55
762.798	23166.96
762.989	23236.59
763.18	24358.88
763.371	23289.84
763.562	23187.44
763.753	23238.64
763.944	23738.35
764.135	23418.86
764.326	23252.98
764.517	23293.94
764.708	23220.21
764.899	23597.04
765.089	23111.67
765.28	23175.16
765.471	23265.27
765.662	23468.02
765.853	23508.97
766.043	22960.12
766.234	23676.91
766.425	23164.92
766.615	22996.98
766.806	22968.31
766.997	23668.72
767.187	22927.35
767.378	22949.88
767.569	22665.21
767.759	23285.75
767.95	23388.14
768.141	22900.73
768.331	22767.61
768.522	22888.44
768.712	23117.81
768.903	22824.95
769.093	22712.31
769.284	23386.1
769.474	22732.79
769.665	22521.85
769.855	22671.36
770.046	22972.41
770.236	22640.64
770.426	22360.06
770.617	21813.26
770.807	22802.43
770.998	22571
771.188	22257.67
771.378	22577.15
771.569	22812.67
771.759	22820.86
771.949	22368.26
772.139	22478.85
772.33	22575.1
772.52	23007.22
772.71	22288.39
772.9	21966.85
773.09	22667.26
773.281	22556.67
773.471	21852.17
773.661	21960.71
773.851	22374.4
774.041	22026.25
774.231	21700.62
774.421	21821.45
774.611	22472.7
774.802	22056.96
774.992	21551.12
775.182	22079.49
775.372	21819.4
775.562	22253.57
775.752	22048.77
775.942	21684.23
776.131	22398.98
776.321	21895.18
776.511	21590.03
776.701	21659.66
776.891	21884.94
777.081	21723.15
777.271	21850.12
777.461	21725.19
777.651	21964.81
777.84	22020.1
778.03	21448.72
778.22	21573.64
778.41	22036.49
778.599	21878.79
778.789	21338.13
778.979	21440.53
779.169	21800.97
779.358	21536.78
779.548	21782.54
779.738	21360.66
779.927	21379.09
780.117	21194.77
780.307	21039.12
780.496	21168.15
780.686	21598.22
780.875	21841.93
781.065	21153.81
781.254	21334.03
781.444	21483.53
781.633	21413.9
781.823	20844.57
782.012	21032.98
782.202	20881.43
782.391	21114.9
782.581	20830.23
782.77	21303.31
782.96	21225.49
783.149	20875.29
783.338	20752.41
783.528	20758.55
783.717	21186.58
783.906	21448.72
784.096	20916.25
784.285	20852.76
784.474	20650.01
784.663	20555.8
784.853	20709.4
785.042	20717.59
785.231	20549.66
785.42	20951.06
785.61	20693.02
785.799	20676.63
785.988	20781.08
786.177	20609.05
786.366	20539.42
786.555	20809.75
786.744	20918.29
786.933	20639.77
787.122	20172.83
787.312	20207.65
787.501	20260.9
787.69	20928.53
787.879	20346.91
788.068	20451.36
788.257	20228.13
788.445	20420.64
788.634	20146.21
788.823	20420.64
789.012	20959.25
789.201	20258.85
789.39	19994.66
789.579	19890.21
789.768	19875.88
789.957	20277.28
790.145	19841.06
790.334	19890.21
790.523	19986.47
790.712	20160.55
790.9	20013.09
791.089	19806.25
791.278	20412.45
791.467	20056.1
791.655	20170.79
791.844	19955.75
792.033	19968.04
792.221	19716.14
792.41	19871.78
792.599	19400.75
792.787	20058.15
792.976	20174.88
793.164	19718.18
793.353	19779.62
793.541	20185.12
793.73	20113.44
793.918	19646.51
794.107	19642.41
794.295	19871.78
794.484	19892.26
794.672	19810.34
794.861	19351.6
795.049	20164.64
795.238	20416.54
795.426	19587.11
795.614	19843.11
795.803	19992.61
795.991	19875.88
796.179	19263.54
796.368	19261.49
796.556	19433.52
796.744	18917.43
796.932	19288.11
797.121	19134.51
797.309	19202.1
797.497	19542.06
797.685	19347.5
797.874	19044.4
798.062	19378.22
798.25	19462.19
798.438	19363.89
798.626	19499.05
798.814	19791.91
799.002	20039.72
799.19	19421.23
799.378	19374.13
799.566	19523.63
799.755	19845.16
799.943	19509.29
800.131	19277.87
800.318	19562.54
800.506	19443.76
800.694	18800.69
800.882	19066.93
801.07	19556.39
801.258	19181.62
801.446	19650.6
801.634	19281.97
801.822	19654.7
802.01	19380.27
802.197	19736.62
802.385	19562.54
802.573	19589.16
802.761	19388.46
802.949	19617.83
803.136	19423.28
803.324	19957.8
803.512	19380.27
803.699	19429.42
803.887	19228.72
804.075	19566.63
804.262	19615.79
804.45	18989.11
804.638	19333.17
804.825	19525.68
805.013	19513.39
805.201	19816.49
805.388	19349.55
805.576	19947.56
805.763	20035.62
805.951	19406.89
806.138	19662.89
806.326	20236.32
806.513	19693.61
806.701	19922.98
806.888	19494.96
807.075	19787.82
807.263	20207.65
807.45	19386.41
807.638	19507.24
807.825	20338.72
808.012	19630.12
808.2	19556.39
808.387	19857.45
808.574	19865.64
808.761	20066.34
808.949	19486.76
809.136	19849.25
809.323	19527.72
809.51	19394.61
809.698	19808.3
809.885	19808.3
810.072	19925.03
810.259	20076.58
810.446	19476.52
810.633	19562.54
810.82	20299.81
811.008	20258.85
811.195	20013.09
811.382	19787.82
811.569	20312.1
811.756	19820.58
811.943	20086.82
812.13	19671.08
812.317	20140.07
812.504	20224.03
812.691	19843.11
812.878	19941.41
813.064	20174.88
813.251	20164.64
813.438	19781.67
813.625	19666.99
813.812	19660.84
813.999	19947.56
814.186	19816.49
814.372	19968.04
814.559	19922.98
814.746	20273.18
814.933	19652.65
815.12	19937.32
815.306	19533.87
815.493	19820.58
815.68	19853.35
815.866	19740.71
816.053	20361.25
816.24	20443.17
816.426	19839.01
816.613	19767.34
816.799	20308
816.986	20072.48
817.173	19816.49
817.359	19640.36
817.546	20115.49
817.732	19451.95
817.919	19839.01
818.105	19892.26
818.292	19845.16
818.478	20006.95
818.665	19525.68
818.851	19771.43
819.037	20176.93
819.224	19914.79
819.41	19646.51
819.597	19699.75
819.783	20264.99
819.969	20109.35
820.156	19720.23
820.342	19603.5
820.528	20170.79
820.714	19570.73
820.901	19875.88
821.087	19386.41
821.273	20052
821.459	19511.34
821.646	19284.02
821.832	19234.86
822.018	19877.93
822.204	19533.87
822.39	19286.06
822.576	19410.99
822.762	19623.98
822.948	19675.18
823.134	19580.97
823.32	19054.64
823.507	19021.88
823.693	19454
823.879	19447.85
824.065	18997.3
824.25	19146.8
824.436	18837.56
824.622	18749.5
824.808	18989.11
824.994	18929.72
825.18	18890.81
825.366	18679.86
825.552	18708.54
825.738	18950.2
825.923	19111.99
826.109	19007.54
826.295	18817.08
826.481	18812.98
826.667	18999.35
826.852	18726.97
827.038	18952.24
827.224	19603.5
827.409	19589.16
827.595	18796.6
827.781	19128.37
827.966	19746.86
828.152	19525.68
828.338	19167.28
828.523	18610.23
828.709	18866.23
828.894	19169.33
829.08	18819.13
829.266	18604.09
829.451	18802.74
829.637	18776.12
829.822	18696.25
830.008	18405.44
830.193	18921.52
830.378	19075.12
830.564	18714.68
830.749	18432.06
830.935	18743.35
831.12	18903.09
831.305	18432.06
831.491	18692.15
831.676	18272.32
831.861	18874.42
832.047	18282.56
832.232	18389.05
832.417	18741.3
832.602	18550.84
832.788	18333.76
832.973	18194.5
833.158	18546.75
833.343	18106.43
833.528	18217.02
833.714	18169.92
833.899	18604.09
834.084	18872.37
834.269	18387
834.454	18038.85
834.639	18165.82
834.824	18231.36
835.009	18192.45
835.194	18225.22
835.379	18452.54
835.564	18237.5
835.749	18178.11
835.934	17848.39
836.119	18098.24
836.304	18110.53
836.489	17735.75
836.674	17967.17
836.859	17784.9
837.044	18552.89
837.228	17858.63
837.413	17670.22
837.598	17850.44
837.783	18034.75
837.968	17909.83
838.152	17418.32
838.337	17522.76
838.522	17907.78
838.707	18296.89
838.891	17588.3
839.076	17571.91
839.261	17840.2
839.445	17553.48
839.63	17293.39
839.815	17756.23
839.999	17627.21
840.184	17610.82
840.368	17397.84
840.553	17760.33
840.737	17918.02
840.922	17375.31
841.106	17029.2
841.291	16949.33
841.475	17483.85
841.66	17348.68
841.844	17133.65
842.029	18114.62
842.213	17172.56
842.397	17242.19
842.582	17121.36
842.766	17780.81
842.951	17629.26
843.135	17068.11
843.319	17104.98
843.504	17336.4
843.688	17432.65
843.872	16814.16
844.056	17094.74
844.241	17160.27
844.425	17289.29
844.609	17037.39
844.793	17025.11
844.977	17096.78
845.161	16742.49
845.346	16633.94
845.53	16822.36
845.714	16978
845.898	17152.08
846.082	16568.41
846.266	16726.1
846.45	16967.76
846.634	17018.96
846.818	17031.25
847.002	16881.75
847.186	16883.8
847.37	16834.64
847.554	16482.39
847.738	16472.15
847.922	16978
848.106	16951.38
848.29	16287.84
848.473	16713.81
848.657	16996.43
848.841	16836.69
849.025	16605.27
849.209	16242.78
849.392	16814.16
849.576	16396.38
849.76	16167.01
849.944	16595.03
850.127	16707.67
850.311	15970.4
850.495	15884.39
850.678	15822.95
850.862	16509.02
851.046	16392.28
851.229	16275.55
851.413	15978.59
851.596	16341.08
851.78	16142.43
851.964	16105.57
852.147	16140.38
852.331	16920.66
852.514	16595.03
852.698	16097.38
852.881	15652.97
853.065	16406.62
853.248	16070.75
853.431	16025.7
853.615	15675.49
853.798	16496.73
853.982	16171.1
854.165	16105.57
854.348	15964.26
854.532	15714.41
854.715	15902.82
854.898	15896.67
855.081	15679.59
855.265	16167.01
855.448	16085.09
855.631	15556.71
855.814	15405.16
855.997	15997.03
856.181	15974.5
856.364	15616.1
856.547	15726.69
856.73	15638.63
856.913	15806.56
857.096	15415.4
857.279	15579.24
857.462	15407.21
857.645	15734.89
857.828	15569
858.011	15530.09
858.194	15618.15
858.377	15800.42
858.56	15284.33
858.743	15491.18
858.926	15243.37
859.109	15595.62
859.292	15587.43
859.475	15171.69
859.658	15716.45
859.841	15456.36
860.023	15001.71
860.206	15007.86
860.389	15491.18
860.572	15648.87
860.755	15181.93
860.937	14927.99
861.12	15057.01
861.303	15108.21
861.486	15345.77
861.668	14839.92
861.851	15364.2
862.034	15360.11
862.216	15052.91
862.399	14434.43
862.581	15028.34
862.764	15319.15
862.947	14610.55
863.129	14745.72
863.312	14473.34
863.494	15132.78
863.677	14823.54
863.859	14413.95
864.042	15007.86
864.224	14858.35
864.406	14526.58
864.589	14573.69
864.771	14874.74
864.954	14293.12
865.136	14241.92
865.318	14315.64
865.501	14794.87
865.683	14381.18
865.865	14598.26
866.048	14506.1
866.23	14641.27
866.412	14745.72
866.594	14110.85
866.777	14438.52
866.959	14602.36
867.141	14465.14
867.323	14356.6
867.505	14176.38
867.687	14403.71
867.869	14536.82
868.052	14311.55
868.234	14086.27
868.416	14440.57
868.598	14790.77
868.78	14262.4
868.962	14086.27
869.144	14776.44
869.326	14516.34
869.508	14194.81
869.69	14282.88
869.872	14225.53
870.054	14755.96
870.236	14069.89
870.417	14243.96
870.599	14282.88
870.781	14651.51
870.963	14141.57
871.145	13996.16
871.327	13922.43
871.508	14540.92
871.69	14061.69
871.872	14008.45
872.054	14401.66
872.235	14039.17
872.417	13901.95
872.599	13777.03
872.78	14375.03
872.962	14274.68
873.144	13789.31
873.325	13971.58
873.507	14456.95
873.689	14133.37
873.87	13850.75
874.052	14260.35
874.233	14039.17
874.415	14760.05
874.596	14059.65
874.778	13938.82
874.959	14106.75
875.141	14291.07
875.322	14010.5
875.503	13725.83
875.685	14364.79
875.866	13672.58
876.048	13844.61
876.229	13803.65
876.41	13881.47
876.592	14526.58
876.773	13879.43
876.954	13674.63
877.136	14391.42
877.317	14149.76
877.498	13613.19
877.679	14203
877.86	14178.43
878.042	14037.12
878.223	13721.73
878.404	14254.2
878.585	14221.44
878.766	14637.17
878.947	13987.97
879.128	14010.5
879.309	14401.66
879.49	14387.32
879.672	14295.16
879.853	13926.53
880.034	14192.76
880.215	14069.89
880.396	14372.99
880.576	14217.34
880.757	14270.59
880.938	14456.95
881.119	14106.75
881.3	14041.22
881.481	14266.49
881.662	15239.28
881.843	14389.37
882.023	14172.29
882.204	14571.64
882.385	14399.61
882.566	14325.88
882.747	14313.59
882.927	14170.24
883.108	14602.36
883.289	14430.33
883.469	14612.6
883.65	14649.46
883.831	14540.92
884.011	14667.89
884.192	14475.38
884.373	14829.68
884.553	14964.85
884.734	14848.11
884.914	14895.22
885.095	15569
885.275	15472.75
885.456	15255.66
885.636	14534.78
885.817	14983.28
885.997	14905.46
886.178	14653.56
886.358	14592.12
886.538	14997.62
886.719	15464.55
886.899	14459
887.08	15030.38
887.26	15417.45
887.44	14735.48
887.621	14643.32
887.801	14872.69
887.981	15534.18
888.161	15288.43
888.342	14977.14
888.522	14966.9
888.702	15407.21
888.882	15552.62
889.062	14995.57
889.242	14637.17
889.423	15657.06
889.603	15341.68
889.783	15253.61
889.963	14848.11
890.143	15478.89
890.323	15329.39
890.503	15081.58
890.683	15323.24
890.863	14999.66
891.043	15124.59
891.223	15042.67
891.403	15253.61
891.583	15120.49
891.763	15124.59
891.943	15233.13
892.122	14745.72
892.302	15272.04
892.482	14995.57
892.662	14962.8
892.842	14915.7
893.022	15145.07
893.201	14993.52
893.381	15022.19
893.561	14557.3
893.741	14952.56
893.92	15214.7
894.1	14901.36
894.28	14884.98
894.459	15276.14
894.639	14927.99
894.819	14841.97
894.998	14979.18
895.178	14919.79
895.357	15437.93
895.537	15016.05
895.716	14927.99
895.896	15247.47
896.075	15546.47
896.255	15016.05
896.434	14944.37
896.614	15229.04
896.793	15417.45
896.973	15048.82
897.152	14772.34
897.331	15226.99
897.511	15124.59
897.69	14694.52
897.87	14854.26
898.049	15202.41
898.228	14925.94
898.407	15120.49
898.587	14784.63
898.766	15097.97
898.945	15079.54
899.124	14872.69
899.304	15007.86
899.483	15126.64
899.662	15495.27
899.841	14479.48
900.02	14504.06
900.199	15235.18
900.378	15061.1
900.557	14641.27
900.737	14557.3
900.916	14925.94
901.095	15083.63
901.274	15018.1
901.453	14790.77
901.632	14502.01
901.811	14532.73
901.989	14606.45
902.168	14319.74
902.347	14913.65
902.526	14676.09
902.705	14395.51
902.884	14440.57
903.063	14987.38
903.242	15032.43
903.42	14448.76
903.599	14510.2
903.778	14848.11
903.957	14764.15
904.135	14596.21
904.314	14049.41
904.493	14459
904.672	14442.62
904.85	14256.25
905.029	14264.44
905.207	14475.38
905.386	15190.13
905.565	13904
905.743	13924.48
905.922	14235.77
906.1	14493.82
906.279	14170.24
906.457	14010.5
906.636	14241.92
906.814	14100.61
906.993	14200.96
907.171	14112.89
907.35	14233.72
907.528	14096.51
907.707	14041.22
907.885	13711.49
908.063	14307.45
908.242	13990.02
908.42	13654.15
908.598	13525.13
908.777	13893.76
908.955	13766.79
909.133	14030.98
909.311	13846.66
909.49	13734.02
909.668	13674.63
909.846	13744.26
910.024	13172.88
910.202	13727.88
910.38	13783.17
910.559	13379.72
910.737	13158.54
910.915	13412.49
911.093	13684.87
911.271	13330.57
911.449	13537.41
911.627	13752.45
911.805	13924.48
911.983	13250.7
912.161	13197.45
912.339	13457.54
912.517	13721.73
912.695	13516.94
912.872	13154.44
913.05	13322.38
913.228	13545.61
913.406	13160.59
913.584	13111.44
913.762	13420.68
913.939	12966.03
914.117	12939.41
914.295	12664.98
914.473	13383.82
914.65	13187.21
914.828	12757.14
915.006	12837.01
915.184	12867.73
915.361	12777.62
915.539	12865.68
915.716	12947.6
915.894	12976.27
916.072	12746.9
916.249	12869.78
916.427	12482.71
916.604	12339.35
916.782	12814.48
916.959	12433.56
917.137	12327.07
917.314	12621.97
917.492	12730.52
917.669	12433.56
917.847	12408.98
918.024	12492.95
918.201	12179.61
918.379	12353.69
918.556	12079.26
918.733	12451.99
918.911	12353.69
919.088	12511.38
919.265	12171.42
919.442	12269.72
919.62	11940
919.797	11856.03
919.974	11946.14
920.151	12169.37
920.328	12101.79
920.506	12038.3
920.683	12404.89
920.86	11782.31
921.037	11813.03
921.214	11641
921.391	11546.79
921.568	11874.46
921.745	11595.94
921.922	11780.26
922.099	11466.92
922.276	11892.9
922.453	11839.65
922.63	11475.11
922.807	11755.68
922.984	11686.05
923.161	11366.57
923.338	11090.09
923.514	11141.29
923.691	11421.86
923.868	11452.58
924.045	10956.97
924.222	10989.74
924.399	11108.52
924.575	11419.82
924.752	11034.8
924.929	10741.94
925.105	11335.85
925.282	10741.94
925.459	10952.88
925.635	10825.9
925.812	10911.92
925.989	10598.58
926.165	10504.37
926.342	10229.95
926.518	10385.59
926.695	10651.83
926.871	10627.25
927.048	10295.48
927.224	10750.13
927.401	10170.55
927.577	10385.59
927.754	10033.34
927.93	10496.18
928.107	10420.41
928.283	10055.87
928.459	10070.2
928.636	10352.82
928.812	9980.09
928.988	9965.76
929.165	9642.18
929.341	9959.61
929.517	10076.35
929.693	10062.01
929.87	9453.77
930.046	10035.39
930.222	9679.04
930.398	9578.69
930.574	9633.99
930.751	9611.46
930.927	9511.11
931.103	9511.11
931.279	9304.26
931.455	9212.1
931.631	9492.68
931.807	9158.86
931.983	9134.28
932.159	9216.2
932.335	9425.09
932.511	9234.63
932.687	9078.99
932.863	9320.65
933.039	9167.05
933.215	8689.87
933.391	8853.71
933.566	9044.17
933.742	8837.33
933.918	8374.49
934.094	8521.94
934.27	8833.23
934.445	8540.37
934.621	8515.8
934.797	8227.03
934.973	8577.23
935.148	8468.69
935.324	7930.08
935.5	7751.9
935.675	8409.3
935.851	7901.4
936.027	7571.68
936.202	7588.07
936.378	7792.86
936.553	7622.88
936.729	7688.42
936.904	7131.37
937.08	7190.76
937.255	6977.77
937.431	7031.02
937.606	6828.27
937.782	6873.32
937.957	6858.99
938.133	6349.04
938.308	6342.9
938.483	6402.29
938.659	6199.54
938.834	6263.03
939.009	6043.9
939.185	6146.3
939.36	5841.15
939.535	5533.95
939.71	5882.11
939.886	5804.28
940.061	5859.58
940.236	5607.68
940.411	5368.07
940.586	5685.5
940.761	5566.72
940.937	5478.66
941.112	5048.58
941.287	5513.47
941.462	5456.13
941.637	5005.58
941.812	5009.67
941.987	5388.55
942.162	4966.67
942.337	4919.56
942.512	4710.67
942.687	5202.18
942.862	5173.51
943.037	4792.59
943.212	4583.7
943.386	4981
943.561	4970.76
943.736	4894.99
943.911	5034.25
944.086	4946.19
944.26	4919.56
944.435	4423.95
944.61	4505.87
944.785	5013.77
944.959	5069.06
945.134	4612.37
945.309	4481.3
945.483	4514.06
945.658	4815.12
945.833	4354.32
946.007	4337.94
946.182	5017.86
946.357	4561.17
946.531	4423.95
946.706	4350.23
946.88	4213.01
947.055	4612.37
947.229	4485.39
947.404	4309.27
947.578	5028.1
947.752	4337.94
947.927	4309.27
948.101	4399.38
948.276	4733.2
948.45	4538.64
948.624	4608.27
948.799	4395.28
948.973	4696.33
949.147	4403.47
949.321	4630.8
949.496	4497.68
949.67	4860.17
949.844	4634.89
950.018	4512.02
950.193	4262.16
950.367	4937.99
950.541	4423.95
950.715	4702.48
950.889	4579.6
951.063	4473.11
951.237	4690.19
951.411	4116.76
951.585	4256.02
951.759	4722.96
951.933	4555.02
952.107	4399.38
952.281	4673.81
952.455	4841.74
952.629	4796.68
952.803	4421.91
952.977	4442.39
953.151	4782.35
953.325	4837.64
953.499	4657.42
953.672	4456.72
953.846	4466.96
954.02	4534.54
954.194	4221.2
954.368	4170.01
954.541	4659.47
954.715	4333.84
954.889	4469.01
955.062	4385.04
955.236	4485.39
955.41	4407.57
955.583	4729.1
955.757	3987.74
955.93	4559.12
956.104	4202.77
956.278	4426
956.451	4567.31
956.625	4659.47
956.798	5042.44
956.972	4585.74
957.145	4272.4
957.319	4464.91
957.492	4399.38
957.665	4561.17
957.839	4352.27
958.012	4673.81
958.185	4516.11
958.359	4327.7
958.532	4591.89
958.705	4735.25
958.879	4532.5
959.052	4360.47
959.225	4170.01
959.398	4274.45
959.572	4452.63
959.745	4266.26
959.918	4178.2
960.091	4507.92
960.264	4647.18
960.438	4139.29
960.611	4192.53
960.784	4632.85
960.957	4280.6
961.13	4507.92
961.303	4151.57
961.476	4155.67
961.649	4337.94
961.822	3961.11
961.995	4182.29
962.168	4509.97
962.341	4182.29
962.514	4178.2
962.686	4165.91
962.859	4409.62
963.032	4475.15
963.205	4176.15
963.378	3924.25
963.551	4473.11
963.723	4284.69
963.896	4321.56
964.069	4409.62
964.242	4391.19
964.414	4552.98
964.587	4243.73
964.76	4204.82
964.932	4337.94
965.105	4176.15
965.278	4219.16
965.45	4049.18
965.623	4188.44
965.795	4487.44
965.968	4086.04
966.14	3922.2
966.313	4131.09
966.485	4083.99
966.658	4057.37
966.83	4026.65
967.003	4454.67
967.175	4346.13
967.348	4045.08
967.52	4014.36
967.692	4571.41
967.865	4215.06
968.037	3838.23
968.209	4149.53
968.382	4008.22
968.554	4184.34
968.726	4018.46
968.898	3975.45
969.071	4311.32
969.243	4319.51
969.415	3809.56
969.587	3991.83
969.759	4700.43
969.932	4319.51
970.104	3877.15
970.276	3739.93
970.448	3873.05
970.62	3860.76
970.792	4008.22
970.964	3864.86
971.136	4499.73
971.308	4182.29
971.48	3846.43
971.652	3727.64
971.824	4411.67
971.996	3774.75
972.168	3938.59
972.339	3889.43
972.511	4202.77
972.683	3848.47
972.855	4079.9
973.027	3836.19
973.199	3840.28
973.37	4098.33
973.542	3946.78
973.714	4002.07
973.886	3918.11
974.057	4186.39
974.229	3531.04
974.401	3787.04
974.572	3627.29
974.744	3365.15
974.915	3686.69
975.087	3559.71
975.259	4282.64
975.43	3780.89
975.602	3705.12
975.773	3533.09
975.945	3701.02
976.116	3983.64
976.288	3647.77
976.459	3899.67
976.63	3741.98
976.802	3739.93
976.973	3637.53
977.145	3569.95
977.316	4231.44
977.487	4016.41
977.659	3621.15
977.83	3445.02
978.001	3979.54
978.172	3715.36
978.344	3582.24
978.515	3420.45
978.686	3436.83
978.857	3789.08
979.028	3522.85
979.2	3393.83
979.371	3725.6
979.542	3492.13
979.713	3655.97
979.884	3070.25
980.055	3537.18
980.226	3565.85
980.397	3520.8
980.568	3277.09
980.739	3707.16
980.91	3565.85
981.081	3612.96
981.252	3336.48
981.423	3768.6
981.594	3852.57
981.765	3297.57
981.936	3498.27
982.106	3590.43
982.277	3766.56
982.448	3227.94
982.619	3518.75
982.79	3348.77
982.96	3658.01
983.131	3250.47
983.302	3035.43
983.472	3303.71
983.643	3330.34
983.814	3457.31
983.984	3244.32
984.155	3520.8
984.326	3617.05
984.496	3377.44
984.667	3227.94
984.837	3221.8
985.008	3545.38
985.178	3324.19
985.349	3285.28
985.519	3318.05
985.69	3166.5
985.86	3182.88
986.031	3129.64
986.201	3404.07
986.371	3334.43
986.542	3004.71
986.712	2976.04
986.882	3361.06
987.053	3395.87
987.223	2898.22
987.393	3031.34
987.563	3107.11
987.734	3334.43
987.904	3359.01
988.074	3000.62
988.244	3248.42
988.414	2943.27
988.585	2935.08
988.755	3023.14
988.925	3189.03
989.095	3565.85
989.265	2969.9
989.435	3014.95
989.605	3303.71
989.775	3371.3
989.945	3137.83
990.115	2890.03
990.285	3127.59
990.455	3227.94
990.625	2986.28
990.795	2894.12
990.965	3424.55
991.134	2830.63
991.304	2918.7
991.474	2963.75
991.644	3252.52
991.814	3393.83
991.984	2650.41
992.153	2861.35
992.323	3010.86
992.493	2930.98
992.662	2584.88
992.832	2881.83
993.002	3019.05
993.171	3045.67
993.341	2683.18
993.511	2926.89
993.68	2875.69
993.85	3150.12
994.019	2523.44
994.189	2740.52
994.358	3064.1
994.528	2691.37
994.697	2433.33
994.867	2707.76
995.036	3068.2
995.206	2795.82
995.375	2718
995.544	2709.8
995.714	2947.37
995.883	2656.56
996.052	2795.82
996.222	2455.86
996.391	3342.63
996.56	2887.98
996.73	2447.66
996.899	2408.75
997.068	2986.28
997.237	2730.28
997.406	2416.94
997.576	2431.28
997.745	2693.42
997.914	2871.59
998.083	2398.51
998.252	2533.68
998.421	2705.71
998.59	2580.78
998.759	2552.11
998.928	2300.21
999.097	3012.9
999.266	2754.86
999.435	2502.96
999.604	2273.59
999.773	3080.49
999.942	2638.13
1000.111	2224.44
1000.28	2283.83
1000.448	2412.85
1000.617	2492.72
1000.786	2513.2
1000.955	2386.22
1001.124	2664.75
1001.292	3232.04
1001.461	2380.08
1001.63	2386.22
1001.798	3062.05
1001.967	2828.59
1002.136	2328.88
1002.304	2316.59
1002.473	2576.69
1002.642	2582.83
1002.81	2357.55
1002.979	2214.2
1003.147	2660.65
1003.316	3109.16
1003.484	2332.98
1003.653	2203.96
1003.821	2812.2
1003.99	2412.85
1004.158	2337.07
1004.327	2302.26
1004.495	2558.25
1004.663	2136.37
1004.832	2392.37
1005	2017.59
1005.168	2406.7
1005.337	2525.49
1005.505	1972.54
1005.673	2378.03
1005.842	2560.3
1006.01	2400.56
1006.178	2076.98
1006.346	2115.89
1006.514	2455.86
1006.683	2539.82
1006.851	2001.21
1007.019	1868.09
1007.187	2052.41
1007.355	1757.5
1007.523	1835.32
1007.691	1859.9
1007.859	2054.45
1008.027	2539.82
1008.195	1925.43
1008.363	1913.14
1008.531	2500.91
1008.699	2027.83
1008.867	1831.23
1009.035	1892.66
1009.203	2433.33
1009.37	2066.74
1009.538	1954.1
1009.706	2136.37
1009.874	2144.56
1010.042	2144.56
1010.209	1796.41
1010.377	1855.8
1010.545	2310.45
1010.713	2056.5
1010.88	1880.38
1011.048	2089.27
1011.216	2087.22
1011.383	2406.7
1011.551	1784.12
1011.718	1679.68
1011.886	2214.2
1012.054	2142.52
1012.221	1806.65
1012.389	1868.09
1012.556	2062.65
1012.724	2406.7
1012.891	1876.28
1013.058	1741.11
1013.226	2052.41
1013.393	2255.15
1013.561	1644.86
1013.728	1722.68
1013.895	2150.71
1014.063	2013.49
1014.23	1564.99
1014.397	1583.42
1014.565	2128.18
1014.732	1937.72
1014.899	1636.67
1015.066	1608
1015.233	1986.87
1015.401	2027.83
1015.568	1618.24
1015.735	1790.27
1015.902	1999.16
1016.069	2003.25
1016.236	1562.94
1016.403	1591.61
1016.57	1749.31
1016.737	1896.76
1016.904	1679.68
1017.071	1495.36
1017.238	1675.58
1017.405	2076.98
1017.572	1646.91
1017.739	1696.06
1017.906	1833.27
1018.073	2019.64
1018.24	1556.8
1018.407	1587.52
1018.573	1980.73
1018.74	1694.01
1018.907	1612.09
1019.074	1345.86
1019.241	2042.17
1019.407	1843.51
1019.574	1483.07
1019.741	1261.89
1019.907	1763.64
1020.074	1808.7
1020.241	1317.19
1020.407	1345.86
1020.574	1845.56
1020.74	1855.8
1020.907	1540.41
1021.073	1333.57
1021.24	2142.52
1021.406	2093.37
1021.573	1343.81
1021.739	1374.53
1021.906	1794.36
1022.072	1614.14
1022.239	1401.15
1022.405	1313.09
1022.571	1622.33
1022.738	1407.3
1022.904	1265.99
1023.07	1388.86
1023.237	1696.06
1023.403	1810.75
1023.569	1276.23
1023.735	1470.78
1023.902	1765.69
1024.068	1683.77
1024.234	1237.31
1024.4	1325.38
1024.566	1743.16
1024.732	1874.23
1024.898	1261.89
1025.065	1190.21
1025.231	1761.59
1025.397	1438.02
1025.563	1345.86
1025.729	1218.88
1025.895	1145.16
1026.061	1306.95
1026.227	1165.64
1026.392	1255.75
1026.558	1808.7
1026.724	1642.81
1026.89	1139.01
1027.056	1261.89
1027.222	1546.56
1027.388	1382.72
1027.553	1116.48
1027.719	1100.1
1027.885	1923.38
1028.051	1571.13
1028.216	1042.76
1028.382	1218.88
1028.548	1577.28
1028.713	1376.58
1028.879	1001.8
1029.045	1327.43
1029.21	1741.11
1029.376	1737.02
1029.541	1159.49
1029.707	1077.57
1029.873	1507.65
1030.038	1558.85
1030.204	1028.42
1030.369	1143.11
1030.534	1552.7
1030.7	1282.37
1030.865	1132.87
1031.031	1108.29
1031.196	1343.81
1031.361	1395.01
1031.527	1065.29
1031.692	997.7
1031.857	921.93
1032.023	1462.59
1032.188	1007.94
1032.353	1067.33
1032.518	1806.65
1032.684	1341.76
1032.849	958.79
1033.014	1089.86
1033.179	1429.82
1033.344	1407.3
1033.509	948.55
1033.674	1036.61
1033.839	1433.92
1034.004	1438.02
1034.17	919.88
1034.335	840.01
1034.5	1190.21
1034.664	1087.81
1034.829	878.92
1034.994	1147.2
1035.159	1304.9
1035.324	1284.42
1035.489	962.89
1035.654	831.82
1035.819	1499.45
1035.984	1220.93
1036.148	1022.28
1036.313	926.02
1036.478	1513.79
1036.643	1130.82
1036.807	868.68
1036.972	899.4
1037.137	1534.27
1037.301	1161.54
1037.466	667.98
1037.631	923.98
1037.795	1470.78
1037.96	1261.89
1038.124	1091.91
1038.289	815.43
1038.454	1380.67
1038.618	1308.99
1038.783	850.25
1038.947	856.39
1039.111	1212.74
1039.276	1071.43
1039.44	792.91
1039.605	1265.99
1039.769	987.46
1039.933	1085.76
1040.098	817.48
1040.262	1057.09
1040.426	1274.18
1040.591	1225.03
1040.755	790.86
1040.919	770.38
1041.083	1231.17
1041.248	991.56
1041.412	639.31
1041.576	696.65
1041.74	934.22
1041.904	1321.28
1042.068	676.17
1042.232	809.29
1042.397	1349.95
1042.561	1177.92
1042.725	579.92
1042.889	831.82
1043.053	1220.93
1043.217	1218.88
1043.381	809.29
1043.544	553.29
1043.708	1407.3
1043.872	799.05
1044.036	444.75
1044.2	643.4
1044.364	1222.98
1044.528	1329.47
1044.691	3217.7
1044.855	530.77
1045.019	1288.51
1045.183	1132.87
1045.346	743.75
1045.51	620.88
1045.674	1036.61
1045.837	1139.01
1046.001	639.31
1046.165	715.08
1046.328	1481.02
1046.492	1120.58
1046.655	852.3
1046.819	698.7
1046.983	893.26
1047.146	1108.29
1047.31	600.4
1047.473	438.61
1047.636	905.54
1047.8	762.19
1047.963	616.78
1048.127	592.2
1048.29	741.71
