Data from Ink_Intensity_USB4F045381__34__00034.txt Node

Date: Mon Jul 17 09:49:10 EDT 2023
User: mmckonesweet
Spectrometer: USB4F04538
Trigger mode: 4
Integration Time (sec): 9.000000E-1
Scans to average: 1
Electric dark correction enabled: true
Nonlinearity correction enabled: false
Boxcar width: 0
XAxis mode: Wavelengths
Number of Pixels in Spectrum: 3648
>>>>>Begin Spectral Data<<<<<
345.52	-937.97
345.736	-937.97
345.952	-937.97
346.168	-980.98
346.384	-974.83
346.6	-47.1
346.816	-278.52
347.032	-272.38
347.248	258.04
347.464	-247.8
347.68	-63.49
347.896	120.83
348.112	382.97
348.328	-30.72
348.544	-57.34
348.76	43.01
348.975	192.51
349.191	-178.17
349.407	-112.64
349.623	102.4
349.839	-65.53
350.055	-106.49
350.27	53.25
350.486	143.36
350.702	301.05
350.918	194.56
351.133	-219.13
351.349	104.45
351.565	364.54
351.781	-229.37
351.996	-120.83
352.212	258.04
352.428	-131.07
352.644	-200.7
352.859	-210.94
353.075	329.72
353.291	-51.2
353.506	-122.88
353.722	-219.13
353.938	-26.62
354.153	407.55
354.369	79.87
354.584	-118.78
354.8	280.57
355.016	-331.77
355.231	-145.41
355.447	-45.06
355.662	36.86
355.878	866.29
356.093	-301.05
356.309	30.72
356.524	-200.7
356.74	198.65
356.955	-145.41
357.171	-4.1
357.386	98.3
357.602	-260.09
357.817	-92.16
358.033	-131.07
358.248	415.74
358.464	120.83
358.679	-110.59
358.895	-274.43
359.11	6.14
359.325	339.96
359.541	337.91
359.756	-32.77
359.972	-301.05
360.187	131.07
360.402	-204.8
360.618	-137.21
360.833	909.3
361.048	126.97
361.264	-141.31
361.479	-30.72
361.694	12.29
361.909	274.43
362.125	-235.52
362.34	-133.12
362.555	278.52
362.77	69.63
362.986	-268.28
363.201	-163.84
363.416	126.97
363.631	18.43
363.847	-180.22
364.062	-202.75
364.277	190.46
364.492	90.11
364.707	-215.04
364.922	-399.35
365.138	141.31
365.353	253.95
365.568	-223.23
365.783	-141.31
365.998	49.15
366.213	540.66
366.428	-208.89
366.643	10.24
366.858	290.81
367.073	225.28
367.288	-122.88
367.503	-268.28
367.718	118.78
367.933	243.71
368.148	-303.1
368.363	-165.89
368.578	-55.3
368.793	358.39
369.008	-133.12
369.223	-206.84
369.438	135.17
369.653	450.55
369.868	-237.56
370.083	-266.24
370.298	75.77
370.513	305.15
370.728	43.01
370.943	-161.79
371.157	-208.89
371.372	475.13
371.587	-311.29
371.802	-237.56
372.017	69.63
372.232	419.83
372.446	-86.01
372.661	-264.19
372.876	106.49
373.091	63.49
373.306	-83.97
373.52	-186.37
373.735	-266.24
373.95	288.76
374.165	-59.39
374.379	-118.78
374.594	-174.08
374.809	-10.24
375.023	24.58
375.238	-268.28
375.453	206.84
375.667	-288.76
375.882	-147.45
376.097	-190.46
376.311	18.43
376.526	-6.14
376.741	-307.2
376.955	88.06
377.17	532.47
377.384	409.59
377.599	-73.73
377.813	-305.15
378.028	579.58
378.242	143.36
378.457	-110.59
378.672	-319.48
378.886	126.97
379.101	-92.16
379.315	-317.44
379.53	-196.6
379.744	88.06
379.958	83.97
380.173	-225.28
380.387	-155.65
380.602	73.73
380.816	-112.64
381.031	-186.37
381.245	-196.6
381.459	131.07
381.674	2455.51
381.888	-184.32
382.103	-63.49
382.317	-159.74
382.531	436.22
382.746	-108.54
382.96	-110.59
383.174	-124.93
383.388	401.4
383.603	118.78
383.817	-262.14
384.031	96.25
384.246	481.27
384.46	-55.3
384.674	296.96
384.888	61.44
385.103	18.43
385.317	-262.14
385.531	-49.15
385.745	331.77
385.959	237.56
386.174	-190.46
386.388	-215.04
386.602	-24.58
386.816	-174.08
387.03	-131.07
387.244	-145.41
387.458	126.97
387.672	364.54
387.887	-256
388.101	-362.49
388.315	301.05
388.529	131.07
388.743	-196.6
388.957	-194.56
389.171	256
389.385	-221.18
389.599	-28.67
389.813	73.73
390.027	221.18
390.241	606.2
390.455	-122.88
390.669	-88.06
390.883	-153.6
391.097	368.63
391.311	98.3
391.525	-147.45
391.738	135.17
391.952	151.55
392.166	-24.58
392.38	-200.7
392.594	262.14
392.808	329.72
393.022	-126.97
393.236	-153.6
393.449	108.54
393.663	122.88
393.877	-190.46
394.091	-120.83
394.305	-92.16
394.518	-155.65
394.732	-180.22
394.946	-202.75
395.16	358.39
395.373	114.69
395.587	-233.47
395.801	-260.09
396.015	243.71
396.228	169.98
396.442	-249.85
396.656	-301.05
396.869	317.44
397.083	432.12
397.297	-16.38
397.51	-141.31
397.724	405.5
397.938	153.6
398.151	-296.96
398.365	-276.48
398.578	215.04
398.792	356.35
399.005	-47.1
399.219	-131.07
399.433	22.53
399.646	96.25
399.86	59.39
400.073	-2.05
400.287	137.21
400.5	-28.67
400.714	-83.97
400.927	-96.25
401.141	149.5
401.354	1054.7
401.567	131.07
401.781	-268.28
401.994	243.71
402.208	585.72
402.421	-208.89
402.635	-133.12
402.848	-6.14
403.061	245.76
403.275	-40.96
403.488	-198.65
403.701	450.55
403.915	55.3
404.128	-14.34
404.341	-116.73
404.555	163.84
404.768	47.1
404.981	-16.38
405.195	-186.37
405.408	440.31
405.621	176.13
405.834	8.19
406.048	-118.78
406.261	366.59
406.474	395.26
406.687	-163.84
406.9	-30.72
407.114	14.34
407.327	71.68
407.54	-362.49
407.753	-247.8
407.966	-182.27
408.179	223.23
408.392	-141.31
408.605	-317.44
408.819	126.97
409.032	157.69
409.245	-210.94
409.458	40.96
409.671	143.36
409.884	243.71
410.097	-315.39
410.31	18.43
410.523	163.84
410.736	-34.82
410.949	-51.2
411.162	-108.54
411.375	395.26
411.588	280.57
411.801	83.97
412.014	-153.6
412.227	57.34
412.44	-45.06
412.653	-126.97
412.865	-24.58
413.078	235.52
413.291	149.5
413.504	-88.06
413.717	-229.37
413.93	196.61
414.143	-94.21
414.356	-147.45
414.568	-333.82
414.781	169.98
414.994	-10.24
415.207	-83.97
415.42	-90.11
415.632	253.95
415.845	456.7
416.058	-301.05
416.271	-301.05
416.483	34.82
416.696	532.47
416.909	-98.3
417.121	-178.17
417.334	243.71
417.547	526.33
417.759	-118.78
417.972	-249.85
418.185	-108.54
418.397	241.66
418.61	-157.69
418.823	-159.74
419.035	454.65
419.248	32.77
419.46	-151.55
419.673	32.77
419.885	262.14
420.098	-22.53
420.311	-141.31
420.523	-315.39
420.736	204.8
420.948	-8.19
421.161	-169.98
421.373	-342.01
421.586	55.3
421.798	-63.49
422.01	-241.66
422.223	-47.1
422.435	-118.78
422.648	215.04
422.86	-135.17
423.073	-176.13
423.285	378.87
423.497	-280.57
423.71	-190.46
423.922	-194.56
424.134	122.88
424.347	352.25
424.559	-6.14
424.771	38.91
424.984	-75.77
425.196	194.56
425.408	-401.4
425.621	-280.57
425.833	327.68
426.045	309.24
426.257	-217.08
426.47	-155.65
426.682	202.75
426.894	126.97
427.106	-139.26
427.318	-24.58
427.531	-167.93
427.743	104.45
427.955	-245.76
428.167	233.47
428.379	167.93
428.591	-69.63
428.804	8.19
429.016	-169.98
429.228	-104.45
429.44	100.35
429.652	26.62
429.864	-325.63
430.076	-12.29
430.288	-114.69
430.5	-83.97
430.712	-116.73
430.924	190.46
431.136	-40.96
431.348	-323.58
431.56	-145.41
431.772	-4.1
431.984	-73.73
432.196	-176.13
432.408	-131.07
432.62	-53.25
432.832	116.73
433.044	38.91
433.256	-102.4
433.468	178.17
433.679	-284.67
433.891	-196.6
434.103	-14.34
434.315	378.87
434.527	186.37
434.739	6.14
434.95	-151.55
435.162	176.13
435.374	-61.44
435.586	-124.93
435.798	-122.88
436.009	-186.37
436.221	-53.25
436.433	-206.84
436.645	-124.93
436.856	-124.93
437.068	268.28
437.28	-264.19
437.491	172.03
437.703	184.32
437.915	86.01
438.126	-163.84
438.338	26.62
438.55	-2.05
438.761	165.89
438.973	-180.22
439.184	-71.68
439.396	55.3
439.608	157.69
439.819	-247.8
440.031	-40.96
440.242	204.8
440.454	188.41
440.665	-165.89
440.877	-137.21
441.088	51.2
441.3	-155.65
441.511	-258.04
441.723	-217.08
441.934	65.54
442.146	-47.1
442.357	2.05
442.569	96.25
442.78	14.34
442.991	419.83
443.203	137.21
443.414	-288.76
443.626	315.39
443.837	-163.84
444.048	-229.37
444.26	-266.24
444.471	67.58
444.682	264.19
444.894	-368.63
445.105	-305.15
445.316	206.84
445.528	53.25
445.739	-174.08
445.95	-153.6
446.161	108.54
446.373	309.24
446.584	-165.89
446.795	-155.65
447.006	165.89
447.217	382.97
447.429	-317.44
447.64	-231.42
447.851	286.72
448.062	133.12
448.273	-256
448.484	-178.17
448.695	135.17
448.907	26.62
449.118	-61.44
449.329	96.25
449.54	-155.65
449.751	-190.46
449.962	-178.17
450.173	-233.47
450.384	253.95
450.595	329.72
450.806	-202.75
451.017	-145.41
451.228	362.49
451.439	202.75
451.65	-137.21
451.861	-366.59
452.072	-145.41
452.283	-14.34
452.494	-45.06
452.705	-260.09
452.915	337.91
453.126	67.58
453.337	-118.78
453.548	-294.91
453.759	192.51
453.97	489.46
454.181	26.62
454.391	-176.13
454.602	47.1
454.813	178.17
455.024	-94.21
455.235	-188.41
455.445	-34.82
455.656	110.59
455.867	36.86
456.078	-169.98
456.288	-40.96
456.499	126.97
456.71	-256
456.921	34.82
457.131	139.26
457.342	83.97
457.553	-77.82
457.763	-229.37
457.974	167.93
458.184	235.52
458.395	-231.42
458.606	-215.04
458.816	253.95
459.027	487.42
459.237	-53.25
459.448	-362.49
459.659	288.76
459.869	511.99
460.08	-276.48
460.29	-114.69
460.501	522.23
460.711	-88.06
460.922	-333.82
461.132	-186.37
461.343	604.15
461.553	-231.42
461.764	-163.84
461.974	-202.75
462.184	206.84
462.395	118.78
462.605	-81.92
462.816	-219.13
463.026	38.91
463.236	292.86
463.447	-188.41
463.657	-202.75
463.867	264.19
464.078	-16.38
464.288	-114.69
464.498	-241.66
464.709	-86.01
464.919	-4.1
465.129	-131.07
465.339	-260.09
465.55	88.06
465.76	253.95
465.97	-190.46
466.18	-284.67
466.391	280.57
466.601	90.11
466.811	-145.41
467.021	-208.89
467.231	112.64
467.441	278.52
467.651	-219.13
467.862	-333.82
468.072	2.05
468.282	401.4
468.492	-161.79
468.702	-141.31
468.912	43.01
469.122	555
469.332	83.97
469.542	-251.9
469.752	217.08
469.962	77.82
470.172	-270.33
470.382	-198.65
470.592	143.36
470.802	368.63
471.012	-147.45
471.222	-276.48
471.432	186.37
471.642	196.61
471.852	-106.49
472.062	-215.04
472.272	-22.53
472.482	-178.17
472.691	-276.48
472.901	-286.72
473.111	98.3
473.321	487.42
473.531	-249.85
473.741	-172.03
473.95	129.02
474.16	174.08
474.37	-65.53
474.58	-268.28
474.79	438.27
474.999	221.18
475.209	-245.76
475.419	-223.23
475.628	-92.16
475.838	169.98
476.048	-157.69
476.258	-264.19
476.467	346.11
476.677	-98.3
476.886	-94.21
477.096	-40.96
477.306	-147.45
477.515	327.68
477.725	-94.21
477.935	-57.34
478.144	354.3
478.354	-26.62
478.563	-237.56
478.773	-264.19
478.982	202.75
479.192	356.35
479.401	-12.29
479.611	-301.05
479.82	-71.68
480.03	59.39
480.239	-272.38
480.449	-223.23
480.658	362.49
480.868	-165.89
481.077	-122.88
481.287	-159.74
481.496	143.36
481.705	425.98
481.915	51.2
482.124	65.54
482.333	143.36
482.543	307.2
482.752	-73.73
482.961	-251.9
483.171	200.7
483.38	43.01
483.589	-94.21
483.799	-237.56
484.008	-55.3
484.217	278.52
484.426	-131.07
484.636	-321.53
484.845	239.61
485.054	-253.95
485.263	100.35
485.472	-122.88
485.682	448.51
485.891	155.65
486.1	-354.3
486.309	-163.84
486.518	137.21
486.727	251.9
486.936	-243.71
487.146	-96.25
487.355	370.68
487.564	-165.89
487.773	-137.21
487.982	-145.41
488.191	-47.1
488.4	-14.34
488.609	-157.69
488.818	-141.31
489.027	493.56
489.236	321.53
489.445	-251.9
489.654	-159.74
489.863	184.32
490.072	108.54
490.281	155.65
490.49	-151.55
490.698	479.22
490.907	419.83
491.116	-155.65
491.325	-337.91
491.534	378.87
491.743	51.2
491.952	-126.97
492.16	-135.17
492.369	178.17
492.578	243.71
492.787	-131.07
492.996	-135.17
493.204	-110.59
493.413	446.46
493.622	-374.78
493.831	-272.38
494.039	403.45
494.248	-223.23
494.457	-186.37
494.665	-354.3
494.874	102.4
495.083	462.84
495.291	-149.5
495.5	-251.9
495.709	237.56
495.917	88.06
496.126	-104.45
496.335	-217.08
496.543	20.48
496.752	139.26
496.96	61.44
497.169	-284.67
497.377	65.54
497.586	258.04
497.794	-75.77
498.003	-391.16
498.211	-6.14
498.42	382.97
498.628	-57.34
498.837	-270.33
499.045	217.08
499.254	149.5
499.462	-231.42
499.671	-206.84
499.879	454.65
500.087	313.34
500.296	-237.56
500.504	-38.91
500.713	118.78
500.921	565.24
501.129	-229.37
501.338	-131.07
501.546	135.17
501.754	104.45
501.962	-206.84
502.171	-307.2
502.379	143.36
502.587	497.66
502.795	-120.83
503.004	-147.45
503.212	114.69
503.42	280.57
503.628	-122.88
503.837	-16.38
504.045	245.76
504.253	456.7
504.461	-182.27
504.669	-364.54
504.877	182.27
505.085	372.73
505.294	-321.53
505.502	26.62
505.71	22.53
505.918	290.81
506.126	-223.23
506.334	-198.65
506.542	30.72
506.75	137.21
506.958	-100.35
507.166	-77.82
507.374	-4.1
507.582	514.04
507.79	-51.2
507.998	-307.2
508.206	159.74
508.414	169.98
508.622	-176.13
508.83	-155.65
509.037	403.45
509.245	28.67
509.453	-284.67
509.661	-260.09
509.869	260.09
510.077	71.68
510.285	-34.82
510.492	-421.88
510.7	653.3
510.908	10.24
511.116	-165.89
511.324	-233.47
511.531	-94.21
511.739	86.01
511.947	-2.05
512.155	112.64
512.362	182.27
512.57	-204.8
512.778	-239.61
512.985	-387.07
513.193	266.24
513.401	475.13
513.608	-88.06
513.816	-301.05
514.024	178.17
514.231	366.59
514.439	-141.31
514.646	-114.69
514.854	321.53
515.061	344.06
515.269	-172.03
515.477	-149.5
515.684	-34.82
515.892	376.83
516.099	-307.2
516.307	-362.49
516.514	276.48
516.722	473.08
516.929	-124.93
517.136	-217.08
517.344	366.59
517.551	198.65
517.759	-143.36
517.966	-155.65
518.173	65.54
518.381	61.44
518.588	-51.2
518.796	-241.66
519.003	235.52
519.21	98.3
519.418	-204.8
519.625	163.84
519.832	120.83
520.039	145.41
520.247	-346.11
520.454	-149.5
520.661	354.3
520.868	163.84
521.076	-90.11
521.283	-71.68
521.49	649.21
521.697	223.23
521.904	-75.77
522.112	-155.65
522.319	274.43
522.526	245.76
522.733	-280.57
522.94	-157.69
523.147	40.96
523.354	387.07
523.561	-342.01
523.768	6.14
523.975	374.78
524.183	75.77
524.39	-116.73
524.597	-212.99
524.804	116.73
525.011	-116.73
525.218	-122.88
525.425	-153.6
525.632	395.26
525.838	-69.63
526.045	-153.6
526.252	-245.76
526.459	1110
526.666	798.71
526.873	-167.93
527.08	-204.8
527.287	358.39
527.494	241.66
527.701	-280.57
527.907	-206.84
528.114	247.8
528.321	129.02
528.528	-143.36
528.735	-210.94
528.941	18.43
529.148	-45.06
529.355	61.44
529.562	-145.41
529.768	434.17
529.975	75.77
530.182	-77.82
530.388	-129.02
530.595	284.67
530.802	-169.98
531.008	71.68
531.215	-120.83
531.422	790.52
531.628	786.42
531.835	-43.01
532.042	6.14
532.248	-30.72
532.455	270.33
532.661	-83.97
532.868	-137.21
533.074	219.13
533.281	376.83
533.487	-98.3
533.694	-247.8
533.9	-94.21
534.107	284.67
534.313	-258.04
534.52	-190.46
534.726	307.2
534.933	559.1
535.139	-223.23
535.345	-169.98
535.552	196.61
535.758	129.02
535.965	-55.3
536.171	-186.37
536.377	233.47
536.584	473.08
536.79	-172.03
536.996	30.72
537.203	163.84
537.409	186.37
537.615	-67.58
537.821	12.29
538.028	319.48
538.234	292.86
538.44	-108.54
538.646	-26.62
538.853	374.78
539.059	100.35
539.265	321.53
539.471	-342.01
539.677	299
539.883	59.39
540.09	-124.93
540.296	311.29
540.502	129.02
540.708	-28.67
540.914	36.86
541.12	-102.4
541.326	286.72
541.532	202.75
541.738	-47.1
541.944	-6.14
542.15	405.5
542.356	192.51
542.562	-241.66
542.768	4.1
542.974	802.8
543.18	686.07
543.386	-188.41
543.592	-278.52
543.798	460.79
544.004	366.59
544.21	-112.64
544.415	-22.53
544.621	221.18
544.827	385.02
545.033	-194.56
545.239	112.64
545.445	-34.82
545.651	229.37
545.856	-118.78
546.062	-45.06
546.268	49.15
546.474	153.6
546.679	-51.2
546.885	-108.54
547.091	69.63
547.297	577.53
547.502	-57.34
547.708	-182.27
547.914	20.48
548.119	212.99
548.325	-180.22
548.531	-202.75
548.736	538.62
548.942	-38.91
549.147	-155.65
549.353	45.06
549.559	374.78
549.764	325.63
549.97	-6.14
550.175	-43.01
550.381	305.15
550.586	-18.43
550.792	4.1
550.997	-61.44
551.203	294.91
551.408	313.34
551.614	-194.56
551.819	-106.49
552.025	518.14
552.23	634.87
552.435	-96.25
552.641	139.26
552.846	24.58
553.052	442.36
553.257	38.91
553.462	10.24
553.668	53.25
553.873	423.93
554.078	-151.55
554.283	-86.01
554.489	237.56
554.694	186.37
554.899	-147.45
555.105	43.01
555.31	292.86
555.515	331.77
555.72	100.35
555.925	-38.91
556.131	337.91
556.336	28.67
556.541	-28.67
556.746	-112.64
556.951	534.52
557.156	524.28
557.361	22.53
557.567	86.01
557.772	684.02
557.977	348.15
558.182	-61.44
558.387	-88.06
558.592	36.86
558.797	516.09
559.002	-2.05
559.207	124.93
559.412	227.32
559.617	630.77
559.822	-92.16
560.027	-65.53
560.232	313.34
560.437	442.36
560.642	-215.04
560.847	-81.92
561.051	243.71
561.256	174.08
561.461	28.67
561.666	-149.5
561.871	212.99
562.076	251.9
562.281	40.96
562.485	-120.83
562.69	389.11
562.895	493.56
563.1	-10.24
563.305	-120.83
563.509	526.33
563.714	808.95
563.919	-104.45
564.123	-98.3
564.328	182.27
564.533	604.15
564.737	-32.77
564.942	6.14
565.147	591.86
565.351	735.22
565.556	45.06
565.761	16.38
565.965	231.42
566.17	53.25
566.374	92.16
566.579	-114.69
566.784	315.39
566.988	79.87
567.193	-229.37
567.397	-102.4
567.602	4.1
567.806	180.22
568.011	4.1
568.215	-10.24
568.42	245.76
568.624	83.97
568.828	-26.62
569.033	153.6
569.237	323.58
569.442	358.39
569.646	-116.73
569.85	4.1
570.055	139.26
570.259	344.06
570.463	161.79
570.668	53.25
570.872	190.46
571.076	196.61
571.281	92.16
571.485	67.58
571.689	266.24
571.893	358.39
572.098	176.13
572.302	0
572.506	376.83
572.71	335.87
572.914	32.77
573.119	-18.43
573.323	651.25
573.527	520.18
573.731	-36.86
573.935	-40.96
574.139	241.66
574.343	157.69
574.547	26.62
574.751	122.88
574.955	606.2
575.159	567.29
575.364	-32.77
575.568	-10.24
575.772	241.66
575.976	604.15
576.18	-92.16
576.383	-186.37
576.587	485.37
576.791	401.4
576.995	-172.03
577.199	-198.65
577.403	522.23
577.607	626.68
577.811	-133.12
578.015	141.31
578.219	256
578.422	493.56
578.626	57.34
578.83	190.46
579.034	456.7
579.238	237.56
579.442	-53.25
579.645	368.63
579.849	227.32
580.053	200.7
580.257	192.51
580.46	61.44
580.664	428.03
580.868	430.07
581.071	157.69
581.275	180.22
581.479	-30.72
581.682	440.31
581.886	2.05
582.09	139.26
582.293	462.84
582.497	591.86
582.7	200.7
582.904	-12.29
583.107	292.86
583.311	274.43
583.515	137.21
583.718	133.12
583.922	522.23
584.125	694.26
584.329	12.29
584.532	174.08
584.735	624.63
584.939	491.51
585.142	-139.26
585.346	40.96
585.549	337.91
585.753	161.79
585.956	114.69
586.159	190.46
586.363	663.54
586.566	471.03
586.769	65.54
586.973	-26.62
587.176	411.64
587.379	563.19
587.582	350.2
587.786	280.57
587.989	260.09
588.192	780.28
588.395	184.32
588.599	374.78
588.802	403.45
589.005	526.33
589.208	16.38
589.411	79.87
589.615	565.24
589.818	722.93
590.021	292.86
590.224	178.17
590.427	493.56
590.63	440.31
590.833	-47.1
591.036	10.24
591.239	301.05
591.442	212.99
591.645	282.62
591.848	159.74
592.051	366.59
592.254	503.8
592.457	151.55
592.66	100.35
592.863	288.76
593.066	419.83
593.269	161.79
593.472	194.56
593.675	100.35
593.878	489.46
594.081	264.19
594.284	59.39
594.486	575.48
594.689	366.59
594.892	77.82
595.095	182.27
595.298	430.07
595.5	165.89
595.703	176.13
595.906	243.71
596.109	706.55
596.311	626.68
596.514	-151.55
596.717	174.08
596.92	669.69
597.122	460.79
597.325	-86.01
597.528	118.78
597.73	645.11
597.933	425.98
598.136	102.4
598.338	-108.54
598.541	522.23
598.743	669.69
598.946	172.03
599.148	194.56
599.351	653.3
599.554	604.15
599.756	264.19
599.959	147.45
600.161	571.38
600.363	929.78
600.566	346.11
600.768	116.73
600.971	854
601.173	573.43
601.376	169.98
601.578	206.84
601.78	489.46
601.983	1009.65
602.185	116.73
602.388	319.48
602.59	483.32
602.792	270.33
602.995	411.64
603.197	186.37
603.399	550.9
603.601	415.74
603.804	210.94
604.006	108.54
604.208	397.31
604.41	-49.15
604.613	344.06
604.815	61.44
605.017	886.77
605.219	145.41
605.421	434.17
605.623	124.93
605.826	720.89
606.028	692.21
606.23	172.03
606.432	172.03
606.634	800.76
606.836	763.89
607.038	57.34
607.24	247.8
607.442	364.54
607.644	534.52
607.846	329.72
608.048	104.45
608.25	716.79
608.452	266.24
608.654	235.52
608.856	-40.96
609.058	366.59
609.26	618.49
609.462	337.91
609.664	260.09
609.866	917.49
610.067	673.78
610.269	407.55
610.471	153.6
610.673	321.53
610.875	622.58
611.077	165.89
611.278	374.78
611.48	507.9
611.682	849.91
611.884	352.25
612.085	233.47
612.287	292.86
612.489	632.82
612.69	88.06
612.892	407.55
613.094	663.54
613.295	595.96
613.497	124.93
613.699	288.76
613.9	757.75
614.102	616.44
614.304	294.91
614.505	77.82
614.707	376.83
614.908	413.69
615.11	67.58
615.311	264.19
615.513	643.06
615.714	694.26
615.916	151.55
616.117	348.15
616.319	378.87
616.52	690.17
616.722	139.26
616.923	188.41
617.124	776.18
617.326	643.06
617.527	331.77
617.729	505.85
617.93	571.38
618.131	665.59
618.333	194.56
618.534	303.1
618.735	358.39
618.937	878.58
619.138	86.01
619.339	182.27
619.54	675.83
619.742	399.35
619.943	499.7
620.144	313.34
620.345	671.73
620.546	645.11
620.748	231.42
620.949	251.9
621.15	505.85
621.351	546.81
621.552	237.56
621.753	114.69
621.954	155.65
622.155	966.64
622.356	169.98
622.558	387.07
622.759	544.76
622.96	964.59
623.161	333.82
623.362	235.52
623.563	518.14
623.764	415.74
623.965	311.29
624.166	491.51
624.366	450.55
624.567	520.18
624.768	38.91
624.969	305.15
625.17	444.41
625.371	663.54
625.572	321.53
625.773	116.73
625.973	688.12
626.174	557.05
626.375	350.2
626.576	399.35
626.777	589.82
626.977	1099.76
627.178	198.65
627.379	430.07
627.58	391.16
627.78	538.62
627.981	374.78
628.182	475.13
628.382	800.76
628.583	124.93
628.784	155.65
628.984	524.28
629.185	749.56
629.386	671.73
629.586	331.77
629.787	174.08
629.987	755.7
630.188	518.14
630.388	327.68
630.589	337.91
630.79	1060.85
630.99	571.38
631.191	331.77
631.391	391.16
631.591	735.22
631.792	800.76
631.992	462.84
632.193	411.64
632.393	972.79
632.594	598.01
632.794	380.92
632.994	395.26
633.195	569.34
633.395	565.24
633.595	258.04
633.796	501.75
633.996	382.97
634.196	839.67
634.397	210.94
634.597	468.98
634.797	333.82
634.997	923.63
635.198	511.99
635.398	276.48
635.598	542.71
635.798	839.67
635.998	747.51
636.199	245.76
636.399	391.16
636.599	399.35
636.799	296.96
636.999	534.52
637.199	684.02
637.399	714.74
637.599	407.55
637.799	530.42
637.999	428.03
638.199	927.73
638.399	172.03
638.599	335.87
638.799	718.84
638.999	1116.14
639.199	382.97
639.399	483.32
639.599	1007.6
639.799	507.9
639.999	247.8
640.199	337.91
640.399	718.84
640.599	612.34
640.799	428.03
640.998	550.9
641.198	933.87
641.398	700.41
641.598	555
641.798	399.35
641.997	1574.89
642.197	579.58
642.397	481.27
642.597	415.74
642.796	731.12
642.996	1054.7
643.196	495.61
643.395	264.19
643.595	673.78
643.795	243.71
643.994	346.11
644.194	450.55
644.394	792.56
644.593	638.97
644.793	256
644.992	509.94
645.192	690.17
645.392	305.15
645.591	493.56
645.791	387.07
645.99	747.51
646.19	569.34
646.389	462.84
646.589	477.18
646.788	792.56
646.987	686.07
647.187	571.38
647.386	587.77
647.586	563.19
647.785	847.86
647.984	421.88
648.184	497.66
648.383	464.89
648.582	542.71
648.782	505.85
648.981	673.78
649.18	444.41
649.38	681.97
649.579	362.49
649.778	374.78
649.977	774.13
650.177	673.78
650.376	442.36
650.575	403.45
650.774	1140.72
650.973	501.75
651.173	303.1
651.372	454.65
651.571	778.23
651.77	913.39
651.969	477.18
652.168	536.57
652.367	405.5
652.566	796.66
652.765	473.08
652.964	708.6
653.163	1097.71
653.362	608.25
653.561	454.65
653.76	448.51
653.959	514.04
654.158	778.23
654.357	681.97
654.556	430.07
654.755	714.74
654.954	835.57
655.153	497.66
655.352	493.56
655.551	999.41
655.749	516.09
655.948	575.48
656.147	649.21
656.346	788.47
656.545	729.08
656.743	542.71
656.942	534.52
657.141	729.08
657.34	411.64
657.538	501.75
657.737	495.61
657.936	632.82
658.135	825.33
658.333	423.93
658.532	614.39
658.731	1097.71
658.929	968.69
659.128	847.86
659.326	448.51
659.525	958.45
659.724	798.71
659.922	337.91
660.121	391.16
660.319	796.66
660.518	616.44
660.716	272.38
660.915	428.03
661.113	954.35
661.312	511.99
661.51	520.18
661.709	448.51
661.907	858.1
662.105	1136.62
662.304	468.98
662.502	600.05
662.701	1005.55
662.899	534.52
663.097	919.54
663.296	296.96
663.494	874.48
663.692	999.41
663.891	464.89
664.089	385.02
664.287	817.14
664.485	1073.14
664.684	489.46
664.882	661.49
665.08	731.12
665.278	808.95
665.476	430.07
665.675	788.47
665.873	1245.16
666.071	915.44
666.269	514.04
666.467	686.07
666.665	763.89
666.863	681.97
667.061	630.77
667.259	538.62
667.457	624.63
667.655	888.82
667.853	448.51
668.051	686.07
668.249	532.47
668.447	821.24
668.645	344.06
668.843	675.83
669.041	823.28
669.239	632.82
669.437	608.25
669.635	636.92
669.833	692.21
670.031	886.77
670.229	565.24
670.426	686.07
670.624	600.05
670.822	579.58
671.02	475.13
671.218	579.58
671.415	479.22
671.613	747.51
671.811	641.01
672.009	536.57
672.206	874.48
672.404	778.23
672.602	735.22
672.799	638.97
672.997	800.76
673.195	999.41
673.392	663.54
673.59	417.79
673.788	940.02
673.985	325.63
674.183	589.82
674.38	655.35
674.578	980.98
674.775	489.46
674.973	489.46
675.17	477.18
675.368	1128.43
675.565	851.95
675.763	518.14
675.96	417.79
676.158	1097.71
676.355	645.11
676.553	487.42
676.75	569.34
676.947	727.03
677.145	776.18
677.342	632.82
677.539	708.6
677.737	903.15
677.934	1253.36
678.131	800.76
678.329	552.95
678.526	1132.53
678.723	1042.42
678.92	616.44
679.118	604.15
679.315	538.62
679.512	995.31
679.709	665.59
679.906	598.01
680.104	1032.18
680.301	976.88
680.498	526.33
680.695	405.5
680.892	634.87
681.089	626.68
681.286	690.17
681.483	417.79
681.68	1019.89
681.877	995.31
682.075	669.69
682.272	854
682.469	862.19
682.665	747.51
682.862	516.09
683.059	423.93
683.256	821.24
683.453	825.33
683.65	722.93
683.847	677.88
684.044	749.56
684.241	542.71
684.438	802.8
684.635	436.22
684.831	1265.64
685.028	1249.26
685.225	573.43
685.422	714.74
685.619	675.83
685.815	747.51
686.012	677.88
686.209	657.4
686.405	514.04
686.602	1073.14
686.799	477.18
686.996	452.6
687.192	501.75
687.389	1136.62
687.586	602.1
687.782	661.49
687.979	985.07
688.175	1079.28
688.372	727.03
688.568	653.3
688.765	624.63
688.962	1165.29
689.158	690.17
689.355	413.69
689.551	1062.9
689.748	651.25
689.944	776.18
690.14	456.7
690.337	1021.94
690.533	649.21
690.73	811
690.926	743.41
691.123	989.17
691.319	794.61
691.515	493.56
691.712	759.8
691.908	956.4
692.104	946.16
692.301	757.75
692.497	444.41
692.693	948.21
692.889	964.59
693.086	698.36
693.282	483.32
693.478	790.52
693.674	1228.78
693.87	657.4
694.067	507.9
694.263	901.11
694.459	737.27
694.655	755.7
694.851	780.28
695.047	954.35
695.243	888.82
695.439	825.33
695.635	577.53
695.831	1044.46
696.027	794.61
696.224	522.23
696.42	1021.94
696.615	1157.1
696.811	870.39
697.007	509.94
697.203	532.47
697.399	1046.51
697.595	1181.68
697.791	579.58
697.987	868.34
698.183	546.81
698.379	749.56
698.575	743.41
698.77	651.25
698.966	993.26
699.162	1069.04
699.358	643.06
699.554	724.98
699.749	909.3
699.945	1034.22
700.141	708.6
700.337	827.38
700.532	749.56
700.728	667.64
700.924	567.29
701.119	565.24
701.315	821.24
701.511	747.51
701.706	724.98
701.902	473.08
702.097	655.35
702.293	1011.7
702.489	745.46
702.684	665.59
702.88	696.31
703.075	770.04
703.271	602.1
703.466	575.48
703.662	860.15
703.857	935.92
704.053	593.91
704.248	636.92
704.443	962.55
704.639	980.98
704.834	694.26
705.03	616.44
705.225	1007.6
705.42	1103.86
705.616	784.37
705.811	565.24
706.006	872.43
706.202	727.03
706.397	729.08
706.592	565.24
706.787	886.77
706.983	862.19
707.178	917.49
707.373	751.6
707.568	1134.57
707.763	1077.23
707.959	671.73
708.154	679.93
708.349	884.72
708.544	983.03
708.739	897.01
708.934	636.92
709.129	1009.65
709.324	1167.34
709.519	581.62
709.714	514.04
709.909	1239.02
710.104	882.67
710.299	698.36
710.494	651.25
710.689	960.5
710.884	917.49
711.079	708.6
711.274	958.45
711.469	1001.46
711.664	864.24
711.859	583.67
712.054	839.67
712.249	1032.18
712.443	1126.38
712.638	587.77
712.833	620.53
713.028	837.62
713.223	825.33
713.417	874.48
713.612	659.45
713.807	1060.85
714.002	1452.01
714.196	870.39
714.391	649.21
714.586	989.17
714.78	778.23
714.975	700.41
715.17	591.86
715.364	763.89
715.559	1110
715.754	374.78
715.948	651.25
716.143	1333.23
716.337	1013.74
716.532	954.35
716.726	681.97
716.921	954.35
717.115	1210.35
717.31	565.24
717.504	1114.1
717.699	681.97
717.893	1001.46
718.088	634.87
718.282	571.38
718.476	933.87
718.671	999.41
718.865	706.55
719.059	727.03
719.254	940.02
719.448	1257.45
719.642	1898.47
719.837	501.75
720.031	968.69
720.225	1089.52
720.419	841.72
720.614	552.95
720.808	1017.84
721.002	813.04
721.196	661.49
721.39	714.74
721.585	1210.35
721.779	1005.55
721.973	774.13
722.167	438.27
722.361	929.78
722.555	1083.38
722.749	729.08
722.943	727.03
723.137	595.96
723.331	903.15
723.525	788.47
723.719	692.21
723.913	1046.51
724.107	1169.39
724.301	593.91
724.495	776.18
724.689	1288.17
724.883	1232.88
725.077	632.82
725.271	704.5
725.465	1140.72
725.659	907.25
725.853	694.26
726.046	591.86
726.24	739.32
726.434	1130.48
726.628	739.32
726.822	825.33
727.015	1173.49
727.209	1239.02
727.403	669.69
727.596	645.11
727.79	989.17
727.984	1044.46
728.177	731.12
728.371	731.12
728.565	1107.95
728.758	608.25
728.952	585.72
729.146	724.98
729.339	1185.77
729.533	960.5
729.726	655.35
729.92	718.84
730.113	1116.14
730.307	946.16
730.5	616.44
730.694	606.2
730.887	878.58
731.081	1073.14
731.274	571.38
731.468	729.08
731.661	892.91
731.854	788.47
732.048	690.17
732.241	546.81
732.435	686.07
732.628	905.2
732.821	823.28
733.014	669.69
733.208	724.98
733.401	1085.42
733.594	739.32
733.788	751.6
733.981	1179.63
734.174	1021.94
734.367	679.93
734.56	806.9
734.754	1077.23
734.947	899.06
735.14	661.49
735.333	677.88
735.526	1257.45
735.719	794.61
735.912	591.86
736.105	688.12
736.298	1007.6
736.491	845.81
736.684	675.83
736.877	673.78
737.07	935.92
737.263	1214.45
737.456	677.88
737.649	667.64
737.842	786.42
738.035	940.02
738.228	747.51
738.421	833.52
738.614	1144.81
738.807	1044.46
739	630.77
739.192	624.63
739.385	940.02
739.578	1048.56
739.771	866.29
739.964	653.3
740.156	980.98
740.349	897.01
740.542	923.63
740.735	557.05
740.927	739.32
741.12	745.46
741.313	700.41
741.505	835.57
741.698	987.12
741.891	1001.46
742.083	800.76
742.276	729.08
742.468	956.4
742.661	874.48
742.854	706.55
743.046	727.03
743.239	1292.27
743.431	831.48
743.624	735.22
743.816	641.01
744.009	841.72
744.201	1040.37
744.393	798.71
744.586	550.9
744.778	1150.96
744.971	892.91
745.163	829.43
745.355	813.04
745.548	935.92
745.74	765.94
745.932	821.24
746.125	645.11
746.317	1447.91
746.509	944.11
746.702	743.41
746.894	911.35
747.086	1032.18
747.278	1157.1
747.471	931.83
747.663	722.93
747.855	1009.65
748.047	1320.94
748.239	671.73
748.431	643.06
748.623	1382.38
748.815	1277.93
749.008	542.71
749.2	684.02
749.392	1009.65
749.584	1015.79
749.776	815.09
749.968	839.67
750.16	1302.51
750.352	870.39
750.544	835.57
750.736	585.72
750.928	991.22
751.12	958.45
751.311	712.69
751.503	798.71
751.695	1064.94
751.887	819.19
752.079	495.61
752.271	722.93
752.463	1681.38
752.654	1071.09
752.846	804.85
753.038	669.69
753.23	751.6
753.421	1087.47
753.613	737.27
753.805	970.74
753.997	1120.24
754.188	1157.1
754.38	673.78
754.572	710.65
754.763	942.07
754.955	1046.51
755.146	739.32
755.338	870.39
755.53	968.69
755.721	952.31
755.913	608.25
756.104	612.34
756.296	854
756.487	1148.91
756.679	516.09
756.87	718.84
757.062	753.65
757.253	1046.51
757.445	626.68
757.636	825.33
757.827	823.28
758.019	1320.94
758.21	622.58
758.401	690.17
758.593	1435.63
758.784	1177.58
758.975	593.91
759.167	626.68
759.358	901.11
759.549	1148.91
759.74	696.31
759.932	733.17
760.123	1300.46
760.314	786.42
760.505	811
760.696	753.65
760.888	1341.42
761.079	923.63
761.27	686.07
761.461	555
761.652	1290.22
761.843	948.21
762.034	634.87
762.225	843.76
762.416	946.16
762.607	964.59
762.798	755.7
762.989	718.84
763.18	1591.27
763.371	862.19
763.562	722.93
763.753	661.49
763.944	1124.33
764.135	1077.23
764.326	884.72
764.517	739.32
764.708	968.69
764.899	991.22
765.089	714.74
765.28	604.15
765.471	978.93
765.662	1023.98
765.853	684.02
766.043	520.18
766.234	1064.94
766.425	1198.06
766.615	714.74
766.806	612.34
766.997	1275.88
767.187	1013.74
767.378	616.44
767.569	522.23
767.759	995.31
767.95	1034.22
768.141	878.58
768.331	671.73
768.522	878.58
768.712	970.74
768.903	700.41
769.093	643.06
769.284	1198.06
769.474	1034.22
769.665	575.48
769.855	538.62
770.046	985.07
770.236	890.87
770.426	899.06
770.617	659.45
770.807	1013.74
770.998	882.67
771.188	917.49
771.378	677.88
771.569	1165.29
771.759	1036.27
771.949	604.15
772.139	495.61
772.33	1017.84
772.52	1286.12
772.71	790.52
772.9	632.82
773.09	1292.27
773.281	1259.5
773.471	618.49
773.661	626.68
773.851	1155.05
774.041	819.19
774.231	614.39
774.421	794.61
774.611	1232.88
774.802	823.28
774.992	735.22
775.182	604.15
775.372	860.15
775.562	1105.9
775.752	591.86
775.942	620.53
776.131	1226.73
776.321	1046.51
776.511	632.82
776.701	501.75
776.891	1071.09
777.081	712.69
777.271	755.7
777.461	538.62
777.651	1069.04
777.84	1091.57
778.03	716.79
778.22	641.01
778.41	1196.01
778.599	632.82
778.789	669.69
778.979	686.07
779.169	1050.61
779.358	894.96
779.548	878.58
779.738	534.52
779.927	954.35
780.117	741.36
780.307	767.99
780.496	370.68
780.686	1038.32
780.875	1196.01
781.065	645.11
781.254	614.39
781.444	874.48
781.633	894.96
781.823	602.1
782.012	540.66
782.202	741.36
782.391	827.38
782.581	544.76
782.77	839.67
782.96	985.07
783.149	800.76
783.338	759.8
783.528	417.79
783.717	1007.6
783.906	1026.03
784.096	778.23
784.285	669.69
784.474	753.65
784.663	616.44
784.853	645.11
785.042	653.3
785.231	813.04
785.42	1132.53
785.61	722.93
785.799	491.51
785.988	745.46
786.177	837.62
786.366	696.31
786.555	806.9
786.744	1097.71
786.933	915.44
787.122	593.91
787.312	552.95
787.501	743.41
787.69	964.59
787.879	604.15
788.068	530.42
788.257	669.69
788.445	784.37
788.634	712.69
788.823	600.05
789.012	1499.11
789.201	1193.97
789.39	643.06
789.579	569.34
789.768	776.18
789.957	868.34
790.145	565.24
790.334	456.7
790.523	790.52
790.712	763.89
790.9	655.35
791.089	456.7
791.278	1073.14
791.467	886.77
791.655	825.33
791.844	1007.6
792.033	649.21
792.221	800.76
792.41	712.69
792.599	579.58
792.787	888.82
792.976	1087.47
793.164	587.77
793.353	587.77
793.541	929.78
793.73	948.21
793.918	665.59
794.107	585.72
794.295	854
794.484	876.53
794.672	722.93
794.861	669.69
795.049	952.31
795.238	1302.51
795.426	518.14
795.614	700.41
795.803	913.39
795.991	1073.14
796.179	614.39
796.368	559.1
796.556	1165.29
796.744	608.25
796.932	450.55
797.121	538.62
797.309	780.28
797.497	1066.99
797.685	710.65
797.874	573.43
798.062	782.32
798.25	1138.67
798.438	528.38
798.626	598.01
798.814	929.78
799.002	1372.14
799.19	757.75
799.378	704.5
799.566	1054.7
799.755	1269.74
799.943	819.19
800.131	618.49
800.318	950.26
800.506	952.31
800.694	606.2
800.882	788.47
801.07	1226.73
801.258	794.61
801.446	638.97
801.634	614.39
801.822	800.76
802.01	905.2
802.197	600.05
802.385	788.47
802.573	948.21
802.761	745.46
802.949	712.69
803.136	516.09
803.324	1089.52
803.512	897.01
803.699	743.41
803.887	561.14
804.075	1155.05
804.262	747.51
804.45	600.05
804.638	702.45
804.825	659.45
805.013	698.36
805.201	684.02
805.388	542.71
805.576	819.19
805.763	1259.5
805.951	645.11
806.138	786.42
806.326	1425.39
806.513	970.74
806.701	729.08
806.888	675.83
807.075	962.55
807.263	1427.43
807.45	511.99
807.638	862.19
807.825	1277.93
808.012	1112.05
808.2	587.77
808.387	878.58
808.574	944.11
808.761	1325.04
808.949	630.77
809.136	788.47
809.323	835.57
809.51	808.95
809.698	1062.9
809.885	882.67
810.072	1017.84
810.259	1161.2
810.446	669.69
810.633	712.69
810.82	1165.29
811.008	1202.16
811.195	872.43
811.382	829.43
811.569	860.15
811.756	616.44
811.943	741.36
812.13	722.93
812.317	720.89
812.504	704.5
812.691	774.13
812.878	817.14
813.064	1105.9
813.251	927.73
813.438	692.21
813.625	866.29
813.812	825.33
813.999	841.72
814.186	743.41
814.372	784.37
814.559	985.07
814.746	1251.31
814.933	790.52
815.12	833.52
815.306	833.52
815.493	569.34
815.68	618.49
815.866	811
816.053	1216.49
816.24	1370.09
816.426	757.75
816.613	643.06
816.799	1032.18
816.986	1175.53
817.173	745.46
817.359	753.65
817.546	925.68
817.732	643.06
817.919	548.86
818.105	849.91
818.292	743.41
818.478	927.73
818.665	872.43
818.851	696.31
819.037	1331.18
819.224	878.58
819.41	595.96
819.597	577.53
819.783	1363.95
819.969	991.22
820.156	864.24
820.342	602.1
820.528	1576.94
820.714	942.07
820.901	923.63
821.087	698.36
821.273	1378.28
821.459	876.53
821.646	661.49
821.832	577.53
822.018	909.3
822.204	958.45
822.39	772.08
822.576	485.37
822.762	1013.74
822.948	974.83
823.134	931.83
823.32	772.08
823.507	581.62
823.693	962.55
823.879	1017.84
824.065	645.11
824.25	1052.66
824.436	630.77
824.622	712.69
824.808	636.92
824.994	911.35
825.18	729.08
825.366	618.49
825.552	655.35
825.738	778.23
825.923	1216.49
826.109	903.15
826.295	583.67
826.481	835.57
826.667	796.66
826.852	847.86
827.038	604.15
827.224	1083.38
827.409	1277.93
827.595	468.98
827.781	933.87
827.966	1054.7
828.152	1136.62
828.338	688.12
828.523	634.87
828.709	784.37
828.894	1118.19
829.08	747.51
829.266	555
829.451	837.62
829.637	974.83
829.822	784.37
830.008	671.73
830.193	976.88
830.378	1177.58
830.564	747.51
830.749	604.15
830.935	989.17
831.12	1116.14
831.305	616.44
831.491	747.51
831.676	602.1
831.861	1122.29
832.047	708.6
832.232	552.95
832.417	1124.33
832.602	925.68
832.788	608.25
832.973	720.89
833.158	897.01
833.343	974.83
833.528	862.19
833.714	780.28
833.899	1040.37
834.084	1349.61
834.269	813.04
834.454	694.26
834.639	1150.96
834.824	946.16
835.009	798.71
835.194	729.08
835.379	1030.13
835.564	1191.92
835.749	841.72
835.934	552.95
836.119	1046.51
836.304	776.18
836.489	679.93
836.674	825.33
836.859	735.22
837.044	1150.96
837.228	684.02
837.413	622.58
837.598	1048.56
837.783	1142.77
837.968	716.79
838.152	522.23
838.337	481.27
838.522	1103.86
838.707	1083.38
838.891	890.87
839.076	993.26
839.261	1140.72
839.445	669.69
839.63	731.12
839.815	1169.39
839.999	860.15
840.184	626.68
840.368	722.93
840.553	1099.76
840.737	1124.33
840.922	602.1
841.106	552.95
841.291	614.39
841.475	952.31
841.66	581.62
841.844	595.96
842.029	1562.6
842.213	661.49
842.397	561.14
842.582	501.75
842.766	1093.62
842.951	1081.33
843.135	788.47
843.319	665.59
843.504	921.59
843.688	1015.79
843.872	565.24
844.056	626.68
844.241	1062.9
844.425	808.95
844.609	847.86
844.793	458.74
844.977	1093.62
845.161	1009.65
845.346	473.08
845.53	577.53
845.714	854
845.898	1296.36
846.082	452.6
846.266	686.07
846.45	784.37
846.634	935.92
846.818	661.49
847.002	745.46
847.186	972.79
847.37	688.12
847.554	559.1
847.738	858.1
847.922	958.45
848.106	1001.46
848.29	468.98
848.473	571.38
848.657	980.98
848.841	802.8
849.025	657.4
849.209	479.22
849.392	993.26
849.576	800.76
849.76	452.6
849.944	763.89
850.127	1183.73
850.311	663.54
850.495	526.33
850.678	479.22
850.862	1099.76
851.046	1247.21
851.229	821.24
851.413	579.58
851.596	876.53
851.78	860.15
851.964	784.37
852.147	727.03
852.331	1540.07
852.514	1126.38
852.698	727.03
852.881	567.29
853.065	991.22
853.248	688.12
853.431	755.7
853.615	684.02
853.798	1310.7
853.982	927.73
854.165	772.08
854.348	520.18
854.532	653.3
854.715	612.34
854.898	626.68
855.081	606.2
855.265	1107.95
855.448	1183.73
855.631	598.01
855.814	573.43
855.997	962.55
856.181	759.8
856.364	632.82
856.547	507.9
856.73	913.39
856.913	872.43
857.096	505.85
857.279	735.22
857.462	579.58
857.645	1005.55
857.828	841.72
858.011	755.7
858.194	688.12
858.377	985.07
858.56	555
858.743	632.82
858.926	573.43
859.109	899.06
859.292	665.59
859.475	575.48
859.658	1204.21
859.841	948.21
860.023	473.08
860.206	497.66
860.389	866.29
860.572	1220.59
860.755	626.68
860.937	653.3
861.12	755.7
861.303	868.34
861.486	595.96
861.668	616.44
861.851	976.88
862.034	940.02
862.216	727.03
862.399	440.31
862.581	909.3
862.764	1214.45
862.947	718.84
863.129	526.33
863.312	581.62
863.494	1267.69
863.677	888.82
863.859	466.94
864.042	1021.94
864.224	1171.44
864.406	747.51
864.589	475.13
864.771	1042.42
864.954	571.38
865.136	530.42
865.318	401.4
865.501	987.12
865.683	462.84
865.865	530.42
866.048	559.1
866.23	854
866.412	817.14
866.594	493.56
866.777	645.11
866.959	985.07
867.141	636.92
867.323	837.62
867.505	712.69
867.687	675.83
867.869	749.56
868.052	675.83
868.234	489.46
868.416	856.05
868.598	942.07
868.78	665.59
868.962	495.61
869.144	1046.51
869.326	921.59
869.508	595.96
869.69	460.79
869.872	622.58
870.054	1013.74
870.236	425.98
870.417	509.94
870.599	700.41
870.781	1128.43
870.963	690.17
871.145	530.42
871.327	598.01
871.508	1011.7
871.69	532.47
871.872	520.18
872.054	724.98
872.235	919.54
872.417	671.73
872.599	507.9
872.78	1064.94
872.962	880.63
873.144	514.04
873.325	598.01
873.507	1075.18
873.689	858.1
873.87	393.21
874.052	663.54
874.233	692.21
874.415	1097.71
874.596	634.87
874.778	479.22
874.959	827.38
875.141	1028.08
875.322	684.02
875.503	540.66
875.685	970.74
875.866	493.56
876.048	450.55
876.229	430.07
876.41	806.9
876.592	888.82
876.773	509.94
876.954	364.54
877.136	1126.38
877.317	671.73
877.498	415.74
877.679	667.64
877.86	905.2
878.042	854
878.223	528.38
878.404	733.17
878.585	942.07
878.766	1277.93
878.947	927.73
879.128	731.12
879.309	944.11
879.49	1128.43
879.672	710.65
879.853	575.48
880.034	491.51
880.215	741.36
880.396	604.15
880.576	655.35
880.757	563.19
880.938	1161.2
881.119	528.38
881.3	483.32
881.481	690.17
881.662	1578.98
881.843	550.9
882.023	403.45
882.204	784.37
882.385	847.86
882.566	555
882.747	573.43
882.927	757.75
883.108	872.43
883.289	550.9
883.469	835.57
883.65	661.49
883.831	862.19
884.011	749.56
884.192	630.77
884.373	1116.14
884.553	937.97
884.734	577.53
884.914	782.32
885.095	1406.95
885.275	1300.46
885.456	854
885.636	567.29
885.817	835.57
885.997	796.66
886.178	587.77
886.358	655.35
886.538	796.66
886.719	1779.68
886.899	618.49
887.08	784.37
887.26	1091.57
887.44	563.19
887.621	487.42
887.801	821.24
887.981	1361.9
888.161	1038.32
888.342	667.64
888.522	659.45
888.702	976.88
888.882	1142.77
889.062	804.85
889.242	452.6
889.423	1173.49
889.603	1001.46
889.783	757.75
889.963	610.29
890.143	1066.99
890.323	1062.9
890.503	636.92
890.683	567.29
890.863	880.63
891.043	989.17
891.223	661.49
891.403	837.62
891.583	899.06
891.763	847.86
891.943	739.32
892.122	542.71
892.302	944.11
892.482	841.72
892.662	747.51
892.842	811
893.022	952.31
893.201	700.41
893.381	811
893.561	714.74
893.741	1140.72
893.92	1044.46
894.1	880.63
894.28	780.28
894.459	1017.84
894.639	972.79
894.819	622.58
894.998	747.51
895.178	962.55
895.357	1003.5
895.537	714.74
895.716	548.86
895.896	899.06
896.075	1155.05
896.255	702.45
896.434	444.41
896.614	1144.81
896.793	1177.58
896.973	841.72
897.152	780.28
897.331	903.15
897.511	1030.13
897.69	489.46
897.87	915.44
898.049	1034.22
898.228	915.44
898.407	921.59
898.587	878.58
898.766	751.6
898.945	1054.7
899.124	946.16
899.304	827.38
899.483	1026.03
899.662	1325.04
899.841	626.68
900.02	630.77
900.199	1177.58
900.378	1015.79
900.557	624.63
900.737	585.72
900.916	960.5
901.095	1173.49
901.274	929.78
901.453	542.71
901.632	690.17
901.811	720.89
901.989	552.95
902.168	550.9
902.347	1159.15
902.526	690.17
902.705	620.53
902.884	796.66
903.063	1165.29
903.242	1208.3
903.42	581.62
903.599	722.93
903.778	1091.57
903.957	1177.58
904.135	767.99
904.314	825.33
904.493	935.92
904.672	1005.55
904.85	612.34
905.029	559.1
905.207	890.87
905.386	1642.47
905.565	546.81
905.743	796.66
905.922	714.74
906.1	1159.15
906.279	659.45
906.457	616.44
906.636	804.85
906.814	790.52
906.993	626.68
907.171	555
907.35	1007.6
907.528	1116.14
907.707	835.57
907.885	677.88
908.063	1325.04
908.242	684.02
908.42	718.84
908.598	516.09
908.777	989.17
908.955	778.23
909.133	827.38
909.311	499.7
909.49	784.37
909.668	854
909.846	577.53
910.024	497.66
910.202	911.35
910.38	985.07
910.559	509.94
910.737	507.9
910.915	944.11
911.093	950.26
911.271	636.92
911.449	811
911.627	1030.13
911.805	1265.64
911.983	600.05
912.161	514.04
912.339	927.73
912.517	1077.23
912.695	747.51
912.872	673.78
913.05	643.06
913.228	927.73
913.406	718.84
913.584	587.77
913.762	1066.99
913.939	720.89
914.117	542.71
914.295	501.75
914.473	964.59
914.65	907.25
914.828	647.16
915.006	606.2
915.184	616.44
915.361	954.35
915.539	727.03
915.716	847.86
915.894	813.04
916.072	978.93
916.249	841.72
916.427	739.32
916.604	587.77
916.782	935.92
916.959	372.73
917.137	669.69
917.314	905.2
917.492	931.83
917.669	688.12
917.847	690.17
918.024	991.22
918.201	684.02
918.379	692.21
918.556	708.6
918.733	1054.7
918.911	731.12
919.088	792.56
919.265	530.42
919.442	952.31
919.62	794.61
919.797	479.22
919.974	509.94
920.151	870.39
920.328	782.32
920.506	563.19
920.683	788.47
920.86	641.01
921.037	538.62
921.214	692.21
921.391	518.14
921.568	1007.6
921.745	661.49
921.922	614.39
922.099	499.7
922.276	1093.62
922.453	878.58
922.63	534.52
922.807	802.8
922.984	688.12
923.161	593.91
923.338	604.15
923.514	413.69
923.691	731.12
923.868	794.61
924.045	454.65
924.222	548.86
924.399	800.76
924.575	1116.14
924.752	575.48
924.929	704.5
925.105	831.48
925.282	454.65
925.459	548.86
925.635	509.94
925.812	686.07
925.989	620.53
926.165	634.87
926.342	397.31
926.518	493.56
926.695	735.22
926.871	522.23
927.048	335.87
927.224	976.88
927.401	692.21
927.577	686.07
927.754	509.94
927.93	1013.74
928.107	892.91
928.283	364.54
928.459	641.01
928.636	856.05
928.812	571.38
928.988	393.21
929.165	356.35
929.341	634.87
929.517	690.17
929.693	755.7
929.87	301.05
930.046	741.36
930.222	518.14
930.398	419.83
930.574	624.63
930.751	677.88
930.927	501.75
931.103	569.34
931.279	487.42
931.455	378.87
931.631	737.27
931.807	292.86
931.983	378.87
932.159	397.31
932.335	733.17
932.511	495.61
932.687	397.31
932.863	763.89
933.039	643.06
933.215	444.41
933.391	309.24
933.566	587.77
933.742	645.11
933.918	528.38
934.094	258.04
934.27	630.77
934.445	710.65
934.621	473.08
934.797	294.91
934.973	823.28
935.148	718.84
935.324	348.15
935.5	182.27
935.675	886.77
935.851	698.36
936.027	401.4
936.202	378.87
936.378	653.3
936.553	493.56
936.729	681.97
936.904	276.48
937.08	253.95
937.255	360.44
937.431	342.01
937.606	184.32
937.782	428.03
937.957	509.94
938.133	446.46
938.308	178.17
938.483	485.37
938.659	315.39
938.834	393.21
939.009	208.89
939.185	444.41
939.36	260.09
939.535	0
939.71	348.15
939.886	653.3
940.061	471.03
940.236	368.63
940.411	262.14
940.586	604.15
940.761	520.18
940.937	249.85
941.112	223.23
941.287	409.59
941.462	393.21
941.637	86.01
941.812	206.84
941.987	540.66
942.162	350.2
942.337	253.95
942.512	229.37
942.687	583.67
942.862	567.29
943.037	63.49
943.212	-61.44
943.386	278.52
943.561	540.66
943.736	325.63
943.911	362.49
944.086	413.69
944.26	460.79
944.435	221.18
944.61	239.61
944.785	641.01
944.959	727.03
945.134	319.48
945.309	178.17
945.483	280.57
945.658	567.29
945.833	-45.06
946.007	38.91
946.182	839.67
946.357	110.59
946.531	118.78
946.706	112.64
946.88	47.1
947.055	401.4
947.229	135.17
947.404	-8.19
947.578	579.58
947.752	210.94
947.927	-2.05
948.101	-10.24
948.276	368.63
948.45	458.74
948.624	362.49
948.799	36.86
948.973	380.92
949.147	114.69
949.321	180.22
949.496	161.79
949.67	675.83
949.844	278.52
950.018	133.12
950.193	159.74
950.367	878.58
950.541	147.45
950.715	264.19
950.889	331.77
951.063	233.47
951.237	507.9
951.411	-96.25
951.585	18.43
951.759	509.94
951.933	366.59
952.107	32.77
952.281	344.06
952.455	765.94
952.629	571.38
952.803	79.87
952.977	47.1
953.151	466.94
953.325	428.03
953.499	315.39
953.672	20.48
953.846	194.56
954.02	251.9
954.194	36.86
954.368	133.12
954.541	413.69
954.715	215.04
954.889	278.52
955.062	22.53
955.236	331.77
955.41	245.76
955.583	272.38
955.757	-77.82
955.93	233.47
956.104	79.87
956.278	122.88
956.451	227.32
956.625	501.75
956.798	731.12
956.972	307.2
957.145	167.93
957.319	286.72
957.492	376.83
957.665	239.61
957.839	65.54
958.012	399.35
958.185	227.32
958.359	153.6
958.532	325.63
958.705	456.7
958.879	448.51
959.052	161.79
959.225	-51.2
959.398	249.85
959.572	407.55
959.745	112.64
959.918	182.27
960.091	212.99
960.264	423.93
960.438	-12.29
960.611	122.88
960.784	419.83
960.957	147.45
961.13	440.31
961.303	63.49
961.476	200.7
961.649	540.66
961.822	-40.96
961.995	133.12
962.168	466.94
962.341	364.54
962.514	118.78
962.686	79.87
962.859	403.45
963.032	458.74
963.205	157.69
963.378	-36.86
963.551	395.26
963.723	352.25
963.896	268.28
964.069	243.71
964.242	272.38
964.414	477.18
964.587	139.26
964.76	272.38
964.932	358.39
965.105	249.85
965.278	184.32
965.45	83.97
965.623	307.2
965.795	387.07
965.968	145.41
966.14	90.11
966.313	280.57
966.485	346.11
966.658	180.22
966.83	-2.05
967.003	573.43
967.175	493.56
967.348	106.49
967.52	217.08
967.692	649.21
967.865	440.31
968.037	94.21
968.209	417.79
968.382	241.66
968.554	567.29
968.726	161.79
968.898	135.17
969.071	411.64
969.243	354.3
969.415	114.69
969.587	212.99
969.759	829.43
969.932	536.57
970.104	161.79
970.276	-108.54
970.448	223.23
970.62	139.26
970.792	268.28
970.964	141.31
971.136	780.28
971.308	458.74
971.48	38.91
971.652	61.44
971.824	667.64
971.996	299
972.168	157.69
972.339	100.35
972.511	485.37
972.683	190.46
972.855	352.25
973.027	176.13
973.199	305.15
973.37	514.04
973.542	212.99
973.714	198.65
973.886	323.58
974.057	524.28
974.229	16.38
974.401	83.97
974.572	6.14
974.744	-47.1
974.915	-6.14
975.087	12.29
975.259	772.08
975.43	149.5
975.602	57.34
975.773	43.01
975.945	102.4
976.116	444.41
976.288	49.15
976.459	190.46
976.63	262.14
976.802	468.98
976.973	94.21
977.145	266.24
977.316	706.55
977.487	694.26
977.659	272.38
977.83	133.12
978.001	692.21
978.172	378.87
978.344	36.86
978.515	137.21
978.686	180.22
978.857	612.34
979.028	133.12
979.2	100.35
979.371	466.94
979.542	385.02
979.713	294.91
979.884	-280.57
980.055	90.11
980.226	186.37
980.397	172.03
980.568	-59.39
980.739	610.29
980.91	208.89
981.081	206.84
981.252	49.15
981.423	516.09
981.594	520.18
981.765	0
981.936	182.27
982.106	356.35
982.277	544.76
982.448	14.34
982.619	200.7
982.79	174.08
982.96	514.04
983.131	172.03
983.302	30.72
983.472	135.17
983.643	305.15
983.814	178.17
983.984	8.19
984.155	204.8
984.326	526.33
984.496	215.04
984.667	61.44
984.837	174.08
985.008	595.96
985.178	315.39
985.349	145.41
985.519	176.13
985.69	79.87
985.86	217.08
986.031	53.25
986.201	385.02
986.371	421.88
986.542	-32.77
986.712	-135.17
986.882	385.02
987.053	354.3
987.223	-45.06
987.393	292.86
987.563	139.26
987.734	413.69
987.904	405.5
988.074	75.77
988.244	378.87
988.414	172.03
988.585	94.21
988.755	196.61
988.925	272.38
989.095	544.76
989.265	51.2
989.435	20.48
989.605	411.64
989.775	356.35
989.945	344.06
990.115	8.19
990.285	247.8
990.455	327.68
990.625	147.45
990.795	28.67
990.965	575.48
991.134	63.49
991.304	-12.29
991.474	63.49
991.644	419.83
991.814	593.91
991.984	-100.35
992.153	-102.4
992.323	122.88
992.493	266.24
992.662	-133.12
992.832	106.49
993.002	260.09
993.171	403.45
993.341	-16.38
993.511	120.83
993.68	94.21
993.85	462.84
994.019	-212.99
994.189	-153.6
994.358	243.71
994.528	239.61
994.697	-247.8
994.867	-118.78
995.036	423.93
995.206	172.03
995.375	-10.24
995.544	92.16
995.714	364.54
995.883	110.59
996.052	215.04
996.222	-208.89
996.391	712.69
996.56	272.38
996.73	12.29
996.899	-167.93
997.068	589.82
997.237	196.61
997.406	-126.97
997.576	-102.4
997.745	258.04
997.914	288.76
998.083	-176.13
998.252	-90.11
998.421	303.1
998.59	43.01
998.759	-153.6
998.928	-206.84
999.097	546.81
999.266	321.53
999.435	104.45
999.604	-221.18
999.773	686.07
999.942	260.09
1000.111	-229.37
1000.28	-198.65
1000.448	-20.48
1000.617	-32.77
1000.786	114.69
1000.955	-178.17
1001.124	374.78
1001.292	909.3
1001.461	-59.39
1001.63	-114.69
1001.798	509.94
1001.967	571.38
1002.136	-75.77
1002.304	-112.64
1002.473	223.23
1002.642	270.33
1002.81	-26.62
1002.979	-104.45
1003.147	413.69
1003.316	724.98
1003.484	-110.59
1003.653	-147.45
1003.821	446.46
1003.99	163.84
1004.158	30.72
1004.327	20.48
1004.495	370.68
1004.663	32.77
1004.832	53.25
1005	-194.56
1005.168	276.48
1005.337	258.04
1005.505	-221.18
1005.673	34.82
1005.842	342.01
1006.01	354.3
1006.178	-192.51
1006.346	-34.82
1006.514	317.44
1006.683	403.45
1006.851	-40.96
1007.019	-251.9
1007.187	-30.72
1007.355	-317.44
1007.523	-253.95
1007.691	-239.61
1007.859	-145.41
1008.027	454.65
1008.195	-49.15
1008.363	-239.61
1008.531	415.74
1008.699	112.64
1008.867	-233.47
1009.035	-120.83
1009.203	497.66
1009.37	108.54
1009.538	-106.49
1009.706	262.14
1009.874	139.26
1010.042	143.36
1010.209	-188.41
1010.377	-180.22
1010.545	325.63
1010.713	206.84
1010.88	-169.98
1011.048	-77.82
1011.216	67.58
1011.383	489.46
1011.551	-122.88
1011.718	-159.74
1011.886	372.73
1012.054	188.41
1012.221	-167.93
1012.389	-104.45
1012.556	145.41
1012.724	563.19
1012.891	8.19
1013.058	-198.65
1013.226	299
1013.393	321.53
1013.561	-352.25
1013.728	-256
1013.895	352.25
1014.063	329.72
1014.23	-272.38
1014.397	-174.08
1014.565	276.48
1014.732	92.16
1014.899	-217.08
1015.066	-264.19
1015.233	190.46
1015.401	276.48
1015.568	-63.49
1015.735	-73.73
1015.902	165.89
1016.069	278.52
1016.236	-141.31
1016.403	-120.83
1016.57	-30.72
1016.737	434.17
1016.904	-63.49
1017.071	-165.89
1017.238	-34.82
1017.405	385.02
1017.572	-141.31
1017.739	30.72
1017.906	296.96
1018.073	430.07
1018.24	-212.99
1018.407	-112.64
1018.573	393.21
1018.74	94.21
1018.907	-94.21
1019.074	-202.75
1019.241	344.06
1019.407	155.65
1019.574	-143.36
1019.741	-276.48
1019.907	243.71
1020.074	235.52
1020.241	-290.81
1020.407	-174.08
1020.574	292.86
1020.74	358.39
1020.907	-153.6
1021.073	-204.8
1021.24	614.39
1021.406	544.76
1021.573	-241.66
1021.739	-69.63
1021.906	309.24
1022.072	114.69
1022.239	-161.79
1022.405	-112.64
1022.571	116.73
1022.738	-45.06
1022.904	-161.79
1023.07	-83.97
1023.237	139.26
1023.403	423.93
1023.569	-167.93
1023.735	-129.02
1023.902	288.76
1024.068	215.04
1024.234	-223.23
1024.4	-188.41
1024.566	276.48
1024.732	317.44
1024.898	-188.41
1025.065	-315.39
1025.231	350.2
1025.397	110.59
1025.563	-169.98
1025.729	-231.42
1025.895	-208.89
1026.061	-28.67
1026.227	-296.96
1026.392	-71.68
1026.558	374.78
1026.724	249.85
1026.89	-235.52
1027.056	-147.45
1027.222	270.33
1027.388	-75.77
1027.553	-188.41
1027.719	-151.55
1027.885	524.28
1028.051	317.44
1028.216	-411.64
1028.382	-59.39
1028.548	376.83
1028.713	38.91
1028.879	-221.18
1029.045	4.1
1029.21	505.85
1029.376	403.45
1029.541	-100.35
1029.707	-159.74
1029.873	325.63
1030.038	337.91
1030.204	-137.21
1030.369	-79.87
1030.534	315.39
1030.7	124.93
1030.865	-110.59
1031.031	-196.6
1031.196	247.8
1031.361	190.46
1031.527	-212.99
1031.692	-212.99
1031.857	-210.94
1032.023	276.48
1032.188	-247.8
1032.353	-120.83
1032.518	561.14
1032.684	206.84
1032.849	-284.67
1033.014	-38.91
1033.179	419.83
1033.344	313.34
1033.509	-67.58
1033.674	-247.8
1033.839	335.87
1034.004	337.91
1034.17	-116.73
1034.335	-260.09
1034.5	90.11
1034.664	67.58
1034.829	-194.56
1034.994	-139.26
1035.159	301.05
1035.324	133.12
1035.489	-98.3
1035.654	-192.51
1035.819	411.64
1035.984	182.27
1036.148	-198.65
1036.313	-71.68
1036.478	337.91
1036.643	145.41
1036.807	-192.51
1036.972	-247.8
1037.137	477.18
1037.301	174.08
1037.466	-264.19
1037.631	-34.82
1037.795	430.07
1037.96	198.65
1038.124	14.34
1038.289	-354.3
1038.454	362.49
1038.618	215.04
1038.783	-212.99
1038.947	-67.58
1039.111	286.72
1039.276	102.4
1039.44	-229.37
1039.605	219.13
1039.769	65.54
1039.933	155.65
1040.098	-92.16
1040.262	26.62
1040.426	411.64
1040.591	292.86
1040.755	-278.52
1040.919	-116.73
1041.083	221.18
1041.248	106.49
1041.412	-315.39
1041.576	-186.37
1041.74	141.31
1041.904	368.63
1042.068	-159.74
1042.232	-118.78
1042.397	366.59
1042.561	237.56
1042.725	-305.15
1042.889	57.34
1043.053	374.78
1043.217	296.96
1043.381	-28.67
1043.544	-313.34
1043.708	446.46
1043.872	0
1044.036	-352.25
1044.2	-264.19
1044.364	497.66
1044.528	528.38
1044.691	4143.04
1044.855	-315.39
1045.019	419.83
1045.183	352.25
1045.346	-67.58
1045.51	-264.19
1045.674	327.68
1045.837	335.87
1046.001	-110.59
1046.165	-217.08
1046.328	722.93
1046.492	354.3
1046.655	43.01
1046.819	-86.01
1046.983	106.49
1047.146	319.48
1047.31	-38.91
1047.473	-309.24
1047.636	167.93
1047.8	-4.1
1047.963	-67.58
1048.127	-131.07
1048.29	92.16
