Data from Ink_Intensity_USB4F045381__101__00101.txt Node

Date: Mon Jul 17 11:04:47 EDT 2023
User: mmckonesweet
Spectrometer: USB4F04538
Trigger mode: 4
Integration Time (sec): 9.000000E-1
Scans to average: 1
Electric dark correction enabled: true
Nonlinearity correction enabled: false
Boxcar width: 0
XAxis mode: Wavelengths
Number of Pixels in Spectrum: 3648
>>>>>Begin Spectral Data<<<<<
345.52	-975.69
345.736	-975.69
345.952	-975.69
346.168	-987.97
346.384	-983.88
346.6	-117.59
346.816	-301.9
347.032	-142.16
347.248	351.4
347.464	-219.99
347.68	-80.72
347.896	9.39
348.112	349.35
348.328	-45.91
348.544	-90.96
348.76	54.44
348.975	234.66
349.191	-236.37
349.407	-234.32
349.623	-4.95
349.839	29.87
350.055	-238.42
350.27	113.83
350.486	177.32
350.702	322.73
350.918	261.29
351.133	-156.5
351.349	158.89
351.565	353.45
351.781	-213.84
351.996	5.29
352.212	294.05
352.428	-152.4
352.644	-236.37
352.859	-240.47
353.075	287.91
353.291	128.17
353.506	-131.92
353.722	-269.14
353.938	-84.82
354.153	404.64
354.369	105.64
354.584	-170.83
354.8	283.81
355.016	-353.1
355.231	-232.27
355.447	-45.91
355.662	236.71
355.878	859.29
356.093	-383.82
356.309	-23.38
356.524	-252.75
356.74	279.72
356.955	-222.03
357.171	-68.44
357.386	179.37
357.602	-191.31
357.817	-170.83
358.033	-224.08
358.248	406.69
358.464	240.81
358.679	-99.16
358.895	-308.05
359.11	58.54
359.325	316.58
359.541	148.65
359.756	50.35
359.972	-244.56
360.187	210.09
360.402	-203.6
360.618	-172.88
360.833	1057.95
361.048	158.89
361.264	-183.12
361.479	-15.19
361.694	-25.43
361.909	152.74
362.125	-242.51
362.34	-105.3
362.555	203.94
362.77	74.92
362.986	-285.52
363.201	-105.3
363.416	181.42
363.631	85.16
363.847	-150.36
364.062	-97.11
364.277	218.28
364.492	122.02
364.707	-101.2
364.922	-367.44
365.138	279.72
365.353	378.02
365.568	-262.99
365.783	-191.31
365.998	52.39
366.213	507.04
366.428	-293.71
366.643	107.69
366.858	224.42
367.073	218.28
367.288	-103.25
367.503	-199.51
367.718	48.3
367.933	267.43
368.148	-334.67
368.363	-43.86
368.578	25.77
368.793	341.16
369.008	-117.59
369.223	-215.89
369.438	169.13
369.653	341.16
369.868	-287.57
370.083	-273.23
370.298	140.46
370.513	396.45
370.728	46.25
370.943	-189.27
371.157	-174.93
371.372	586.91
371.587	-281.43
371.802	-301.9
372.017	115.88
372.232	359.59
372.446	-17.24
372.661	-244.56
372.876	279.72
373.091	222.38
373.306	-191.31
373.52	-256.85
373.735	-254.8
373.95	388.26
374.165	-101.2
374.379	-64.34
374.594	-138.07
374.809	85.16
375.023	48.3
375.238	-222.03
375.453	222.38
375.667	-240.47
375.882	-172.88
376.097	-136.02
376.311	36.01
376.526	17.58
376.741	-265.04
376.955	203.94
377.17	535.71
377.384	502.95
377.599	-121.68
377.813	-283.47
378.028	599.2
378.242	226.47
378.457	-117.59
378.672	-363.34
378.886	146.6
379.101	-17.24
379.315	-322.38
379.53	-219.99
379.744	154.79
379.958	208.04
380.173	-146.26
380.387	-160.59
380.602	154.79
380.816	-117.59
381.031	-142.16
381.245	-162.64
381.459	228.52
381.674	2718.85
381.888	-246.61
382.103	140.46
382.317	-203.6
382.531	451.75
382.746	-78.68
382.96	-162.64
383.174	-154.45
383.388	433.32
383.603	27.82
383.817	-279.38
384.031	119.98
384.246	431.27
384.46	-23.38
384.674	242.85
384.888	-60.24
385.103	142.5
385.317	-338.77
385.531	-50
385.745	322.73
385.959	259.24
386.174	-215.89
386.388	-248.66
386.602	46.25
386.816	-150.36
387.03	-84.82
387.244	-127.83
387.458	52.39
387.672	347.3
387.887	-254.8
388.101	-277.33
388.315	324.77
388.529	85.16
388.743	-115.54
388.957	-189.27
389.171	382.12
389.385	-154.45
389.599	-103.25
389.813	17.58
390.027	173.22
390.241	611.49
390.455	-260.95
390.669	-113.49
390.883	-76.63
391.097	478.37
391.311	58.54
391.525	-222.03
391.738	183.46
391.952	224.42
392.166	-68.44
392.38	-201.55
392.594	324.77
392.808	261.29
393.022	-43.86
393.236	-109.4
393.449	101.55
393.663	173.22
393.877	-195.41
394.091	-19.29
394.305	-150.36
394.518	-138.07
394.732	-209.75
394.946	-109.4
395.16	459.94
395.373	119.98
395.587	-224.08
395.801	-197.46
396.015	328.87
396.228	179.37
396.442	-254.8
396.656	-346.96
396.869	339.11
397.083	439.46
397.297	13.48
397.51	-109.4
397.724	371.88
397.938	165.03
398.151	-363.34
398.365	-246.61
398.578	287.91
398.792	433.32
399.005	19.63
399.219	-193.36
399.433	62.63
399.646	201.9
399.86	-39.76
400.073	-25.43
400.287	275.62
400.5	36.01
400.714	25.77
400.927	-15.19
401.141	283.81
401.354	1107.1
401.567	251.05
401.781	-238.42
401.994	318.63
402.208	584.87
402.421	-60.24
402.635	-90.96
402.848	101.55
403.061	273.57
403.275	-80.72
403.488	-240.47
403.701	425.12
403.915	228.52
404.128	54.44
404.341	-230.23
404.555	251.05
404.768	36.01
404.981	15.53
405.195	-142.16
405.408	474.28
405.621	220.33
405.834	99.5
406.048	-230.23
406.261	425.12
406.474	480.42
406.687	-162.64
406.9	3.24
407.114	109.74
407.327	257.19
407.54	-297.81
407.753	-254.8
407.966	-166.74
408.179	249
408.392	-133.97
408.605	-256.85
408.819	169.13
409.032	259.24
409.245	-181.07
409.458	52.39
409.671	236.71
409.884	351.4
410.097	-242.51
410.31	48.3
410.523	240.81
410.736	138.41
410.949	-76.63
411.162	-183.12
411.375	496.8
411.588	296.1
411.801	7.34
412.014	-256.85
412.227	119.98
412.44	-33.62
412.653	-150.36
412.865	-31.57
413.078	365.73
413.291	318.63
413.504	17.58
413.717	-121.68
413.93	357.54
414.143	-76.63
414.356	-19.29
414.568	-336.72
414.781	251.05
414.994	238.76
415.207	31.91
415.42	3.24
415.632	357.54
415.845	601.25
416.058	-244.56
416.271	-201.55
416.483	95.4
416.696	617.63
416.909	-109.4
417.121	-168.79
417.334	242.85
417.547	504.99
417.759	-125.78
417.972	-160.59
418.185	-19.29
418.397	328.87
418.61	-119.64
418.823	-84.82
419.035	558.24
419.248	111.78
419.46	-2.9
419.673	-15.19
419.885	359.59
420.098	36.01
420.311	-140.12
420.523	-306
420.736	255.14
420.948	181.42
421.161	-138.07
421.373	-271.19
421.586	197.8
421.798	-11.09
422.01	-254.8
422.223	40.11
422.435	-29.52
422.648	267.43
422.86	-93.01
423.073	-129.88
423.285	435.36
423.497	-189.27
423.71	-158.55
423.922	-222.03
424.134	273.57
424.347	564.39
424.559	70.83
424.771	144.55
424.984	144.55
425.196	238.76
425.408	-236.37
425.621	-189.27
425.833	394.4
426.045	435.36
426.257	-146.26
426.47	-140.12
426.682	177.32
426.894	339.11
427.106	-90.96
427.318	76.97
427.531	-76.63
427.743	332.97
427.955	-117.59
428.167	375.97
428.379	251.05
428.591	122.02
428.804	33.96
429.016	-136.02
429.228	103.59
429.44	316.58
429.652	97.45
429.864	-213.84
430.076	107.69
430.288	62.63
430.5	-0.85
430.712	27.82
430.924	398.5
431.136	240.81
431.348	-224.08
431.56	-105.3
431.772	181.42
431.984	44.2
432.196	-131.92
432.408	-82.77
432.62	56.49
432.832	205.99
433.044	152.74
433.256	107.69
433.468	339.11
433.679	-105.3
433.891	-203.6
434.103	158.89
434.315	486.56
434.527	316.58
434.739	93.35
434.95	-9.05
435.162	361.64
435.374	70.83
435.586	-60.24
435.798	-78.68
436.009	-7
436.221	201.9
436.433	-86.87
436.645	-39.76
436.856	130.22
437.068	545.95
437.28	-101.2
437.491	271.53
437.703	316.58
437.915	314.53
438.126	-33.62
438.338	230.57
438.55	122.02
438.761	398.5
438.973	9.39
439.184	-19.29
439.396	167.08
439.608	408.74
439.819	-136.02
440.031	70.83
440.242	363.69
440.454	412.84
440.665	-9.05
440.877	76.97
441.088	316.58
441.3	218.28
441.511	-129.88
441.723	-9.05
441.934	353.45
442.146	171.18
442.357	128.17
442.569	322.73
442.78	300.2
442.991	625.83
443.203	304.29
443.414	-117.59
443.626	564.39
443.837	107.69
444.048	-23.38
444.26	-138.07
444.471	308.39
444.682	386.21
444.894	-123.73
445.105	-156.5
445.316	404.64
445.528	414.88
445.739	134.31
445.95	97.45
446.161	257.19
446.373	416.93
446.584	83.11
446.795	15.53
447.006	496.8
447.217	627.87
447.429	-189.27
447.64	-43.86
447.851	586.91
448.062	375.97
448.273	-142.16
448.484	-56.15
448.695	392.36
448.907	208.04
449.118	109.74
449.329	197.8
449.54	162.98
449.751	38.06
449.962	29.87
450.173	36.01
450.384	533.67
450.595	646.3
450.806	46.25
451.017	83.11
451.228	701.6
451.439	560.29
451.65	111.78
451.861	-125.78
452.072	103.59
452.283	273.57
452.494	279.72
452.705	-7
452.915	728.22
453.126	390.31
453.337	122.02
453.548	29.87
453.759	552.1
453.97	765.09
454.181	390.31
454.391	103.59
454.602	400.55
454.813	466.08
455.024	240.81
455.235	66.73
455.445	457.89
455.656	394.4
455.867	289.96
456.078	52.39
456.288	208.04
456.499	429.22
456.71	103.59
456.921	431.27
457.131	435.36
457.342	392.36
457.553	197.8
457.763	195.75
457.974	543.91
458.184	611.49
458.395	31.91
458.606	-13.14
458.816	709.79
459.027	787.61
459.237	304.29
459.448	3.24
459.659	603.3
459.869	865.44
460.08	-21.33
460.29	310.44
460.501	949.4
460.711	234.66
460.922	72.87
461.132	115.88
461.343	1086.62
461.553	136.36
461.764	203.94
461.974	191.66
462.184	611.49
462.395	613.54
462.605	234.66
462.816	173.22
463.026	572.58
463.236	791.71
463.447	148.65
463.657	218.28
463.867	758.94
464.078	441.51
464.288	287.91
464.498	253.09
464.709	490.66
464.919	466.08
465.129	369.83
465.339	224.42
465.55	584.87
465.76	693.41
465.97	265.38
466.18	234.66
466.391	670.88
466.601	640.16
466.811	351.4
467.021	171.18
467.231	611.49
467.441	844.96
467.651	412.84
467.862	158.89
468.072	644.26
468.282	922.78
468.492	367.78
468.702	439.46
468.912	634.02
469.122	1250.46
469.332	576.67
469.542	353.45
469.752	828.57
469.962	711.84
470.172	367.78
470.382	304.29
470.592	851.1
470.802	1016.99
471.012	550.05
471.222	443.56
471.432	1006.75
471.642	900.25
471.852	584.87
472.062	535.71
472.272	703.65
472.482	453.8
472.691	421.03
472.901	406.69
473.111	787.61
473.321	1367.19
473.531	437.41
473.741	623.78
473.95	1016.99
474.16	871.58
474.37	654.5
474.58	560.29
474.79	1348.76
474.999	1078.43
475.209	531.62
475.419	709.79
475.628	820.38
475.838	1162.39
476.048	810.14
476.258	607.39
476.467	1295.51
476.677	824.48
476.886	838.81
477.096	730.27
477.306	791.71
477.515	1307.8
477.725	812.19
477.935	777.37
478.144	1363.09
478.354	930.97
478.563	849.05
478.773	783.52
478.982	1201.3
479.192	1356.95
479.401	982.17
479.611	652.45
479.82	947.36
480.03	1172.63
480.239	857.25
480.449	851.1
480.658	1582.23
480.868	1090.71
481.077	1086.62
481.287	898.2
481.496	1256.6
481.705	1553.55
481.915	1252.5
482.124	1281.18
482.333	1264.79
482.543	1684.62
482.752	1127.58
482.961	1057.95
483.171	1569.94
483.38	1221.78
483.589	1156.25
483.799	1004.7
484.008	1246.36
484.217	1533.08
484.426	1186.97
484.636	1078.43
484.845	1406.1
485.054	1086.62
485.263	1531.03
485.472	1301.65
485.682	1842.32
485.891	1520.79
486.1	996.51
486.309	1143.96
486.518	1643.67
486.727	1891.47
486.936	1129.63
487.146	1354.9
487.355	1856.65
487.564	1406.1
487.773	1377.43
487.982	1367.19
488.191	1522.84
488.4	1701.01
488.609	1408.15
488.818	1399.96
489.027	2251.91
489.236	2106.51
489.445	1539.22
489.654	1383.57
489.863	2073.74
490.072	1807.5
490.281	1758.35
490.49	1516.69
490.698	2155.66
490.907	2268.3
491.116	1717.39
491.325	1463.44
491.534	2208.9
491.743	1946.76
491.952	1741.97
492.16	1655.95
492.369	2083.98
492.578	2155.66
492.787	1719.44
492.996	1586.32
493.204	1866.89
493.413	2385.03
493.622	1422.48
493.831	1617.04
494.039	2423.94
494.248	1703.06
494.457	1793.17
494.665	1635.47
494.874	2233.48
495.083	2561.16
495.291	1815.69
495.5	1809.55
495.709	2309.26
495.917	2126.99
496.126	2012.3
496.335	1848.46
496.543	2073.74
496.752	2167.95
496.96	2227.34
497.169	1909.9
497.377	2256.01
497.586	2473.09
497.794	2114.7
498.003	1836.17
498.211	2126.99
498.42	2651.27
498.628	2086.03
498.837	1926.29
499.045	2372.74
499.254	2469
499.462	2102.41
499.671	2077.83
499.879	2776.19
500.087	2710.66
500.296	2096.27
500.504	2192.52
500.713	2497.67
500.921	2964.61
501.129	2200.71
501.338	2069.64
501.546	2628.74
501.754	2612.35
501.962	2313.35
502.171	2172.04
502.379	2757.76
502.587	2985.09
502.795	2348.17
503.004	2280.58
503.212	2565.25
503.42	3011.71
503.628	2354.31
503.837	2385.03
504.045	2716.8
504.253	3079.29
504.461	2292.87
504.669	2241.67
504.877	2958.46
505.085	3093.63
505.294	2315.4
505.502	2727.04
505.71	2854.02
505.918	2923.65
506.126	2339.97
506.334	2516.1
506.542	2790.53
506.75	2927.74
506.958	2636.93
507.166	2694.27
507.374	2722.95
507.582	3300.47
507.79	2757.76
507.998	2512
508.206	2989.18
508.414	2999.42
508.622	2665.6
508.83	2710.66
509.037	3247.23
509.245	2790.53
509.453	2538.63
509.661	2565.25
509.869	3339.38
510.077	2942.08
510.285	2901.12
510.492	2450.57
510.7	3740.79
510.908	3101.82
511.116	2684.03
511.324	2782.34
511.531	3095.68
511.739	3054.72
511.947	2999.42
512.155	3214.46
512.362	3159.16
512.57	2780.29
512.778	2890.88
512.985	2712.71
513.193	3431.54
513.401	3650.67
513.608	3015.8
513.816	2839.68
514.024	3353.72
514.231	3736.69
514.439	2944.13
514.646	2929.79
514.854	3570.8
515.061	3542.13
515.269	3081.34
515.477	3191.93
515.684	3226.75
515.892	3433.59
516.099	3013.76
516.307	3077.24
516.514	3679.35
516.722	3777.65
516.929	3136.63
517.136	3218.55
517.344	3820.66
517.551	3513.46
517.759	3411.06
517.966	3183.74
518.173	3388.53
518.381	3611.76
518.588	3413.11
518.796	3216.51
519.003	3878
519.21	3609.72
519.418	3124.35
519.625	3658.87
519.832	3634.29
520.039	3716.21
520.247	3118.2
520.454	3511.41
520.661	3978.35
520.868	3660.91
521.076	3404.92
521.283	3624.05
521.49	4306.02
521.697	3855.47
521.904	3560.56
522.112	3572.85
522.319	4076.65
522.526	3935.34
522.733	3480.69
522.94	3417.21
523.147	3841.14
523.354	4056.17
523.561	3435.64
523.768	3648.63
523.975	4162.67
524.183	3986.54
524.39	3710.07
524.597	3560.56
524.804	3875.95
525.011	3732.59
525.218	3730.55
525.425	3687.54
525.632	4451.43
525.838	3988.59
526.045	3765.36
526.252	3718.26
526.459	5282.91
526.666	4963.42
526.873	3914.86
527.08	3841.14
527.287	4521.06
527.494	4260.97
527.701	3785.84
527.907	3863.66
528.114	4445.29
528.321	4293.74
528.528	4060.27
528.735	3982.45
528.941	4267.11
529.148	4125.8
529.355	4142.19
529.562	3955.82
529.768	4822.11
529.975	4209.77
530.182	4226.15
530.388	4047.98
530.595	4678.76
530.802	4015.21
531.008	4138.09
531.215	4226.15
531.422	4867.17
531.628	5387.35
531.835	4342.89
532.042	4195.43
532.248	4418.66
532.455	4772.96
532.661	4523.11
532.868	4285.55
533.074	4684.9
533.281	4727.91
533.487	4533.35
533.694	4273.26
533.9	4433
534.107	4772.96
534.313	4400.23
534.52	4285.55
534.726	5033.05
534.933	5082.21
535.139	4281.45
535.345	4279.4
535.552	4957.28
535.758	4994.14
535.965	4539.49
536.171	4746.34
536.377	5010.53
536.584	5354.58
536.79	4633.7
536.996	4654.18
537.203	4938.85
537.409	4998.24
537.615	4871.26
537.821	4662.37
538.028	5241.95
538.234	5252.19
538.44	4811.87
538.646	4856.93
538.853	5250.14
539.059	5022.81
539.265	5190.75
539.471	4748.39
539.677	5454.94
539.883	5061.73
540.09	4879.46
540.296	5502.04
540.502	5399.64
540.708	5145.69
540.914	5151.84
541.12	5014.62
541.326	5495.89
541.532	5471.32
541.738	5287
541.944	5129.31
542.15	5702.74
542.356	5387.35
542.562	5067.87
542.768	5241.95
542.974	5997.65
543.18	5991.5
543.386	5104.73
543.592	4969.57
543.798	5964.88
544.004	5772.37
544.21	5368.92
544.415	5543
544.621	5694.55
544.827	5905.49
545.033	5080.16
545.239	5678.16
545.445	5551.19
545.651	5794.9
545.856	5678.16
546.062	5483.61
546.268	5571.67
546.474	5833.81
546.679	5362.78
546.885	5573.72
547.091	5733.46
547.297	6120.53
547.502	5555.29
547.708	5465.18
547.914	5598.29
548.119	6016.08
548.325	5506.13
548.531	5264.47
548.736	6341.71
548.942	5700.69
549.147	5502.04
549.353	5993.55
549.559	6390.86
549.764	6007.89
549.97	5776.47
550.175	5733.46
550.381	6247.5
550.586	5768.27
550.792	5989.46
550.997	5872.72
551.203	6308.94
551.408	6294.6
551.614	5624.92
551.819	5880.91
552.025	6716.48
552.23	6790.21
552.435	5876.82
552.641	6181.96
552.846	6118.48
553.052	6876.23
553.257	6368.33
553.462	6081.61
553.668	6188.11
553.873	6626.37
554.078	6001.74
554.283	6290.51
554.489	6530.12
554.694	6605.89
554.899	6165.58
555.105	6356.04
555.31	6665.28
555.515	6759.49
555.72	6483.02
555.925	6081.61
556.131	6788.16
556.336	6450.25
556.541	6239.31
556.746	6313.03
556.951	7015.49
557.156	7015.49
557.361	6448.2
557.567	6726.72
557.772	7181.37
557.977	6822.98
558.182	6542.41
558.387	6480.97
558.592	6704.2
558.797	7289.92
559.002	6476.87
559.207	6845.51
559.412	6943.81
559.617	7357.5
559.822	6560.84
560.027	6523.98
560.232	7040.06
560.437	7126.08
560.642	6575.17
560.847	6788.16
561.051	6939.71
561.256	7078.97
561.461	6792.26
561.666	6642.76
561.871	6992.96
562.076	7199.8
562.281	6765.64
562.485	6722.63
562.69	7468.09
562.895	7308.35
563.1	6741.06
563.305	6718.53
563.509	7433.27
563.714	7853.11
563.919	7164.99
564.123	6878.27
564.328	7281.72
564.533	7564.34
564.737	6968.38
564.942	7144.51
565.147	7795.76
565.351	7867.44
565.556	7154.75
565.761	7175.23
565.965	7535.67
566.17	7271.48
566.374	7185.47
566.579	7083.07
566.784	7427.13
566.988	7308.35
567.193	6980.67
567.397	7222.33
567.602	7240.76
567.806	7494.71
568.011	7242.81
568.215	7457.85
568.42	7601.21
568.624	7599.16
568.828	7369.79
569.033	7449.66
569.237	7996.46
569.442	7726.13
569.646	7314.49
569.85	7519.29
570.055	7826.48
570.259	7859.25
570.463	7732.28
570.668	7414.84
570.872	7674.93
571.076	7795.76
571.281	7646.26
571.485	7771.19
571.689	7859.25
571.893	8176.69
572.098	7849.01
572.302	7715.89
572.506	8133.68
572.71	8121.39
572.914	7726.13
573.119	7724.08
573.323	8391.72
573.527	8348.72
573.731	7756.85
573.935	7781.43
574.139	8123.44
574.343	8023.09
574.547	7869.49
574.751	8074.29
574.955	8416.3
575.159	8612.9
575.364	7722.04
575.568	7781.43
575.772	8055.86
575.976	8522.79
576.18	7924.79
576.383	7898.16
576.587	8526.89
576.791	8442.92
576.995	7832.63
577.199	8246.32
577.403	8594.47
577.607	8569.9
577.811	8088.62
578.015	8348.72
578.219	8612.9
578.422	8791.08
578.626	8262.7
578.83	8389.67
579.034	8893.47
579.238	8596.52
579.442	8258.6
579.645	8713.25
579.849	8854.56
580.053	8829.99
580.257	8444.97
580.46	8502.31
580.664	9090.08
580.868	9008.16
581.071	8746.02
581.275	8604.71
581.479	8365.1
581.682	8963.11
581.886	8578.09
582.09	8451.11
582.293	9217.05
582.497	9196.57
582.7	8743.97
582.904	8610.86
583.107	9077.79
583.311	8819.75
583.515	8727.59
583.718	8772.64
583.922	9135.14
584.125	9559.06
584.329	8793.12
584.532	8934.43
584.735	9522.2
584.939	9344.03
585.142	8926.24
585.346	8897.57
585.549	9368.6
585.753	8924.19
585.956	8987.68
586.159	9085.98
586.363	9696.28
586.566	9473.05
586.769	9040.93
586.973	9057.31
587.176	9604.12
587.379	9720.85
587.582	9501.72
587.786	9245.73
587.989	9303.07
588.192	10116.11
588.395	9366.56
588.599	9540.63
588.802	9665.56
589.005	9657.37
589.208	9090.08
589.411	9290.78
589.615	9942.03
589.818	10112.02
590.021	9481.24
590.224	9581.59
590.427	9929.75
590.63	9810.96
590.833	9452.57
591.036	9436.19
591.239	9948.18
591.442	9638.94
591.645	9860.12
591.848	9655.32
592.051	9937.94
592.254	10310.67
592.457	9651.22
592.66	9600.02
592.863	10032.15
593.066	10109.97
593.269	9483.29
593.472	9909.27
593.675	10060.82
593.878	10372.11
594.081	9847.83
594.284	9794.58
594.486	10247.18
594.689	10314.77
594.892	10165.26
595.095	10109.97
595.298	10640.39
595.5	10167.31
595.703	10300.43
595.906	10265.61
596.109	10761.22
596.311	10724.36
596.514	9851.92
596.717	10204.17
596.92	10628.1
597.122	10640.39
597.325	9909.27
597.528	10228.75
597.73	10714.12
597.933	10458.12
598.136	10271.76
598.338	10175.5
598.541	10800.13
598.743	10847.24
598.946	10378.25
599.148	10468.36
599.351	11019.27
599.554	11084.8
599.756	10529.8
599.959	10454.03
600.161	11140.1
600.363	11314.17
600.566	10593.29
600.768	10441.74
600.971	11017.22
601.173	11150.34
601.376	10707.98
601.578	10552.33
601.78	11152.38
601.983	11578.36
602.185	10589.19
602.388	10845.19
602.59	11224.06
602.792	10943.49
602.995	10834.95
603.197	10726.41
603.399	11543.55
603.601	11193.34
603.804	10970.12
604.006	10826.76
604.208	10959.88
604.41	10685.45
604.613	11062.27
604.815	10832.9
605.017	11600.89
605.219	11062.27
605.421	11142.14
605.623	10765.32
605.826	11762.68
606.028	11772.92
606.23	11123.71
606.432	11017.22
606.634	12022.77
606.836	11379.71
607.038	10789.89
607.24	11138.05
607.442	11455.48
607.644	11623.42
607.846	11365.37
608.048	11015.17
608.25	11660.28
608.452	11299.84
608.654	11240.45
608.856	11015.17
609.058	11467.77
609.26	11719.67
609.462	11326.46
609.664	11361.28
609.866	11942.9
610.067	11840.5
610.269	11551.74
610.471	11545.59
610.673	11373.57
610.875	11897.85
611.077	11267.07
611.278	11621.37
611.48	11555.83
611.682	12207.09
611.884	11619.32
612.085	11510.78
612.287	11486.2
612.489	11912.18
612.69	11394.04
612.892	11623.42
613.094	12229.62
613.295	11977.72
613.497	11789.3
613.699	11744.25
613.9	12364.78
614.102	12286.96
614.304	11594.75
614.505	11342.85
614.707	11867.13
614.908	11903.99
615.11	11500.54
615.311	11650.04
615.513	12088.31
615.714	12389.36
615.916	11566.07
616.117	11783.16
616.319	11744.25
616.52	12309.49
616.722	11920.37
616.923	11783.16
617.124	12362.73
617.326	12289.01
617.527	11822.07
617.729	12205.04
617.93	12379.12
618.131	12588.01
618.333	11924.47
618.534	12059.63
618.735	11813.88
618.937	12508.14
619.138	11959.28
619.339	11770.87
619.54	12504.04
619.742	12268.53
619.943	12418.03
620.144	12133.36
620.345	12667.88
620.546	12458.99
620.748	12071.92
620.949	12168.18
621.15	12211.18
621.351	12608.49
621.552	12170.22
621.753	11990
621.954	12303.34
622.155	12854.25
622.356	12182.51
622.558	12405.74
622.759	12313.58
622.96	12788.71
623.161	12329.97
623.362	12375.02
623.563	12499.95
623.764	12596.2
623.965	12495.85
624.166	12508.14
624.366	12438.51
624.567	12606.44
624.768	12219.38
624.969	12418.03
625.17	12420.08
625.371	12915.69
625.572	12530.67
625.773	12207.09
625.973	13067.24
626.174	13005.8
626.375	12667.88
626.576	12731.37
626.777	13011.94
626.977	13329.38
627.178	12719.08
627.379	12729.32
627.58	12712.94
627.78	12934.12
627.981	12618.73
628.182	12757.99
628.382	13259.74
628.583	12852.2
628.784	12469.23
628.984	12866.53
629.185	13366.24
629.386	13247.46
629.586	12878.82
629.787	12622.83
629.987	13210.59
630.188	13171.68
630.388	12917.73
630.589	12856.29
630.79	13898.71
630.99	13278.18
631.191	12997.6
631.391	13423.58
631.591	13304.8
631.792	13560.8
631.992	13073.38
632.193	13153.25
632.393	13624.28
632.594	13468.64
632.794	13188.07
632.994	13495.26
633.195	13388.77
633.395	13474.78
633.595	13026.28
633.796	13157.35
633.996	13376.48
634.196	13954.01
634.397	13222.88
634.597	13143.01
634.797	13310.94
634.997	13855.7
635.198	13548.51
635.398	13276.13
635.598	13800.41
635.798	13853.66
635.998	13583.32
636.199	13050.85
636.399	13341.66
636.599	13657.05
636.799	13382.62
636.999	13611.99
637.199	13738.97
637.399	13810.65
637.599	13386.72
637.799	13415.39
637.999	13757.4
638.199	14197.71
638.399	13405.15
638.599	13712.35
638.799	14021.59
638.999	14418.89
639.199	13812.7
639.399	13665.24
639.599	14316.5
639.799	13734.87
639.999	13720.54
640.199	13607.9
640.399	13935.57
640.599	13743.06
640.799	14042.07
640.998	13751.26
641.198	14089.17
641.398	13917.14
641.598	13982.68
641.798	13931.48
641.997	15129.54
642.197	14054.36
642.397	14050.26
642.597	13992.92
642.796	14599.12
642.996	14470.09
643.196	14175.19
643.395	13876.18
643.595	14253.01
643.795	13802.46
643.994	14058.45
644.194	14087.12
644.394	14506.96
644.593	14468.05
644.793	13906.9
644.992	14322.64
645.192	14613.45
645.392	13906.9
645.591	14357.46
645.791	14058.45
645.99	14619.6
646.19	14572.49
646.389	14349.26
646.589	14316.5
646.788	14445.52
646.987	14767.05
647.187	14627.79
647.386	14672.84
647.586	14840.78
647.785	14769.1
647.984	14470.09
648.184	14730.19
648.383	14703.56
648.582	14666.7
648.782	14609.36
648.981	14672.84
649.18	14480.33
649.38	14902.22
649.579	14341.07
649.778	14713.8
649.977	15131.59
650.177	14619.6
650.376	14592.97
650.575	14533.58
650.774	15363.01
650.973	14762.95
651.173	14390.22
651.372	14650.32
651.571	14904.26
651.77	15098.82
651.969	14662.6
652.168	14705.61
652.367	14709.71
652.566	15041.48
652.765	14844.87
652.964	15231.94
653.163	15682.49
653.362	14842.82
653.561	14785.48
653.76	14693.32
653.959	15008.71
654.158	15152.07
654.357	15129.54
654.556	14857.16
654.755	15535.04
654.954	15225.79
655.153	14889.93
655.352	15193.03
655.551	15487.93
655.749	15055.81
655.948	15119.3
656.147	15229.89
656.346	15301.57
656.545	15276.99
656.743	15150.02
656.942	15305.67
657.141	15375.3
657.34	15113.16
657.538	15190.98
657.737	14992.33
657.936	15406.02
658.135	15700.92
658.333	15338.43
658.532	15401.92
658.731	15918.01
658.929	15633.34
659.128	15432.64
659.326	15348.67
659.525	15930.3
659.724	15508.41
659.922	15086.53
660.121	15195.07
660.319	15485.89
660.518	15340.48
660.716	15121.35
660.915	15481.79
661.113	15913.91
661.312	15528.89
661.51	15520.7
661.709	15438.78
661.907	15756.22
662.105	16247.73
662.304	15696.83
662.502	15621.05
662.701	15963.06
662.899	15692.73
663.097	15541.18
663.296	15563.71
663.494	16077.75
663.692	15715.26
663.891	15510.46
664.089	15391.68
664.287	16044.98
664.485	15932.34
664.684	15690.68
664.882	15631.29
665.08	15713.21
665.278	15764.41
665.476	15657.92
665.675	15619
665.873	16556.97
666.071	16432.05
666.269	15641.53
666.467	15782.84
666.665	16016.31
666.863	15727.55
667.061	15926.2
667.259	15748.03
667.457	16133.04
667.655	16120.76
667.853	15741.88
668.051	16024.5
668.249	15858.62
668.447	16128.95
668.645	15682.49
668.843	15948.73
669.041	16354.23
669.239	16012.21
669.437	16067.51
669.635	15911.86
669.833	15745.98
670.031	16188.34
670.229	15993.78
670.426	15860.66
670.624	15694.78
670.822	15709.11
671.02	15872.95
671.218	15877.05
671.415	15750.07
671.613	16096.18
671.811	15954.87
672.009	16040.89
672.206	16597.93
672.404	16210.87
672.602	16092.09
672.799	15965.11
672.997	16370.61
673.195	16341.94
673.392	16143.28
673.59	15666.11
673.788	16219.06
673.985	15670.2
674.183	16051.13
674.38	15854.52
674.578	16507.82
674.775	15918.01
674.973	15860.66
675.17	16225.2
675.368	16473.01
675.565	16329.65
675.763	16077.75
675.96	15983.54
676.158	16688.04
676.355	16049.08
676.553	16055.22
676.75	15924.15
676.947	16366.51
677.145	16030.65
677.342	16208.82
677.539	15891.38
677.737	16171.96
677.934	16653.23
678.131	16350.13
678.329	16143.28
678.526	16651.18
678.723	16532.4
678.92	16208.82
679.118	16313.27
679.315	16044.98
679.512	16434.1
679.709	16305.07
679.906	16202.68
680.104	16733.1
680.301	16495.53
680.498	16026.55
680.695	16053.17
680.892	16229.3
681.089	16110.52
681.286	16233.39
681.483	15975.35
681.68	16479.15
681.877	16622.51
682.075	16282.55
682.272	16350.13
682.469	16683.95
682.665	16260.02
682.862	16153.52
683.059	16028.6
683.256	16425.9
683.453	16606.13
683.65	15989.69
683.847	16169.91
684.044	16278.45
684.241	16405.42
684.438	16421.81
684.635	15834.04
684.831	16726.96
685.028	16788.39
685.225	16085.94
685.422	16333.75
685.619	16219.06
685.815	16454.58
686.012	16221.11
686.209	15922.1
686.405	16280.5
686.602	16663.47
686.799	16077.75
686.996	15967.16
687.192	15911.86
687.389	16956.33
687.586	15952.82
687.782	16065.46
687.979	17075.11
688.175	16569.26
688.372	16225.2
688.568	16372.66
688.765	16077.75
688.962	16790.44
689.158	16354.23
689.355	16204.72
689.551	16341.94
689.748	16235.44
689.944	16153.52
690.14	15877.05
690.337	16759.72
690.533	16536.49
690.73	16350.13
690.926	16532.4
691.123	16497.58
691.319	16436.14
691.515	15965.11
691.712	16118.71
691.908	16370.61
692.104	16604.08
692.301	16376.75
692.497	16139.19
692.693	16573.36
692.889	16671.66
693.086	16276.4
693.282	15911.86
693.478	16331.7
693.674	16786.35
693.87	16395.18
694.067	16108.47
694.263	16554.93
694.459	16300.98
694.655	16305.07
694.851	16659.37
695.047	16946.09
695.243	16712.62
695.439	16280.5
695.635	16114.61
695.831	16692.14
696.027	16516.01
696.224	16194.48
696.42	16473.01
696.615	17021.86
696.811	16561.07
697.007	16073.65
697.203	16288.69
697.399	16495.53
697.595	16708.52
697.791	16128.95
697.987	16311.22
698.183	16180.15
698.379	16118.71
698.575	16356.27
698.77	16212.92
698.966	16503.73
699.162	16931.75
699.358	16268.21
699.554	16384.94
699.749	16532.4
699.945	17040.29
700.141	16012.21
700.337	16192.44
700.532	16260.02
700.728	16221.11
700.924	16274.35
701.119	16161.72
701.315	16489.39
701.511	16372.66
701.706	16352.18
701.902	15696.83
702.097	16196.53
702.293	16483.25
702.489	16264.11
702.684	16231.35
702.88	16339.89
703.075	16427.95
703.271	16282.55
703.466	15909.82
703.662	16534.45
703.857	16503.73
704.053	16403.38
704.248	16264.11
704.443	16878.51
704.639	16772.01
704.834	16317.36
705.03	16233.39
705.225	16769.96
705.42	16640.94
705.616	16642.99
705.811	15969.21
706.006	16495.53
706.202	16602.03
706.397	16192.44
706.592	16092.09
706.787	16516.01
706.983	16305.07
707.178	16554.93
707.373	16389.04
707.568	16649.13
707.763	16831.4
707.959	16210.87
708.154	16386.99
708.349	16577.45
708.544	16593.84
708.739	16427.95
708.934	16106.42
709.129	16788.39
709.324	16618.41
709.519	16225.2
709.714	16237.49
709.909	17095.59
710.104	16677.8
710.299	15987.64
710.494	16495.53
710.689	16921.51
710.884	16407.47
711.079	16554.93
711.274	16700.33
711.469	16858.03
711.664	16663.47
711.859	16411.57
712.054	16548.78
712.249	16757.67
712.443	17019.81
712.638	16116.66
712.833	16223.16
713.028	16272.31
713.223	16184.24
713.417	16673.71
713.612	16255.92
713.807	16645.04
714.002	17075.11
714.196	16610.22
714.391	16159.67
714.586	16772.01
714.78	16147.38
714.975	16212.92
715.17	15975.35
715.364	16346.03
715.559	16772.01
715.754	15891.38
715.948	16174
716.143	16849.83
716.337	16475.06
716.532	16688.04
716.726	16350.13
716.921	16485.3
717.115	16796.59
717.31	16159.67
717.504	16665.52
717.699	16380.85
717.893	16778.15
718.088	15918.01
718.282	16307.12
718.476	16237.49
718.671	16112.56
718.865	15922.1
719.059	15831.99
719.254	16298.93
719.448	16919.46
719.642	17351.59
719.837	15868.86
720.031	16503.73
720.225	16552.88
720.419	16171.96
720.614	15987.64
720.808	16583.6
721.002	16372.66
721.196	15870.9
721.39	16026.55
721.585	16417.71
721.779	16389.04
721.973	16208.82
722.167	15870.9
722.361	16126.9
722.555	16460.72
722.749	15795.13
722.943	15926.2
723.137	15868.86
723.331	16327.6
723.525	15780.79
723.719	15879.1
723.913	16532.4
724.107	16440.24
724.301	15922.1
724.495	15967.16
724.689	16784.3
724.883	16335.79
725.077	16227.25
725.271	16110.52
725.465	16731.05
725.659	16448.43
725.853	15934.39
726.046	15936.44
726.24	16147.38
726.434	16466.86
726.628	15987.64
726.822	16016.31
727.015	16540.59
727.209	16659.37
727.403	16208.82
727.596	16001.97
727.79	16389.04
727.984	16552.88
728.177	16151.48
728.371	16149.43
728.565	16532.4
728.758	16210.87
728.952	15690.68
729.146	15999.93
729.339	16632.75
729.533	16419.76
729.726	16032.69
729.92	15803.32
730.113	16524.21
730.307	16382.9
730.5	15805.37
730.694	16028.6
730.887	16247.73
731.081	16638.89
731.274	15913.91
731.468	16044.98
731.661	16110.52
731.854	16257.97
732.048	15889.34
732.241	16061.37
732.435	15991.73
732.628	16526.25
732.821	16323.51
733.014	15975.35
733.208	16440.24
733.401	16481.2
733.594	15870.9
733.788	15907.77
733.981	16589.74
734.174	16206.77
734.367	16112.56
734.56	16102.32
734.754	16493.49
734.947	16505.77
735.14	16339.89
735.333	16116.66
735.526	16868.27
735.719	16219.06
735.912	16161.72
736.105	15784.89
736.298	16536.49
736.491	16368.56
736.684	15981.49
736.877	16386.99
737.07	16542.64
737.263	16763.82
737.456	16225.2
737.649	16145.33
737.842	16327.6
738.035	16378.8
738.228	16057.27
738.421	16409.52
738.614	16812.97
738.807	16653.23
739	15991.73
739.192	15797.18
739.385	16343.99
739.578	16481.2
739.771	16466.86
739.964	16157.62
740.156	16448.43
740.349	16233.39
740.542	16401.33
740.735	15999.93
740.927	15819.71
741.12	16004.02
741.313	15875
741.505	16343.99
741.698	16442.29
741.891	16507.82
742.083	16335.79
742.276	16112.56
742.468	16249.78
742.661	16470.96
742.854	16303.03
743.046	15922.1
743.239	16808.87
743.431	16446.38
743.624	16278.45
743.816	15872.95
744.009	16372.66
744.201	16534.45
744.393	16497.58
744.586	16184.24
744.778	16593.84
744.971	16288.69
745.163	16178.1
745.355	16348.08
745.548	16415.66
745.74	16356.27
745.932	16495.53
746.125	16110.52
746.317	17169.32
746.509	16378.8
746.702	16182.2
746.894	16139.19
747.086	16487.34
747.278	16749.48
747.471	16001.97
747.663	16092.09
747.855	16464.82
748.047	16741.29
748.239	15995.83
748.431	16044.98
748.623	16665.52
748.815	16526.25
749.008	16196.53
749.2	16065.46
749.392	16569.26
749.584	16382.9
749.776	16350.13
749.968	16212.92
750.16	16671.66
750.352	16128.95
750.544	16094.13
750.736	15963.06
750.928	16331.7
751.12	16399.28
751.311	16165.81
751.503	16329.65
751.695	16239.54
751.887	16128.95
752.079	15793.08
752.271	15885.24
752.463	17148.84
752.654	16495.53
752.846	16049.08
753.038	15872.95
753.23	15983.54
753.421	16450.48
753.613	15983.54
753.805	16143.28
753.997	16384.94
754.188	16430
754.38	15930.3
754.572	15999.93
754.763	16098.23
754.955	16036.79
755.146	15803.32
755.338	15967.16
755.53	16106.42
755.721	15913.91
755.913	15758.27
756.104	15619
756.296	16024.5
756.487	16229.3
756.679	15694.78
756.87	15848.38
757.062	15788.99
757.253	16227.25
757.445	15612.86
757.636	16214.96
757.827	16174
758.019	16475.06
758.21	15901.62
758.401	15731.64
758.593	16628.65
758.784	16229.3
758.975	15301.57
759.167	15518.65
759.358	16085.94
759.549	16159.67
759.74	15719.35
759.932	15489.98
760.123	16032.69
760.314	15782.84
760.505	15594.43
760.696	15588.28
760.888	16374.7
761.079	15811.51
761.27	15723.45
761.461	15299.52
761.652	16229.3
761.843	15547.33
762.034	15741.88
762.225	15690.68
762.416	15834.04
762.607	15514.56
762.798	15739.83
762.989	15416.26
763.18	16726.96
763.371	15514.56
763.562	15266.75
763.753	15514.56
763.944	15979.45
764.135	15913.91
764.326	15725.5
764.517	15365.06
764.708	15827.9
764.899	15582.14
765.089	15354.82
765.28	15348.67
765.471	15489.98
765.662	15496.13
765.853	15350.72
766.043	14879.69
766.234	15729.59
766.425	15637.44
766.615	15301.57
766.806	15305.67
766.997	15831.99
767.187	15600.57
767.378	15156.16
767.569	14961.61
767.759	15614.91
767.95	15553.47
768.141	15315.9
768.331	14967.75
768.522	15471.55
768.712	15666.11
768.903	14971.85
769.093	14877.64
769.284	15473.6
769.474	15594.43
769.665	14840.78
769.855	14801.86
770.046	15498.17
770.236	15238.08
770.426	15279.04
770.617	14887.88
770.807	15254.47
770.998	15197.12
771.188	15346.62
771.378	14826.44
771.569	15707.07
771.759	15473.6
771.949	14773.19
772.139	15037.38
772.33	15258.56
772.52	15438.78
772.71	14859.21
772.9	14650.32
773.09	15578.04
773.281	15356.86
773.471	14638.03
773.661	14670.79
773.851	15270.85
774.041	14672.84
774.231	14824.39
774.421	15045.57
774.611	15334.34
774.802	14943.17
774.992	14676.94
775.182	14742.47
775.372	15012.81
775.562	15176.64
775.752	14709.71
775.942	14517.2
776.131	15094.72
776.321	15047.62
776.511	14592.97
776.701	14646.22
776.891	14937.03
777.081	14791.62
777.271	14672.84
777.461	14410.7
777.651	15023.05
777.84	15016.9
778.03	14566.35
778.22	14345.17
778.41	15088.58
778.599	14742.47
778.789	14597.07
778.979	14427.09
779.169	14697.42
779.358	14728.14
779.548	14771.15
779.738	14175.19
779.927	14556.11
780.117	14650.32
780.307	14498.77
780.496	14255.06
780.686	14818.25
780.875	15217.6
781.065	14404.56
781.254	14351.31
781.444	14394.32
781.633	15035.33
781.823	14285.78
782.012	14226.39
782.202	14310.35
782.391	14459.85
782.581	14091.22
782.77	14400.46
782.96	14631.88
783.149	14341.07
783.338	13863.9
783.528	14007.25
783.717	14775.24
783.906	14713.8
784.096	14236.63
784.285	14011.35
784.474	14210
784.663	14173.14
784.853	14138.32
785.042	14357.46
785.231	14177.23
785.42	14599.12
785.61	14121.94
785.799	13978.58
785.988	14253.01
786.177	14269.39
786.366	14037.97
786.555	14232.53
786.744	14451.66
786.933	14291.92
787.122	14005.2
787.312	14105.56
787.501	13972.44
787.69	14334.93
787.879	13992.92
788.068	13929.43
788.257	13972.44
788.445	14119.89
788.634	14054.36
788.823	13814.74
789.012	14521.29
789.201	14584.78
789.39	13849.56
789.579	13718.49
789.768	14267.34
789.957	14216.15
790.145	13915.09
790.334	13659.1
790.523	14054.36
790.712	13956.05
790.9	13763.54
791.089	13784.02
791.278	14330.83
791.467	13927.38
791.655	13796.31
791.844	14197.71
792.033	13751.26
792.221	13685.72
792.41	13536.22
792.599	13528.03
792.787	14162.9
792.976	14107.6
793.164	13437.92
793.353	13655
793.541	14343.12
793.73	14029.78
793.918	13718.49
794.107	13781.98
794.295	13698.01
794.484	13861.85
794.672	13784.02
794.861	13347.81
795.049	13806.55
795.238	14152.66
795.426	13542.36
795.614	13614.04
795.803	14109.65
795.991	13954.01
796.179	13368.29
796.368	13579.23
796.556	13919.19
796.744	13392.86
796.932	13595.61
797.121	13413.34
797.309	13659.1
797.497	13997.01
797.685	13358.05
797.874	13450.21
798.062	13759.45
798.25	13802.46
798.438	13464.54
798.626	13306.85
798.814	14056.4
799.002	14179.28
799.19	13605.85
799.378	13560.8
799.566	13929.43
799.755	13947.86
799.943	13706.2
800.131	13382.62
800.318	13730.78
800.506	13646.81
800.694	13566.94
800.882	13566.94
801.07	14121.94
801.258	13747.16
801.446	13603.8
801.634	13648.86
801.822	13657.05
802.01	13730.78
802.197	13644.76
802.385	13622.23
802.573	13962.2
802.761	13777.88
802.949	13501.4
803.136	13358.05
803.324	14189.52
803.512	13767.64
803.699	13536.22
803.887	13462.49
804.075	14181.33
804.262	13818.84
804.45	13454.3
804.638	13743.06
804.825	13493.21
805.013	13882.33
805.201	13796.31
805.388	13581.28
805.576	13933.53
805.763	14492.62
805.951	13671.39
806.138	14017.49
806.326	14513.1
806.513	14267.34
806.701	13792.22
806.888	13845.46
807.075	14435.28
807.263	14552.01
807.45	13915.09
807.638	14021.59
807.825	14728.14
808.012	14504.91
808.2	13673.43
808.387	14171.09
808.574	14123.99
808.761	14578.64
808.949	14009.3
809.136	13976.53
809.323	13972.44
809.51	14156.75
809.698	14066.64
809.885	14048.21
810.072	14345.17
810.259	14607.31
810.446	14048.21
810.633	14181.33
810.82	14750.67
811.008	14668.75
811.195	14070.74
811.382	13968.34
811.569	14373.84
811.756	14003.16
811.943	14140.37
812.13	14097.36
812.317	14355.41
812.504	14400.46
812.691	14437.33
812.878	14054.36
813.064	14627.79
813.251	14367.7
813.438	14146.51
813.625	14277.58
813.812	14431.18
813.999	14455.76
814.186	14179.28
814.372	14324.69
814.559	14345.17
814.746	14652.36
814.933	14027.73
815.12	14343.12
815.306	14240.72
815.493	14070.74
815.68	14226.39
815.866	14050.26
816.053	14709.71
816.24	14953.41
816.426	14539.72
816.613	13878.23
816.799	14836.68
816.986	14873.54
817.173	14285.78
817.359	13964.25
817.546	14255.06
817.732	14181.33
817.919	13925.33
818.105	14029.78
818.292	14154.71
818.478	14386.13
818.665	14289.87
818.851	14148.56
819.037	14934.98
819.224	14476.24
819.41	14005.2
819.597	14140.37
819.783	14756.81
819.969	14470.09
820.156	13986.77
820.342	14099.41
820.528	15182.79
820.714	14177.23
820.901	14283.73
821.087	14287.82
821.273	14828.49
821.459	14126.04
821.646	14128.08
821.832	13849.56
822.018	14390.22
822.204	14181.33
822.39	14013.4
822.576	14187.47
822.762	14232.53
822.948	14535.63
823.134	13915.09
823.32	13853.66
823.507	13960.15
823.693	14242.77
823.879	14085.08
824.065	13833.18
824.25	14242.77
824.436	13943.77
824.622	13812.7
824.808	13786.07
824.994	13882.33
825.18	13771.74
825.366	13734.87
825.552	13679.58
825.738	13945.81
825.923	14269.39
826.109	13880.28
826.295	13884.37
826.481	13671.39
826.667	13714.39
826.852	14087.12
827.038	13530.08
827.224	14185.43
827.409	14392.27
827.595	13736.92
827.781	13867.99
827.966	14210
828.152	13945.81
828.338	13683.67
828.523	13353.95
828.709	13898.71
828.894	14111.7
829.08	13706.2
829.266	13583.32
829.451	13702.11
829.637	13820.89
829.822	13495.26
830.008	13442.01
830.193	13788.12
830.378	14046.16
830.564	13597.66
830.749	13386.72
830.935	13814.74
831.12	13798.36
831.305	13536.22
831.491	13456.35
831.676	13358.05
831.861	13937.62
832.047	13452.25
832.232	13251.55
832.417	13786.07
832.602	13741.02
832.788	13050.85
832.973	13360.09
833.158	13489.12
833.343	13745.11
833.528	13364.19
833.714	13081.57
833.899	13769.69
834.084	14089.17
834.269	13564.89
834.454	13222.88
834.639	13708.25
834.824	13345.76
835.009	13239.26
835.194	13159.39
835.379	13521.88
835.564	13587.42
835.749	13134.82
835.934	12880.87
836.119	13519.84
836.304	13360.09
836.489	12973.03
836.674	13175.78
836.859	12952.55
837.044	13548.51
837.228	13038.56
837.413	12825.57
837.598	13577.18
837.783	13616.09
837.968	13224.93
838.152	12925.93
838.337	13028.32
838.522	13536.22
838.707	13784.02
838.891	13208.55
839.076	13276.13
839.261	13372.38
839.445	12846.05
839.63	12887.01
839.815	13384.67
839.999	12975.08
840.184	12712.94
840.368	12805.1
840.553	13198.31
840.737	13243.36
840.922	12692.46
841.106	12551.15
841.291	12700.65
841.475	13020.13
841.66	12831.72
841.844	12721.13
842.029	13558.75
842.213	12887.01
842.397	12678.12
842.582	12168.18
842.766	13415.39
842.951	13358.05
843.135	12790.76
843.319	12686.31
843.504	12876.77
843.688	13128.67
843.872	12534.76
844.056	12463.08
844.241	12698.6
844.425	12749.8
844.609	12700.65
844.793	12559.34
844.977	13077.48
845.161	13063.14
845.346	12436.46
845.53	12348.4
845.714	12788.71
845.898	13065.19
846.082	12151.79
846.266	12332.01
846.45	12522.48
846.634	12649.45
846.818	12039.15
847.002	12444.65
847.186	12803.05
847.37	12334.06
847.554	12254.19
847.738	12499.95
847.922	12526.57
848.106	12745.7
848.29	11965.43
848.473	12266.48
848.657	12622.83
848.841	12483.56
849.025	12219.38
849.209	12061.68
849.392	12731.37
849.576	12477.42
849.76	12123.12
849.944	12108.79
850.127	12682.22
850.311	12137.46
850.495	12018.68
850.678	12024.82
850.862	12571.63
851.046	12809.19
851.229	12424.17
851.413	12289.01
851.596	12258.29
851.78	12360.69
851.964	12192.75
852.147	12071.92
852.331	13013.99
852.514	12628.97
852.698	12119.03
852.881	11584.51
853.065	12356.59
853.248	12198.9
853.431	12014.58
853.615	11969.52
853.798	12745.7
853.982	12372.97
854.165	12114.93
854.348	11867.13
854.532	12061.68
854.715	12045.3
854.898	11738.1
855.081	11824.12
855.265	12458.99
855.448	12497.9
855.631	11647.99
855.814	11973.62
855.997	12346.35
856.181	12045.3
856.364	11750.39
856.547	11674.62
856.73	12043.25
856.913	11971.57
857.096	11510.78
857.279	11699.19
857.462	11742.2
857.645	12227.57
857.828	11725.82
858.011	11875.32
858.194	11797.49
858.377	11987.96
858.56	11523.07
858.743	11566.07
858.926	11332.61
859.109	11953.14
859.292	11334.65
859.475	11412.48
859.658	11998.2
859.841	11947
860.023	11461.63
860.206	11222.02
860.389	11680.76
860.572	11895.8
860.755	11228.16
860.937	11443.2
861.12	11637.75
861.303	11774.97
861.486	11353.09
861.668	11127.81
861.851	11774.97
862.034	11514.87
862.216	11492.35
862.399	10920.96
862.581	11633.66
862.764	11903.99
862.947	11232.26
863.129	10925.06
863.312	10927.11
863.494	11779.06
863.677	11244.54
863.859	11013.12
864.042	11273.21
864.224	11629.56
864.406	10943.49
864.589	10806.28
864.771	11324.41
864.954	11043.84
865.136	10966.02
865.318	10589.19
865.501	11277.31
865.683	10757.13
865.865	10818.57
866.048	10669.06
866.23	11109.38
866.412	10963.97
866.594	10583.05
866.777	10761.22
866.959	11219.97
867.141	10933.25
867.323	11095.04
867.505	10908.68
867.687	10996.74
867.869	11000.83
868.052	10775.56
868.234	10687.5
868.416	11013.12
868.598	11260.93
868.78	10683.4
868.962	10802.18
869.144	11269.12
869.326	11240.45
869.508	10687.5
869.69	11011.07
869.872	10888.2
870.054	11117.57
870.236	10476.55
870.417	10683.4
870.599	10804.23
870.781	11561.98
870.963	10703.88
871.145	10587.15
871.327	10609.67
871.508	10900.48
871.69	10720.26
871.872	10787.85
872.054	10841.09
872.235	10957.83
872.417	10693.64
872.599	10515.47
872.78	11338.75
872.962	11021.31
873.144	10486.79
873.325	10515.47
873.507	11437.05
873.689	10828.81
873.87	10372.11
874.052	10746.89
874.233	11047.94
874.415	11273.21
874.596	10875.91
874.778	10789.89
874.959	11029.51
875.141	11117.57
875.322	10613.77
875.503	10689.54
875.685	11029.51
875.866	10546.19
876.048	10558.47
876.229	10777.61
876.41	10839.05
876.592	11181.06
876.773	10662.92
876.954	10296.33
877.136	11357.18
877.317	10851.33
877.498	10523.66
877.679	10581
877.86	11105.28
878.042	10957.83
878.223	10779.65
878.404	10953.73
878.585	11226.11
878.766	11467.77
878.947	11072.51
879.128	10943.49
879.309	11174.91
879.49	11166.72
879.672	10996.74
879.853	10808.33
880.034	11039.75
880.215	10994.69
880.396	10976.26
880.576	11047.94
880.757	10990.59
880.938	11310.08
881.119	10843.14
881.3	11064.32
881.481	11211.78
881.662	12239.86
881.843	10677.26
882.023	10730.5
882.204	11375.61
882.385	11369.47
882.566	11056.13
882.747	10777.61
882.927	11336.7
883.108	11392
883.289	11230.21
883.469	11230.21
883.65	11232.26
883.831	11408.38
884.011	11316.22
884.192	11168.77
884.373	11791.35
884.553	11770.87
884.734	11412.48
884.914	11703.29
885.095	12182.51
885.275	11860.98
885.456	11383.8
885.636	11314.17
885.817	11727.86
885.997	11584.51
886.178	11234.3
886.358	11351.04
886.538	11817.97
886.719	12540.91
886.899	11144.19
887.08	11559.93
887.26	11918.32
887.44	11342.85
887.621	11439.1
887.801	11471.87
887.981	12270.58
888.161	12088.31
888.342	11416.57
888.522	11670.52
888.702	12086.26
888.882	12125.17
889.062	11494.4
889.242	11355.13
889.423	12057.59
889.603	12039.15
889.783	11793.4
889.963	11252.73
890.143	11944.95
890.323	12086.26
890.503	11754.49
890.683	11475.96
890.863	11635.71
891.043	12022.77
891.223	11967.48
891.403	11744.25
891.583	11961.33
891.763	11936.76
891.943	11473.92
892.122	11752.44
892.302	11895.8
892.482	11920.37
892.662	11594.75
892.842	11643.9
893.022	12071.92
893.201	11754.49
893.381	11817.97
893.561	11598.84
893.741	12362.73
893.92	11985.91
894.1	11762.68
894.28	11594.75
894.459	12135.41
894.639	12184.56
894.819	11873.27
894.998	11752.44
895.178	12196.85
895.357	11897.85
895.537	11707.38
895.716	11715.58
895.896	11985.91
896.075	12129.27
896.255	11725.82
896.434	11334.65
896.614	12145.65
896.793	12442.6
896.973	11981.81
897.152	11873.27
897.331	11963.38
897.511	12303.34
897.69	11518.97
897.87	11660.28
898.049	12155.89
898.228	11934.71
898.407	11807.73
898.587	11766.78
898.766	11910.13
898.945	12026.87
899.124	11744.25
899.304	11617.27
899.483	11955.19
899.662	12252.14
899.841	11799.54
900.02	11447.29
900.199	12264.43
900.378	11914.23
900.557	11518.97
900.737	11641.85
900.916	11783.16
901.095	11990
901.274	11803.64
901.453	11344.89
901.632	11625.47
901.811	11656.18
901.989	11400.19
902.168	11357.18
902.347	12028.92
902.526	11572.22
902.705	11379.71
902.884	11490.3
903.063	11977.72
903.242	11936.76
903.42	11340.8
903.599	11721.72
903.778	12051.44
903.957	12010.48
904.135	11353.09
904.314	11285.5
904.493	11703.29
904.672	11643.9
904.85	11408.38
905.029	11289.6
905.207	11715.58
905.386	12200.94
905.565	11103.23
905.743	11301.89
905.922	11332.61
906.1	11566.07
906.279	11035.65
906.457	10986.5
906.636	11305.98
906.814	11365.37
906.993	10896.39
907.171	10953.73
907.35	11586.55
907.528	11473.92
907.707	11375.61
907.885	11115.52
908.063	11625.47
908.242	11084.8
908.42	10769.41
908.598	10583.05
908.777	11215.87
908.955	11029.51
909.133	10757.13
909.311	10742.79
909.49	10953.73
909.668	10982.4
909.846	10923.01
910.024	10656.78
910.202	10918.92
910.38	11082.75
910.559	10679.3
910.737	10626.06
910.915	11099.14
911.093	10859.52
911.271	10728.45
911.449	10849.29
911.627	10925.06
911.805	11377.66
911.983	10601.48
912.161	10566.67
912.339	10863.62
912.517	11033.6
912.695	10652.68
912.872	10325.01
913.05	10572.81
913.228	10646.54
913.406	10249.23
913.584	10376.2
913.762	10697.74
913.939	10468.36
914.117	10171.41
914.295	10058.77
914.473	10581
914.65	10578.95
914.828	9935.89
915.006	10050.58
915.184	10112.02
915.361	10419.21
915.539	10345.48
915.716	10339.34
915.894	10320.91
916.072	10382.35
916.249	10183.7
916.427	10114.06
916.604	9982.99
916.782	10269.71
916.959	9978.9
917.137	9847.83
917.314	10255.37
917.492	10333.2
917.669	9899.03
917.847	10015.76
918.024	9993.23
918.201	10044.43
918.379	9647.13
918.556	9643.03
918.733	10253.33
918.911	9813.01
919.088	9925.65
919.265	9536.54
919.442	10026
919.62	9792.53
919.797	9360.41
919.974	9704.47
920.151	9882.64
920.328	9647.13
920.506	9217.05
920.683	9790.49
920.86	9493.53
921.037	9311.26
921.214	9221.15
921.391	9163.81
921.568	9745.43
921.745	9374.75
921.922	9198.62
922.099	9096.22
922.276	9655.32
922.453	9487.39
922.63	9174.05
922.807	9155.61
922.984	9407.52
923.161	9188.38
923.338	8895.52
923.514	8881.19
923.691	9247.77
923.868	9337.88
924.045	8838.18
924.222	8762.4
924.399	9223.2
924.575	9282.59
924.752	8717.35
924.929	8926.24
925.105	9198.62
925.282	8703.01
925.459	8680.49
925.635	8580.14
925.812	8795.17
925.989	8608.81
926.165	8797.22
926.342	8318
926.518	8588.33
926.695	8778.79
926.871	8449.07
927.048	8098.86
927.224	8768.55
927.401	8393.77
927.577	8481.83
927.754	8004.66
927.93	8827.94
928.107	8803.36
928.283	8078.38
928.459	8322.09
928.636	8414.25
928.812	8234.03
928.988	8078.38
929.165	7920.69
929.341	8191.02
929.517	8262.7
929.693	8248.36
929.87	7676.98
930.046	8164.4
930.222	8090.67
930.398	7758.9
930.574	7898.16
930.751	7926.83
930.927	7740.47
931.103	7552.06
931.279	7621.69
931.455	7724.08
931.631	7851.06
931.807	7210.04
931.983	7365.69
932.159	7558.2
932.335	7756.85
932.511	7648.31
932.687	7285.82
932.863	7500.86
933.039	7343.16
933.215	6956.1
933.391	6904.9
933.566	7124.03
933.742	7197.76
933.918	6843.46
934.094	6886.47
934.27	7040.06
934.445	6954.05
934.621	6952
934.797	6616.13
934.973	7191.61
935.148	6931.52
935.324	6607.94
935.5	6122.57
935.675	6845.51
935.851	6716.48
936.027	6376.52
936.202	6116.43
936.378	6634.57
936.553	6165.58
936.729	6358.09
936.904	5874.77
937.08	5850.19
937.255	5835.86
937.431	5262.43
937.606	5377.11
937.782	5432.41
937.957	5614.68
938.133	5397.59
938.308	5057.63
938.483	5231.71
938.659	5020.77
938.834	5114.97
939.009	4904.03
939.185	5012.57
939.36	4783.2
939.535	4291.69
939.71	4697.19
939.886	5094.49
940.061	5004.38
940.236	4693.09
940.411	4492.39
940.586	4627.56
940.761	4764.77
940.937	4281.45
941.112	4107.37
941.287	4482.15
941.462	4482.15
941.637	4109.42
941.812	4066.41
941.987	4285.55
942.162	4172.91
942.337	4050.03
942.512	3884.14
942.687	4449.38
942.862	4232.3
943.037	3720.31
943.212	3415.16
943.386	3953.77
943.561	4037.74
943.736	3851.38
943.911	4121.71
944.086	4013.17
944.26	4140.14
944.435	3806.32
944.61	3933.29
944.785	4330.6
944.959	4420.71
945.134	3732.59
945.309	3667.06
945.483	3597.43
945.658	4193.39
945.833	3400.82
946.007	3579
946.182	4256.87
946.357	3513.46
946.531	3519.6
946.706	3507.32
946.88	3513.46
947.055	3871.86
947.229	3595.38
947.404	3497.08
947.578	4019.31
947.752	3822.7
947.927	3556.47
948.101	3568.76
948.276	3927.15
948.45	3640.44
948.624	3892.34
948.799	3546.23
948.973	3980.4
949.147	3488.89
949.321	3617.91
949.496	3628.15
949.67	4045.93
949.844	3947.63
950.018	3595.38
950.193	3581.04
950.367	4361.32
950.541	3669.11
950.715	3832.94
950.889	3841.14
951.063	3705.97
951.237	4138.09
951.411	3480.69
951.585	3484.79
951.759	3916.91
951.933	3834.99
952.107	3574.9
952.281	3748.98
952.455	4248.68
952.629	4195.43
952.803	3581.04
952.977	3544.18
953.151	4158.57
953.325	3941.49
953.499	3959.92
953.672	3511.41
953.846	3722.35
954.02	3548.28
954.194	3482.74
954.368	3519.6
954.541	3949.68
954.715	3658.87
954.889	3665.01
955.062	3636.34
955.236	3689.59
955.41	3900.53
955.583	3728.5
955.757	3466.36
955.93	3781.74
956.104	3507.32
956.278	3538.04
956.451	3634.29
956.625	3884.14
956.798	4392.04
956.972	3861.62
957.145	3357.82
957.319	3789.94
957.492	3634.29
957.665	3634.29
957.839	3404.92
958.012	3923.05
958.185	3544.18
958.359	3499.13
958.532	3775.6
958.705	4013.17
958.879	3683.44
959.052	3570.8
959.225	3312.76
959.398	3683.44
959.572	3716.21
959.745	3490.93
959.918	3427.45
960.091	3722.35
960.264	3798.13
960.438	3249.27
960.611	3255.42
960.784	3914.86
960.957	3484.79
961.13	3820.66
961.303	3284.09
961.476	3626.1
961.649	3947.63
961.822	3253.37
961.995	3513.46
962.168	3703.92
962.341	3757.17
962.514	3576.95
962.686	3466.36
962.859	3628.15
963.032	3785.84
963.205	3357.82
963.378	3386.49
963.551	3726.45
963.723	3679.35
963.896	3468.41
964.069	3335.29
964.242	3540.08
964.414	3921.01
964.587	3484.79
964.76	3449.97
964.932	3490.93
965.105	3515.51
965.278	3327.1
965.45	3441.78
965.623	3730.55
965.795	3789.94
965.968	3196.03
966.14	3425.4
966.313	3302.52
966.485	3495.03
966.658	3212.41
966.83	3093.63
967.003	3853.42
967.175	3683.44
967.348	3239.03
967.52	3423.35
967.692	3859.57
967.865	3566.71
968.037	3349.62
968.209	3548.28
968.382	3472.5
968.554	3697.78
968.726	3282.04
968.898	3095.68
969.071	3587.19
969.243	3531.89
969.415	3243.13
969.587	3339.38
969.759	3863.66
969.932	3673.2
970.104	3200.12
970.276	2933.89
970.448	3351.67
970.62	3306.62
970.792	3339.38
970.964	3273.85
971.136	3843.18
971.308	3470.45
971.48	3212.41
971.652	3107.96
971.824	3609.72
971.996	3191.93
972.168	3210.36
972.339	3261.56
972.511	3445.88
972.683	3374.2
972.855	3306.62
973.027	3079.29
973.199	3210.36
973.37	3486.84
973.542	3175.55
973.714	3089.53
973.886	3318.9
974.057	3529.84
974.229	2970.75
974.401	2972.8
974.572	3110.01
974.744	2882.69
974.915	2847.87
975.087	2917.5
975.259	3587.19
975.43	3036.28
975.602	2948.22
975.773	2892.93
975.945	2954.37
976.116	3562.61
976.288	2856.06
976.459	3167.35
976.63	3095.68
976.802	3374.2
976.973	2966.65
977.145	3134.59
977.316	3597.43
977.487	3589.24
977.659	3112.06
977.83	2960.51
978.001	3583.09
978.172	3329.14
978.344	2825.34
978.515	3021.95
978.686	2991.23
978.857	3404.92
979.028	2903.17
979.2	2776.19
979.371	3398.77
979.542	2999.42
979.713	3048.57
979.884	2512
980.055	2944.13
980.226	3005.56
980.397	2899.07
980.568	2854.02
980.739	3226.75
980.91	3060.86
981.081	2925.69
981.252	2684.03
981.423	3159.16
981.594	3398.77
981.765	2643.07
981.936	2954.37
982.106	3015.8
982.277	3239.03
982.448	2645.12
982.619	2956.41
982.79	2864.25
982.96	3380.34
983.131	2851.97
983.302	2509.96
983.472	2874.49
983.643	3017.85
983.814	2925.69
983.984	2616.45
984.155	2796.67
984.326	3314.81
984.496	2776.19
984.667	2585.73
984.837	2751.62
985.008	3118.2
985.178	2862.21
985.349	2675.84
985.519	2794.62
985.69	2694.27
985.86	2710.66
986.031	2587.78
986.201	2907.26
986.371	2843.78
986.542	2575.49
986.712	2462.85
986.882	2888.83
987.053	2868.35
987.223	2421.89
987.393	2983.04
987.563	2667.65
987.734	2931.84
987.904	2892.93
988.074	2581.64
988.244	2913.41
988.414	2505.86
988.585	2436.23
988.755	2595.97
988.925	2698.37
989.095	3105.92
989.265	2385.03
989.435	2679.94
989.605	2839.68
989.775	3071.1
989.945	2757.76
990.115	2415.75
990.285	2700.42
990.455	2776.19
990.625	2477.19
990.795	2331.78
990.965	2948.22
991.134	2452.61
991.304	2438.28
991.474	2428.04
991.644	2595.97
991.814	2948.22
991.984	2172.04
992.153	2245.77
992.323	2608.26
992.493	2665.6
992.662	2081.93
992.832	2577.54
993.002	2751.62
993.171	2604.16
993.341	2116.75
993.511	2430.09
993.68	2391.17
993.85	2749.57
994.019	1983.63
994.189	2122.89
994.358	2624.64
994.528	2466.95
994.697	2086.03
994.867	2188.43
995.036	2696.32
995.206	2391.17
995.375	2049.16
995.544	2292.87
995.714	2503.81
995.883	2321.54
996.052	2319.5
996.222	2102.41
996.391	2995.32
996.56	2479.24
996.73	2147.47
996.899	2071.69
997.068	2743.42
997.237	2276.49
997.406	2169.99
997.576	2016.4
997.745	2542.72
997.914	2518.15
998.083	1901.71
998.252	2129.03
998.421	2436.23
998.59	2235.53
998.759	2118.79
998.928	1803.41
999.097	2524.29
999.266	2415.75
999.435	2159.75
999.604	1864.85
999.773	2770.05
999.942	2294.92
1000.111	1823.89
1000.28	1840.27
1000.448	2077.83
1000.617	2104.46
1000.786	2176.14
1000.955	1811.6
1001.124	2403.46
1001.292	2856.06
1001.461	1889.42
1001.63	1881.23
1001.798	2528.39
1001.967	2514.05
1002.136	1703.06
1002.304	1741.97
1002.473	2241.67
1002.642	2301.06
1002.81	1969.29
1002.979	1690.77
1003.147	2440.33
1003.316	2776.19
1003.484	1901.71
1003.653	1799.31
1003.821	2417.8
1003.99	2241.67
1004.158	1981.58
1004.327	1883.28
1004.495	2294.92
1004.663	1889.42
1004.832	1916.05
1005	1662.1
1005.168	2268.3
1005.337	2143.37
1005.505	1674.39
1005.673	1918.09
1005.842	2143.37
1006.01	2157.71
1006.178	1582.23
1006.346	1807.5
1006.514	2149.51
1006.683	2417.8
1006.851	1795.22
1007.019	1541.27
1007.187	1817.74
1007.355	1506.45
1007.523	1352.85
1007.691	1574.03
1007.859	1744.02
1008.027	2227.34
1008.195	1729.68
1008.363	1600.66
1008.531	2229.38
1008.699	1705.1
1008.867	1565.84
1009.035	1518.74
1009.203	2258.06
1009.37	1905.81
1009.538	1557.65
1009.706	2102.41
1009.874	1938.57
1010.042	1889.42
1010.209	1418.39
1010.377	1438.87
1010.545	2200.71
1010.713	1922.19
1010.88	1545.36
1011.048	1541.27
1011.216	1780.88
1011.383	2329.74
1011.551	1520.79
1011.718	1430.68
1011.886	2135.18
1012.054	1854.61
1012.221	1418.39
1012.389	1424.53
1012.556	1789.07
1012.724	2202.76
1012.891	1608.85
1013.058	1295.51
1013.226	1844.37
1013.393	1932.43
1013.561	1279.13
1013.728	1275.03
1013.895	1993.87
1014.063	1856.65
1014.23	1299.61
1014.397	1379.48
1014.565	2043.02
1014.732	1729.68
1014.899	1213.59
1015.066	1266.84
1015.233	1696.91
1015.401	1873.04
1015.568	1445.01
1015.735	1371.29
1015.902	1655.95
1016.069	1717.39
1016.236	1332.37
1016.403	1295.51
1016.57	1465.49
1016.737	1782.93
1016.904	1340.57
1017.071	1213.59
1017.238	1569.94
1017.405	1744.02
1017.572	1318.04
1017.739	1467.54
1017.906	1703.06
1018.073	1930.38
1018.24	1172.63
1018.407	1301.65
1018.573	1889.42
1018.74	1496.21
1018.907	1266.84
1019.074	1062.04
1019.241	1791.12
1019.407	1592.47
1019.574	1070.23
1019.741	1105.05
1019.907	1580.18
1020.074	1821.84
1020.241	951.45
1020.407	1068.19
1020.574	1703.06
1020.74	1604.75
1020.907	1225.88
1021.073	1223.83
1021.24	2161.8
1021.406	1864.85
1021.573	1154.2
1021.739	1205.4
1021.906	1549.46
1022.072	1430.68
1022.239	1109.15
1022.405	1131.67
1022.571	1418.39
1022.738	1195.16
1022.904	1049.75
1023.07	1158.3
1023.237	1389.72
1023.403	1868.94
1023.569	1123.48
1023.735	1078.43
1023.902	1569.94
1024.068	1457.3
1024.234	1004.7
1024.4	1012.89
1024.566	1496.21
1024.732	1653.91
1024.898	1025.18
1025.065	939.16
1025.231	1602.71
1025.397	1191.06
1025.563	1033.37
1025.729	992.41
1025.895	857.25
1026.061	1232.02
1026.227	775.33
1026.392	1004.7
1026.558	1455.25
1026.724	1424.53
1026.89	928.92
1027.056	1041.56
1027.222	1406.1
1027.388	1172.63
1027.553	1000.6
1027.719	844.96
1027.885	1811.6
1028.051	1473.68
1028.216	789.66
1028.382	971.93
1028.548	1520.79
1028.713	1250.46
1028.879	679.07
1029.045	957.6
1029.21	1598.61
1029.376	1471.64
1029.541	935.07
1029.707	912.54
1029.873	1428.63
1030.038	1447.06
1030.204	861.34
1030.369	834.72
1030.534	1453.2
1030.7	1137.82
1030.865	871.58
1031.031	740.51
1031.196	1195.16
1031.361	1293.46
1031.527	787.61
1031.692	863.39
1031.857	804
1032.023	1412.25
1032.188	769.18
1032.353	894.11
1032.518	1445.01
1032.684	1262.74
1032.849	552.1
1033.014	816.29
1033.179	1305.75
1033.344	1262.74
1033.509	820.38
1033.674	828.57
1033.839	1236.12
1034.004	1295.51
1034.17	783.52
1034.335	687.26
1034.5	834.72
1034.664	930.97
1034.829	660.64
1034.994	670.88
1035.159	1072.28
1035.324	1137.82
1035.489	742.56
1035.654	654.5
1035.819	1416.34
1035.984	1172.63
1036.148	855.2
1036.313	779.42
1036.478	1387.67
1036.643	1129.63
1036.807	611.49
1036.972	390.31
1037.137	1324.18
1037.301	1088.67
1037.466	541.86
1037.631	756.9
1037.795	1229.98
1037.96	1053.85
1038.124	804
1038.289	584.87
1038.454	1164.44
1038.618	1150.11
1038.783	638.11
1038.947	687.26
1039.111	1043.61
1039.276	953.5
1039.44	617.63
1039.605	1148.06
1039.769	851.1
1039.933	1062.04
1040.098	640.16
1040.262	804
1040.426	1307.8
1040.591	1123.48
1040.755	533.67
1040.919	523.43
1041.083	1047.71
1041.248	894.11
1041.412	464.04
1041.576	423.08
1041.74	877.73
1041.904	1037.47
1042.068	472.23
1042.232	672.93
1042.397	1166.49
1042.561	1045.66
1042.725	410.79
1042.889	640.16
1043.053	1051.8
1043.217	998.56
1043.381	654.5
1043.544	326.82
1043.708	1152.15
1043.872	609.44
1044.036	193.7
1044.2	457.89
1044.364	1172.63
1044.528	1152.15
1044.691	3892.34
1044.855	263.33
1045.019	1086.62
1045.183	959.64
1045.346	478.37
1045.51	496.8
1045.674	994.46
1045.837	1070.23
1046.001	455.84
1046.165	425.12
1046.328	1381.53
1046.492	885.92
1046.655	552.1
1046.819	611.49
1046.983	740.51
1047.146	912.54
1047.31	550.05
1047.473	318.63
1047.636	953.5
1047.8	646.3
1047.963	468.13
1048.127	353.45
1048.29	705.7
