Data from Ink_Intensity_USB4F045381__3__00003.txt Node

Date: Mon Jul 17 09:26:24 EDT 2023
User: mmckonesweet
Spectrometer: USB4F04538
Trigger mode: 4
Integration Time (sec): 9.000000E-1
Scans to average: 1
Electric dark correction enabled: true
Nonlinearity correction enabled: false
Boxcar width: 0
XAxis mode: Wavelengths
Number of Pixels in Spectrum: 3648
>>>>>Begin Spectral Data<<<<<
345.52	-883.19
345.736	-883.19
345.952	-883.19
346.168	-936.43
346.384	-911.86
346.6	-41.47
346.816	-256.51
347.032	-178.69
347.248	140.8
347.464	-147.97
347.68	-29.18
347.896	87.55
348.112	388.6
348.328	-53.76
348.544	-123.39
348.76	-45.57
348.975	259.58
349.191	-244.22
349.407	-41.47
349.623	69.12
349.839	-0.51
350.055	56.83
350.27	151.04
350.486	284.16
350.702	404.99
350.918	323.07
351.133	-74.24
351.349	187.9
351.565	327.16
351.781	-131.58
351.996	114.17
352.212	376.31
352.428	7.68
352.644	-53.76
352.859	-78.33
353.075	333.31
353.291	-16.9
353.506	-27.14
353.722	-113.15
353.938	-66.05
354.153	447.99
354.369	146.94
354.584	-45.57
354.8	325.12
355.016	-246.27
355.231	-115.2
355.447	114.17
355.662	95.74
355.878	941.55
356.093	-184.83
356.309	5.63
356.524	-150.01
356.74	323.07
356.955	-49.66
357.171	105.98
357.386	138.75
357.602	-160.25
357.817	32.26
358.033	-27.14
358.248	525.82
358.464	159.23
358.679	-51.71
358.895	-162.3
359.11	-61.95
359.325	417.27
359.541	323.07
359.756	132.61
359.972	-197.12
360.187	146.94
360.402	-35.33
360.618	-37.38
360.833	931.31
361.048	222.72
361.264	-45.57
361.479	99.84
361.694	120.32
361.909	224.76
362.125	-57.86
362.34	48.64
362.555	235
362.77	112.13
362.986	-76.29
363.201	48.64
363.416	187.9
363.631	159.23
363.847	-41.47
364.062	-100.86
364.277	298.49
364.492	194.05
364.707	79.36
364.922	-299.52
365.138	396.79
365.353	368.12
365.568	-92.67
365.783	40.45
365.998	183.81
366.213	591.35
366.428	-84.48
366.643	173.57
366.858	351.74
367.073	288.25
367.288	-14.85
367.503	-10.75
367.718	212.48
367.933	345.59
368.148	-90.62
368.363	97.79
368.578	79.36
368.793	499.19
369.008	19.97
369.223	-2.56
369.438	333.31
369.653	572.92
369.868	-49.66
370.083	54.78
370.298	200.19
370.513	384.51
370.728	187.9
370.943	-18.94
371.157	-43.52
371.372	546.3
371.587	-164.35
371.802	-86.53
372.017	126.46
372.232	503.29
372.446	155.13
372.661	-213.5
372.876	441.85
373.091	241.15
373.306	142.85
373.52	-31.23
373.735	-23.04
373.95	466.42
374.165	167.42
374.379	58.88
374.594	7.68
374.809	206.33
375.023	228.86
375.238	-68.09
375.453	415.23
375.667	-41.47
375.882	99.84
376.097	1.54
376.311	210.43
376.526	87.55
376.741	-51.71
376.955	230.91
377.17	693.75
377.384	667.13
377.599	118.27
377.813	-4.61
378.028	734.71
378.242	259.58
378.457	124.41
378.672	-70.14
378.886	177.66
379.101	202.24
379.315	-154.11
379.53	56.83
379.744	321.02
379.958	355.83
380.173	105.98
380.387	62.98
380.602	312.83
380.816	-8.7
381.031	138.75
381.245	173.57
381.459	312.83
381.674	2278.88
381.888	77.31
382.103	378.36
382.317	32.26
382.531	689.65
382.746	181.76
382.96	105.98
383.174	112.13
383.388	570.87
383.603	325.12
383.817	-23.04
384.031	427.51
384.246	638.45
384.46	292.35
384.674	480.76
384.888	257.53
385.103	318.97
385.317	-27.14
385.531	220.67
385.745	456.19
385.959	515.58
386.174	136.7
386.388	97.79
386.602	220.67
386.816	112.13
387.03	202.24
387.244	210.43
387.458	361.98
387.672	591.35
387.887	19.97
388.101	36.35
388.315	620.02
388.529	398.84
388.743	267.77
388.957	62.98
389.171	589.3
389.385	120.32
389.599	329.21
389.813	411.13
390.027	441.85
390.241	949.75
390.455	251.39
390.669	245.24
390.883	144.89
391.097	785.91
391.311	331.26
391.525	183.81
391.738	454.14
391.952	534.01
392.166	292.35
392.38	194.05
392.594	615.93
392.808	689.65
393.022	251.39
393.236	308.73
393.449	398.84
393.663	443.9
393.877	187.9
394.091	271.87
394.305	329.21
394.518	273.92
394.732	224.76
394.946	343.55
395.16	769.52
395.373	474.62
395.587	146.94
395.801	228.86
396.015	753.14
396.228	509.43
396.442	261.63
396.656	95.74
396.869	747
397.083	773.62
397.297	398.84
397.51	359.93
397.724	810.48
397.938	517.62
398.151	202.24
398.365	286.2
398.578	646.65
398.792	730.61
399.005	427.51
399.219	421.37
399.433	499.19
399.646	585.21
399.86	544.25
400.073	542.2
400.287	677.37
400.5	400.89
400.714	493.05
400.927	456.19
401.141	781.81
401.354	1439.21
401.567	722.42
401.781	335.35
401.994	806.39
402.208	1027.57
402.421	415.23
402.635	536.06
402.848	550.39
403.061	798.2
403.275	534.01
403.488	337.4
403.701	976.37
403.915	683.51
404.128	646.65
404.341	409.08
404.555	720.37
404.768	593.4
404.981	570.87
405.195	372.22
405.408	1056.24
405.621	740.85
405.834	562.68
406.048	491
406.261	957.94
406.474	1084.91
406.687	478.71
406.9	628.21
407.114	620.02
407.327	663.03
407.54	361.98
407.753	527.86
407.966	443.9
408.179	943.6
408.392	480.76
408.605	392.7
408.819	806.39
409.032	738.8
409.245	542.2
409.458	798.2
409.671	841.2
409.884	914.93
410.097	480.76
410.31	722.42
410.523	869.87
410.736	744.95
410.949	742.9
411.162	601.59
411.375	1222.13
411.588	910.83
411.801	851.44
412.014	527.86
412.227	708.09
412.44	697.85
412.653	536.06
412.865	853.49
413.078	974.32
413.291	949.75
413.504	663.03
413.717	638.45
413.93	1021.42
414.143	644.6
414.356	654.84
414.568	538.1
414.781	1148.4
414.994	839.16
415.207	685.56
415.42	712.18
415.632	1064.43
415.845	1263.08
416.058	513.53
416.271	646.65
416.483	859.63
416.696	1275.37
416.909	759.28
417.121	693.75
417.334	1086.96
417.547	1406.44
417.759	882.16
417.972	691.7
418.185	783.86
418.397	1121.77
418.61	790
418.823	810.48
419.035	1250.8
419.248	955.89
419.46	943.6
419.673	978.42
419.885	1189.36
420.098	955.89
420.311	949.75
420.523	562.68
420.736	1111.54
420.948	921.07
421.161	851.44
421.373	742.9
421.586	972.27
421.798	785.91
422.01	673.27
422.223	994.8
422.435	937.46
422.648	1177.07
422.86	943.6
423.073	822.77
423.285	1418.73
423.497	812.53
423.71	906.74
423.922	925.17
424.134	1172.97
424.347	1424.87
424.559	1215.98
424.771	1299.95
424.984	1115.63
425.196	1121.77
425.408	865.78
425.621	888.31
425.833	1453.55
426.045	1521.13
426.257	1046
426.47	1048.05
426.682	1256.94
426.894	1293.8
427.106	1183.21
427.318	1142.25
427.531	1009.14
427.743	1402.35
427.955	1048.05
428.167	1398.25
428.379	1496.55
428.591	1168.88
428.804	1365.48
429.016	1078.77
429.228	1164.78
429.44	1385.96
429.652	1367.53
429.864	1050.1
430.076	1324.52
430.288	1365.48
430.5	1334.76
430.712	1234.41
430.924	1680.87
431.136	1345
431.348	1121.77
431.56	1195.5
431.772	1498.6
431.984	1377.77
432.196	1258.99
432.408	1275.37
432.62	1334.76
432.832	1578.47
433.044	1664.49
433.256	1451.5
433.468	1705.45
433.679	1187.31
433.891	1324.52
434.103	1746.41
434.315	1920.48
434.527	1842.66
434.739	1510.89
434.95	1416.68
435.162	1842.66
435.374	1447.4
435.586	1586.66
435.798	1531.37
436.009	1381.87
436.221	1576.42
436.433	1449.45
436.645	1603.05
436.856	1539.56
437.068	1906.15
437.28	1525.22
437.491	1959.39
437.703	1840.61
437.915	1797.6
438.126	1633.77
438.338	1846.76
438.55	1813.99
438.761	2026.98
438.973	1727.97
439.184	1656.29
439.396	1861.09
439.608	2045.41
439.819	1592.81
440.031	1805.8
440.242	1922.53
440.454	2053.6
440.665	1695.21
440.877	1854.95
441.088	2014.69
441.3	1891.81
441.511	1709.54
441.723	1791.46
441.934	1957.35
442.146	2012.64
442.357	1955.3
442.569	2035.17
442.78	2004.45
442.991	2348.51
443.203	2231.77
443.414	1879.52
443.626	2299.36
443.837	2119.14
444.048	1873.38
444.26	1674.73
444.471	1983.97
444.682	2268.64
444.894	1715.69
445.105	1795.56
445.316	2317.79
445.528	2094.56
445.739	2039.26
445.95	2078.18
446.161	2127.33
446.373	2469.34
446.584	2086.37
446.795	2078.18
447.006	2262.49
447.217	2506.2
447.429	1848.8
447.64	2016.74
447.851	2444.76
448.062	2244.06
448.273	1848.8
448.484	2151.9
448.695	2309.6
448.907	2192.86
449.118	2219.49
449.329	2350.56
449.54	2293.21
449.751	1938.91
449.962	2190.81
450.173	2037.22
450.384	2465.24
450.595	2608.6
450.806	2311.64
451.017	2248.16
451.228	2631.13
451.439	2647.51
451.65	2334.17
451.861	2051.55
452.072	2227.68
452.283	2450.91
452.494	2500.06
452.705	2285.02
452.915	2835.92
453.126	2606.55
453.337	2293.21
453.548	2309.6
453.759	2891.22
453.97	3206.61
454.181	2653.66
454.391	2461.15
454.602	2649.56
454.813	2864.6
455.024	2571.74
455.235	2420.19
455.445	2702.81
455.656	2964.95
455.867	2825.68
456.078	2600.41
456.288	2620.89
456.499	2790.87
456.71	2602.46
456.921	2964.95
457.131	3044.82
457.342	2870.74
457.553	2862.55
457.763	2659.8
457.974	3216.85
458.184	3053.01
458.395	2837.97
458.606	2577.88
458.816	3325.39
459.027	3622.34
459.237	2921.94
459.448	2754.01
459.659	3266
459.869	3737.03
460.08	2928.08
460.29	3173.84
460.501	3581.39
460.711	3147.22
460.922	3063.25
461.132	3204.56
461.343	3878.34
461.553	3218.89
461.764	3225.04
461.974	3161.55
462.184	3521.99
462.395	3542.47
462.605	3511.75
462.816	3210.7
463.026	3571.15
463.236	3933.64
463.447	3372.49
463.657	3452.36
463.867	3997.12
464.078	3691.98
464.288	3724.74
464.498	3792.33
464.709	3757.51
464.919	3790.28
465.129	3665.35
465.339	3728.84
465.55	4036.03
465.76	4115.91
465.97	3896.77
466.18	3753.41
466.391	4279.74
466.601	4175.3
466.811	4179.39
467.021	3892.68
467.231	4521.4
467.441	4521.4
467.651	4410.81
467.862	4128.19
468.072	4556.22
468.282	4855.22
468.492	4193.73
468.702	4638.14
468.912	4636.09
469.122	5182.9
469.332	4683.19
469.542	4429.24
469.752	4900.28
469.962	4896.18
470.172	4677.05
470.382	4775.35
470.592	5143.99
470.802	5442.99
471.012	4945.33
471.222	4871.61
471.432	5356.97
471.642	5225.9
471.852	5264.82
472.062	5242.29
472.272	5397.93
472.482	5270.96
472.691	5332.4
472.901	5258.67
473.111	5645.74
473.321	6227.36
473.531	5481.9
473.741	5832.1
473.95	5975.46
474.16	5930.41
474.37	5791.14
474.58	5860.77
474.79	6512.03
474.999	6251.94
475.209	5963.17
475.419	6102.43
475.628	6186.4
475.838	6540.7
476.048	6280.61
476.258	6198.69
476.467	6782.36
476.677	6639
476.886	6768.02
477.096	6888.85
477.306	6833.56
477.515	7200.15
477.725	6888.85
477.935	6956.44
478.144	7239.06
478.354	6788.5
478.563	7249.3
478.773	7218.58
478.982	7583.12
479.192	7740.81
479.401	7353.74
479.611	7314.83
479.82	7329.17
480.03	7918.98
480.239	7660.94
480.449	7550.35
480.658	8236.42
480.868	7927.18
481.077	8117.64
481.287	8031.62
481.496	8330.62
481.705	8719.74
481.915	8496.51
482.124	8600.96
482.333	8541.57
482.543	8899.96
482.752	8570.24
482.961	8488.32
483.171	8977.78
483.38	8807.8
483.589	8904.06
483.799	8795.51
484.008	8973.69
484.217	9196.92
484.426	9043.32
484.636	9133.43
484.845	9217.4
485.054	8992.12
485.263	9653.61
485.472	9401.71
485.682	10042.73
485.891	9729.39
486.1	9383.28
486.309	9739.63
486.518	10179.94
486.727	10048.87
486.936	9928.04
487.146	10098.02
487.355	10409.31
487.564	10147.17
487.773	10245.48
487.982	10311.01
488.191	10403.17
488.4	10468.7
488.609	10571.1
488.818	10585.44
489.027	11308.37
489.236	11320.66
489.445	10767.71
489.654	10540.38
489.863	11416.91
490.072	11033.94
490.281	11330.9
490.49	11054.42
490.698	11472.21
490.907	11369.81
491.116	11175.25
491.325	11027.8
491.534	11818.32
491.743	11470.16
491.952	11457.87
492.16	11654.48
492.369	11773.26
492.578	12133.7
492.787	11683.15
492.996	11615.57
493.204	11846.99
493.413	12625.22
493.622	11965.77
493.831	11709.77
494.039	12496.19
494.248	12115.27
494.457	12156.23
494.665	12303.68
494.874	12602.69
495.083	13223.22
495.291	12410.18
495.5	12438.85
495.709	13118.78
495.917	12868.92
496.126	12907.84
496.335	12754.24
496.543	12825.92
496.752	12868.92
496.96	13065.53
497.169	12854.59
497.377	13194.55
497.586	13591.86
497.794	13057.34
498.003	12827.96
498.211	13430.07
498.42	13972.78
498.628	13532.47
498.837	13514.03
499.045	13397.3
499.254	13690.16
499.462	13585.71
499.671	13622.58
499.879	14310.69
500.087	14261.54
500.296	13835.56
500.504	13845.8
500.713	14251.3
500.921	14998.81
501.129	13901.1
501.338	13735.21
501.546	14386.47
501.754	14230.82
501.962	14097.7
502.171	14185.77
502.379	14851.36
502.587	14800.16
502.795	14519.59
503.004	14478.63
503.212	14679.33
503.42	14968.09
503.628	14822.69
503.837	14693.66
504.045	15035.67
504.253	15236.38
504.461	14806.3
504.669	14951.71
504.877	15291.67
505.085	15629.59
505.294	15189.27
505.502	15176.98
505.71	15467.8
505.918	15459.6
506.126	15170.84
506.334	15115.55
506.542	15555.86
506.75	15394.07
506.958	15426.84
507.166	15592.72
507.374	15678.74
507.582	16094.47
507.79	15619.35
507.998	15693.07
508.206	15897.87
508.414	15883.53
508.622	15785.23
508.83	15574.29
509.037	16532.74
509.245	16020.75
509.453	15867.15
509.661	15906.06
509.869	16284.94
510.077	15889.68
510.285	16082.19
510.492	15602.96
510.7	16911.61
510.908	16373
511.116	16334.09
511.324	16321.8
511.531	16647.43
511.739	16698.63
511.947	16672
512.155	16743.68
512.362	16891.13
512.57	16385.29
512.778	16585.99
512.985	16485.64
513.193	17190.14
513.401	17243.38
513.608	16657.67
513.816	16823.55
514.024	17161.47
514.231	17431.8
514.439	17059.07
514.646	16928
514.854	17399.03
515.061	17177.85
515.269	17005.82
515.477	17052.92
515.684	17122.55
515.892	17644.79
516.099	17175.8
516.307	17196.28
516.514	17728.75
516.722	18011.37
516.929	17562.87
517.136	17362.17
517.344	17917.17
517.551	17677.55
517.759	17462.52
517.966	17802.48
518.173	17921.26
518.381	18029.8
518.588	17888.5
518.796	17786.1
519.003	18103.53
519.21	17839.34
519.418	17915.12
519.625	18093.29
519.832	18144.49
520.039	18414.82
520.247	17925.36
520.454	18164.97
520.661	18781.41
520.868	18519.27
521.076	18564.32
521.283	18490.6
521.49	19178.72
521.697	18830.56
521.904	18570.47
522.112	18513.13
522.319	19055.84
522.526	18715.87
522.733	18771.17
522.94	18506.98
523.147	18646.24
523.354	19473.62
523.561	18744.55
523.768	19154.14
523.975	19465.43
524.183	19043.55
524.39	19152.09
524.597	19082.46
524.804	19059.93
525.011	19160.28
525.218	19066.08
525.425	19313.88
525.632	19637.46
525.838	19401.94
526.045	19690.71
526.252	19311.83
526.459	20966.59
526.666	20442.31
526.873	19815.63
527.08	19737.81
527.287	20378.83
527.494	20092.11
527.701	19774.67
527.907	19809.49
528.114	20309.19
528.321	20090.06
528.528	20028.62
528.735	20223.18
528.941	20243.66
529.148	19768.53
529.355	19868.88
529.562	19813.59
529.768	20786.37
529.975	20214.99
530.182	20233.42
530.388	20364.49
530.595	20583.62
530.802	19965.14
531.008	20790.47
531.215	20733.12
531.422	21509.3
531.628	21503.16
531.835	20806.85
532.042	20929.73
532.248	21048.51
532.455	21030.08
532.661	20923.58
532.868	20966.59
533.074	21370.04
533.281	21472.44
533.487	21298.36
533.694	20948.16
533.9	21644.47
534.107	21374.14
534.313	21349.56
534.52	21390.52
534.726	21683.38
534.933	21886.13
535.139	21396.67
535.345	21296.32
535.552	21888.18
535.758	22074.54
535.965	21681.33
536.171	21701.81
536.377	22168.75
536.584	21982.38
536.79	22203.57
536.996	22031.54
537.203	22181.04
537.409	22168.75
537.615	22185.13
537.821	22316.2
538.028	22832.29
538.234	22781.09
538.44	22240.43
538.646	22518.95
538.853	22738.09
539.059	22209.71
539.265	22949.03
539.471	22324.4
539.677	22764.71
539.883	22824.1
540.09	22957.22
540.296	23250.08
540.502	23026.85
540.708	22506.66
540.914	22879.39
541.12	22807.72
541.326	23385.24
541.532	23319.71
541.738	23411.87
541.944	22906.02
542.15	23479.45
542.356	23389.34
542.562	23295.13
542.768	23078.05
542.974	24102.03
543.18	23903.38
543.386	23864.47
543.592	23635.1
543.798	24030.35
544.004	24104.08
544.21	23827.6
544.415	23968.91
544.621	24001.68
544.827	23968.91
545.033	23782.55
545.239	24114.32
545.445	24161.42
545.651	24431.76
545.856	23817.36
546.062	24401.04
546.268	24138.9
546.474	24130.7
546.679	24026.26
546.885	24167.57
547.091	24376.46
547.297	24933.51
547.502	24159.38
547.708	24235.15
547.914	24222.86
548.119	24568.97
548.325	24007.83
548.531	23991.44
548.736	24937.6
548.942	24413.32
549.147	24331.4
549.353	24786.05
549.559	24863.88
549.764	24857.73
549.97	24368.27
550.175	24769.67
550.381	24990.85
550.586	24552.59
550.792	24921.22
550.997	24753.29
551.203	24827.01
551.408	25232.51
551.614	24880.26
551.819	25250.94
552.025	25631.86
552.23	26326.13
552.435	25033.86
552.641	26195.06
552.846	25666.68
553.052	25769.08
553.257	25478.27
553.462	25599.1
553.668	25764.98
553.873	26016.88
554.078	25554.04
554.283	25592.95
554.489	26227.82
554.694	25879.67
554.899	25633.91
555.105	26002.55
555.31	26657.9
555.515	26373.23
555.72	26154.1
555.925	25801.85
556.131	26602.6
556.336	26365.04
556.541	26377.33
556.746	26209.39
556.951	26559.59
557.156	27094.11
557.361	26530.92
557.567	26604.65
557.772	27358.3
557.977	27012.2
558.182	26496.11
558.387	26492.01
558.592	26539.12
558.797	27014.24
559.002	26981.48
559.207	27104.35
559.412	26850.41
559.617	27356.25
559.822	27100.26
560.027	26895.46
560.232	26979.43
560.437	27249.76
560.642	26909.8
560.847	26801.26
561.051	27051.11
561.256	27413.6
561.461	27327.58
561.666	26883.17
561.871	27214.94
562.076	27341.92
562.281	27638.87
562.485	27069.54
562.69	27495.52
562.895	28017.75
563.1	27542.62
563.305	27333.73
563.509	28003.41
563.714	28036.18
563.919	27294.82
564.123	27688.03
564.328	27872.34
564.533	28281.94
564.737	27124.83
564.942	27282.53
565.147	28245.07
565.351	28109.91
565.556	27516
565.761	27667.55
565.965	27919.45
566.17	27626.59
566.374	27524.19
566.579	27753.56
566.784	27925.59
566.988	28283.98
567.193	27780.18
567.397	27931.73
567.602	28286.03
567.806	27731.03
568.011	27982.93
568.215	28079.19
568.42	28245.07
568.624	28566.6
568.828	28058.71
569.033	28210.26
569.237	28605.52
569.442	28693.58
569.646	28157.01
569.85	28417.1
570.055	28890.18
570.259	28623.95
570.463	28734.54
570.668	28843.08
570.872	28560.46
571.076	28556.36
571.281	28431.44
571.485	29094.98
571.689	28761.16
571.893	29209.67
572.098	28828.74
572.302	28795.98
572.506	28925
572.71	29070.4
572.914	29099.08
573.119	28935.24
573.323	29113.41
573.527	29172.8
573.731	28994.63
573.935	28877.9
574.139	29238.34
574.343	29080.64
574.547	29045.83
574.751	29267.01
574.955	29828.15
575.159	29912.12
575.364	29361.22
575.568	29142.08
575.772	29344.83
575.976	29815.87
576.18	29047.88
576.383	29488.19
576.587	29633.6
576.791	29922.36
576.995	29445.18
577.199	29482.05
577.403	29752.38
577.607	30327.86
577.811	30018.61
578.015	30018.61
578.219	30108.72
578.422	30321.71
578.626	29838.39
578.83	29967.41
579.034	30180.4
579.238	30620.72
579.442	29979.7
579.645	30626.86
579.849	30063.67
580.053	30690.35
580.257	29926.46
580.46	30192.69
580.664	31132.71
580.868	30340.15
581.071	30565.42
581.275	30176.31
581.479	30104.63
581.682	30512.17
581.886	30374.96
582.09	30229.55
582.293	30966.82
582.497	30909.48
582.7	30852.14
582.904	31046.69
583.107	30805.03
583.311	30862.38
583.515	30532.65
583.718	30845.99
583.922	31335.46
584.125	31515.68
584.329	30819.37
584.532	31024.17
584.735	31267.87
584.939	31210.53
585.142	30653.48
585.346	30852.14
585.549	31409.18
585.753	31454.24
585.956	31310.88
586.159	31394.85
586.363	32021.53
586.566	31935.51
586.769	31263.78
586.973	31411.23
587.176	31712.28
587.379	32019.48
587.582	32031.77
587.786	31704.09
587.989	31810.59
588.192	32388.11
588.395	31667.23
588.599	32273.43
588.802	31921.18
589.005	32007.19
589.208	32162.84
589.411	32164.89
589.615	32359.44
589.818	32705.55
590.021	32832.52
590.224	32013.34
590.427	32797.71
590.63	32726.03
590.833	31894.55
591.036	32156.69
591.239	32975.88
591.442	32472.08
591.645	32551.95
591.848	32347.15
592.051	33002.5
592.254	32693.26
592.457	32136.21
592.66	32363.54
592.863	32840.71
593.066	32801.8
593.269	32465.94
593.472	33051.66
593.675	33221.64
593.878	33002.5
594.081	33213.45
594.284	32683.02
594.486	33641.47
594.689	33330.18
594.892	32740.36
595.095	32908.3
595.298	33115.14
595.5	33438.72
595.703	33158.15
595.906	33348.61
596.109	33596.42
596.311	33788.92
596.514	32711.69
596.717	33448.96
596.92	34057.21
597.122	33399.81
597.325	33053.7
597.528	33410.05
597.73	34098.17
597.933	33348.61
598.136	33594.37
598.338	33397.76
598.541	33876.99
598.743	34141.18
598.946	33438.72
599.148	33643.52
599.351	33833.98
599.554	34194.42
599.756	33788.92
599.959	34255.86
600.161	34079.74
600.363	34763.76
600.566	34571.25
600.768	33889.27
600.971	35195.88
601.173	34728.94
601.376	34298.87
601.578	34388.98
601.78	34345.97
601.983	34835.44
602.185	34210.81
602.388	34378.74
602.59	34290.68
602.792	34737.13
602.995	34415.6
603.197	34237.43
603.399	34647.02
603.601	34464.75
603.804	34083.83
604.006	34233.33
604.208	34276.34
604.41	33975.29
604.613	34565.1
604.815	34788.33
605.017	35396.58
605.219	34628.59
605.421	34571.25
605.623	34288.63
605.826	35103.72
606.028	35285.99
606.23	34876.4
606.432	34737.13
606.634	35486.69
606.836	35161.06
607.038	34878.44
607.24	34841.58
607.442	35374.05
607.644	35232.74
607.846	35073
608.048	34982.89
608.25	35161.06
608.452	34687.98
608.654	34894.83
608.856	34438.13
609.058	35451.88
609.26	35288.04
609.462	35163.11
609.664	35449.83
609.866	35474.4
610.067	35513.31
610.269	35056.62
610.471	34978.79
610.673	35034.09
610.875	35349.48
611.077	35099.62
611.278	35654.62
611.48	35255.27
611.682	35580.9
611.884	35546.08
612.085	35015.66
612.287	35568.61
612.489	35660.77
612.69	35093.48
612.892	35331.04
613.094	35750.88
613.295	35240.93
613.497	34900.97
613.699	35091.43
613.9	36101.08
614.102	35843.04
614.304	35109.86
614.505	35134.44
614.707	35380.2
614.908	35318.76
615.11	34757.61
615.311	35498.98
615.513	35404.77
615.714	35873.76
615.916	35329
616.117	35283.94
616.319	35671.01
616.52	35728.35
616.722	35380.2
616.923	35589.09
617.124	35582.95
617.326	35552.23
617.527	35617.76
617.729	35752.93
617.93	36139.99
618.131	35888.09
618.333	35304.42
618.534	35326.95
618.735	35533.79
618.937	35759.07
619.138	35357.67
619.339	35517.41
619.54	35597.28
619.742	35816.41
619.943	35820.51
620.144	35873.76
620.345	35900.38
620.546	36000.73
620.748	35488.74
620.949	35879.9
621.15	35666.91
621.351	35650.53
621.552	35697.63
621.753	35275.75
621.954	35822.56
622.155	36412.37
622.356	35511.27
622.558	35726.3
622.759	35628
622.96	36244.44
623.161	35472.35
623.362	35546.08
623.563	35818.46
623.764	35924.96
623.965	36015.07
624.166	35990.49
624.366	35785.69
624.567	36045.79
624.768	36137.94
624.969	35963.87
625.17	35867.61
625.371	36398.04
625.572	35998.68
625.773	35521.51
625.973	36426.71
626.174	36318.17
626.375	36180.95
626.576	36070.36
626.777	36129.75
626.977	36275.16
627.178	35914.72
627.379	35683.3
627.58	35920.86
627.78	36119.51
627.981	35804.13
628.182	36051.93
628.382	36434.9
628.583	35978.2
628.784	35904.48
628.984	35916.76
629.185	36422.61
629.386	35986.39
629.586	35992.54
629.787	35736.54
629.987	36254.68
630.188	36191.19
630.388	36441.04
630.589	35994.59
630.79	36899.79
630.99	36545.49
631.191	36312.02
631.391	36529.11
631.591	36525.01
631.792	37200.84
631.992	36758.48
632.193	36781.01
632.393	37032.91
632.594	36905.93
632.794	36291.54
632.994	36783.05
633.195	36436.95
633.395	36705.23
633.595	36201.43
633.796	36914.12
633.996	36721.62
634.196	36987.85
634.397	36950.99
634.597	36774.86
634.797	36795.34
634.997	36953.04
635.198	36852.69
635.398	36738
635.598	36973.52
635.798	37409.73
635.998	36807.63
636.199	36309.97
636.399	36850.64
636.599	36824.01
636.799	37340.1
636.999	37037
637.199	37315.53
637.399	37200.84
637.599	37026.76
637.799	36948.94
637.999	36758.48
638.199	37432.26
638.399	36586.45
638.599	36727.76
638.799	37143.5
638.999	37807.04
639.199	37166.02
639.399	36862.93
639.599	37495.75
639.799	37002.19
639.999	37116.87
640.199	37030.86
640.399	37424.07
640.599	36131.8
640.799	37231.56
640.998	37401.54
641.198	37598.15
641.398	37170.12
641.598	36936.65
641.798	37467.08
641.997	38136.76
642.197	36977.61
642.397	37401.54
642.597	37645.25
642.796	37475.27
642.996	37790.66
643.196	37508.04
643.395	36910.03
643.595	37327.81
643.795	37299.14
643.994	37602.24
644.194	37778.37
644.394	37721.02
644.593	37755.84
644.793	37555.14
644.992	37702.59
645.192	38103.99
645.392	37235.66
645.591	37587.91
645.791	37336.01
645.99	37729.22
646.19	37954.49
646.389	37583.81
646.589	37774.27
646.788	37628.87
646.987	38106.04
647.187	37944.25
647.386	38015.93
647.586	38454.2
647.785	38316.98
647.984	37931.97
648.184	38482.87
648.383	37647.3
648.582	37909.44
648.782	37903.29
648.981	37833.66
649.18	37700.54
649.38	38327.22
649.579	37651.39
649.778	38251.45
649.977	38560.69
650.177	38136.76
650.376	37522.37
650.575	37639.11
650.774	38710.19
650.973	37923.77
651.173	37757.89
651.372	37966.78
651.571	38118.33
651.77	38337.46
651.969	37888.96
652.168	38513.59
652.367	37710.78
652.566	38423.48
652.765	37729.22
652.964	38087.61
653.163	38589.36
653.362	38366.13
653.561	38128.57
653.76	38046.65
653.959	38245.3
654.158	38718.39
654.357	38589.36
654.556	37686.21
654.755	38529.97
654.954	38597.56
655.153	38300.6
655.352	37899.2
655.551	38491.06
655.749	38030.27
655.948	38103.99
656.147	38218.68
656.346	38290.36
656.545	38407.09
656.743	38237.11
656.942	38253.5
657.141	38400.95
657.34	38159.29
657.538	38198.2
657.737	38507.44
657.936	38730.67
658.135	38843.31
658.333	38339.51
658.532	38718.39
658.731	38738.86
658.929	38771.63
659.128	38179.77
659.326	38536.12
659.525	38824.88
659.724	38529.97
659.922	37987.26
660.121	38650.8
660.319	38699.95
660.518	38359.99
660.716	38421.43
660.915	38271.93
661.113	38937.52
661.312	38237.11
661.51	38943.66
661.709	38474.68
661.907	38859.7
662.105	39340.97
662.304	38767.54
662.502	39240.62
662.701	39408.55
662.899	38603.7
663.097	38792.11
663.296	38101.95
663.494	39191.47
663.692	39054.25
663.891	38251.45
664.089	38847.41
664.287	38847.41
664.485	39478.18
664.684	38658.99
664.882	38933.42
665.08	38781.87
665.278	39023.53
665.476	38396.85
665.675	39001
665.873	39328.68
666.071	39041.96
666.269	38419.38
666.467	38708.15
666.665	38757.3
666.863	38546.36
667.061	38570.93
667.259	38757.3
667.457	38839.22
667.655	38536.12
667.853	39015.34
668.051	38562.74
668.249	38380.47
668.447	38720.43
668.645	38044.6
668.843	38894.51
669.041	38955.95
669.239	38423.48
669.437	38603.7
669.635	39203.75
669.833	38914.99
670.031	38871.98
670.229	38630.32
670.426	38562.74
670.624	38505.4
670.822	38269.88
671.02	38116.28
671.218	38400.95
671.415	37866.43
671.613	38577.08
671.811	38409.14
672.009	38646.71
672.206	38874.03
672.404	38372.28
672.602	38466.49
672.799	38204.35
672.997	39023.53
673.195	38765.49
673.392	39191.47
673.59	38198.2
673.788	38470.58
673.985	37579.71
674.183	37938.11
674.38	38429.62
674.578	38138.81
674.775	38147
674.973	38110.14
675.17	38495.16
675.368	38765.49
675.565	38726.58
675.763	37755.84
675.96	38505.4
676.158	38421.43
676.355	37848
676.553	38634.42
676.75	38060.99
676.947	38667.19
677.145	38431.67
677.342	38312.89
677.539	38302.65
677.737	38415.29
677.934	38611.89
678.131	38534.07
678.329	37667.78
678.526	38337.46
678.723	38233.02
678.92	38751.15
679.118	37950.4
679.315	37780.42
679.512	38187.96
679.709	37620.67
679.906	37694.4
680.104	38187.96
680.301	37972.92
680.498	37657.54
680.695	37678.02
680.892	37407.69
681.089	37618.63
681.286	37821.37
681.483	37319.62
681.68	37848
681.877	38085.56
682.075	37536.71
682.272	37397.45
682.469	37893.05
682.665	37667.78
682.862	37450.69
683.059	37678.02
683.256	38071.23
683.453	37766.08
683.65	37712.83
683.847	37663.68
684.044	37993.4
684.241	37383.11
684.438	37774.27
684.635	37348.29
684.831	37768.13
685.028	37944.25
685.225	37252.04
685.422	37391.3
685.619	37393.35
685.815	37348.29
686.012	37884.86
686.209	37170.12
686.405	37032.91
686.602	37379.01
686.799	36973.52
686.996	36834.25
687.192	36897.74
687.389	37678.02
687.586	36922.32
687.782	36912.08
687.979	37493.7
688.175	37188.55
688.372	37442.5
688.568	37176.26
688.765	36752.34
688.962	37673.92
689.158	36836.3
689.355	36815.82
689.551	37209.03
689.748	37032.91
689.944	37151.69
690.14	36645.84
690.337	36914.12
690.533	37323.72
690.73	36565.97
690.926	37297.09
691.123	37008.33
691.319	37196.74
691.515	36807.63
691.712	36754.38
691.908	36770.77
692.104	36776.91
692.301	36918.22
692.497	36688.85
692.693	37266.38
692.889	37354.44
693.086	36535.25
693.282	36299.73
693.478	36621.27
693.674	37092.3
693.87	36649.94
694.067	36727.76
694.263	36910.03
694.459	36684.75
694.655	36733.9
694.851	36490.2
695.047	36731.86
695.243	36950.99
695.439	36320.21
695.635	36266.97
695.831	36848.59
696.027	36479.96
696.224	35976.16
696.42	35965.92
696.615	36482
696.811	36525.01
697.007	35896.28
697.203	35976.16
697.399	36342.74
697.595	36641.74
697.791	36174.81
697.987	36342.74
698.183	35914.72
698.379	35570.66
698.575	36094.94
698.77	36021.21
698.966	36439
699.162	36418.52
699.358	36008.92
699.554	35988.44
699.749	36672.46
699.945	36447.19
700.141	36250.58
700.337	36127.7
700.532	35898.33
700.728	36013.02
700.924	36060.12
701.119	35898.33
701.315	35865.56
701.511	35668.96
701.706	36305.88
701.902	35423.2
702.097	35806.17
702.293	35949.53
702.489	36191.19
702.684	36209.62
702.88	35578.85
703.075	35795.93
703.271	35294.18
703.466	35425.25
703.662	35351.52
703.857	35996.63
704.053	35486.69
704.248	35388.39
704.443	36025.31
704.639	35875.8
704.834	35451.88
705.03	35787.74
705.225	35873.76
705.42	35648.48
705.616	35492.83
705.811	34866.16
706.006	35195.88
706.202	35374.05
706.397	35388.39
706.592	34849.77
706.787	35451.88
706.983	35410.92
707.178	35431.4
707.373	35515.36
707.568	35595.23
707.763	35120.1
707.959	35384.29
708.154	35513.31
708.349	35089.38
708.544	35425.25
708.739	35140.58
708.934	35144.68
709.129	35216.36
709.324	35251.17
709.519	34819.05
709.714	34632.69
709.909	35554.27
710.104	35365.86
710.299	34831.34
710.494	35175.4
710.689	35308.52
710.884	35111.91
711.079	34968.55
711.274	34784.24
711.469	34966.51
711.664	35296.23
711.859	34618.35
712.054	35124.2
712.249	35003.37
712.443	35042.28
712.638	34665.46
712.833	34376.69
713.028	35062.76
713.223	34657.26
713.417	34907.12
713.612	34894.83
713.807	35437.54
714.002	35359.72
714.196	34862.06
714.391	34653.17
714.586	34573.3
714.78	34796.53
714.975	34696.17
715.17	34333.68
715.364	34636.78
715.559	35212.26
715.754	34280.44
715.948	34106.36
716.143	34704.37
716.337	34495.47
716.532	34982.89
716.726	34487.28
716.921	35109.86
717.115	34890.73
717.31	34089.98
717.504	34626.54
717.699	34366.45
717.893	34358.26
718.088	33885.18
718.282	34112.5
718.476	34489.33
718.671	34307.06
718.865	33829.88
719.059	33973.24
719.254	34251.77
719.448	34223.09
719.642	34513.91
719.837	33647.61
720.031	34313.2
720.225	34028.54
720.419	34063.35
720.614	33876.99
720.808	34665.46
721.002	33948.67
721.196	33940.47
721.39	33348.61
721.585	33891.32
721.779	33168.39
721.973	33154.05
722.167	33297.41
722.361	33651.71
722.555	33995.77
722.749	33348.61
722.943	33518.59
723.137	33420.29
723.331	33850.36
723.525	33164.29
723.719	33387.52
723.913	33903.61
724.107	33543.17
724.301	33143.81
724.495	33139.72
724.689	33442.82
724.883	33680.38
725.077	33469.44
725.271	33287.17
725.465	33842.17
725.659	33364.99
725.853	33485.83
726.046	33481.73
726.24	33211.4
726.434	33620.99
726.628	33453.06
726.822	33692.67
727.015	34085.88
727.209	33848.32
727.403	33569.79
727.596	32908.3
727.79	33874.94
727.984	33852.41
728.177	33422.34
728.371	33774.59
728.565	33569.79
728.758	33467.39
728.952	33377.28
729.146	33530.88
729.339	34147.32
729.533	33631.23
729.726	33561.6
729.92	33465.35
730.113	34057.21
730.307	33588.22
730.5	33197.06
730.694	33285.12
730.887	32742.41
731.081	33827.84
731.274	33293.32
731.468	33367.04
731.661	33643.52
731.854	33532.93
732.048	33428.48
732.241	32967.69
732.435	33084.42
732.628	33375.23
732.821	33254.4
733.014	33399.81
733.208	33559.55
733.401	33268.74
733.594	32957.45
733.788	33444.87
733.981	33598.46
734.174	33453.06
734.367	33201.16
734.56	33424.39
734.754	33846.27
734.947	33307.65
735.14	33043.46
735.333	33207.3
735.526	34175.99
735.719	33385.47
735.912	33416.19
736.105	33176.58
736.298	33719.29
736.491	33057.8
736.684	33047.56
736.877	33063.94
737.07	33176.58
737.263	33354.76
737.456	33258.5
737.649	33137.67
737.842	33399.81
738.035	33061.9
738.228	32703.5
738.421	33313.8
738.614	33201.16
738.807	33471.49
739	32789.52
739.192	32427.03
739.385	33158.15
739.578	33244.16
739.771	33025.03
739.964	32865.29
740.156	33379.33
740.349	32676.88
740.542	33100.81
740.735	32480.27
740.927	32654.35
741.12	32771.08
741.313	32578.57
741.505	33211.4
741.698	33111.05
741.891	32924.68
742.083	33109
742.276	33098.76
742.468	32664.59
742.661	32381.97
742.854	32902.15
743.046	32918.54
743.239	32883.72
743.431	32820.24
743.624	32533.52
743.816	32498.7
744.009	32656.4
744.201	32707.6
744.393	32881.67
744.586	32607.25
744.778	32609.29
744.971	32646.16
745.163	32433.17
745.355	32642.06
745.548	32277.52
745.74	32531.47
745.932	32519.18
746.125	31999
746.317	33201.16
746.509	32369.68
746.702	32506.9
746.894	32255
747.086	32345.11
747.278	32547.86
747.471	32568.34
747.663	32637.97
747.855	32044.06
748.047	32785.42
748.239	32115.73
748.431	31966.23
748.623	32777.23
748.815	32304.15
749.008	32064.53
749.2	32228.37
749.392	32554
749.584	32420.88
749.776	32216.08
749.968	32021.53
750.16	32416.79
750.352	31659.04
750.544	31953.94
750.736	31429.66
750.928	32365.59
751.12	31912.99
751.311	31396.9
751.503	31726.62
751.695	31933.46
751.887	31460.38
752.079	31839.26
752.271	31517.73
752.463	32803.85
752.654	32269.33
752.846	31790.11
753.038	31501.34
753.23	31747.1
753.421	31865.88
753.613	31468.58
753.805	31908.89
753.997	31695.9
754.188	31613.98
754.38	31249.44
754.572	31511.58
754.763	31792.15
754.955	31384.61
755.146	31038.5
755.338	31042.6
755.53	31212.58
755.721	31095.85
755.913	31333.41
756.104	30815.27
756.296	31106.09
756.487	31124.52
756.679	30993.45
756.87	30436.4
757.062	30645.29
757.253	31376.42
757.445	30473.26
757.636	30880.81
757.827	30682.16
758.019	31378.47
758.21	30420.02
758.401	30733.36
758.593	30975.02
758.784	31052.84
758.975	30284.85
759.167	30229.55
759.358	30972.97
759.549	31312.93
759.74	30188.6
759.932	30348.34
760.123	30862.38
760.314	30751.79
760.505	30336.05
760.696	30045.24
760.888	30880.81
761.079	30278.71
761.27	30106.68
761.461	30133.3
761.652	30516.27
761.843	30014.52
762.034	29910.07
762.225	29772.86
762.416	30450.74
762.607	29955.13
762.798	29987.89
762.989	29887.54
763.18	30874.66
763.371	30010.42
763.562	29848.63
763.753	29645.88
763.944	30164.02
764.135	30100.53
764.326	29924.41
764.517	29635.64
764.708	30192.69
764.899	30004.28
765.089	29815.87
765.28	29496.38
765.471	29588.54
765.662	29387.84
765.853	29330.5
766.043	29021.25
766.234	29877.3
766.425	29678.65
766.615	29043.78
766.806	29344.83
766.997	29797.43
767.187	29492.29
767.378	29295.68
767.569	28773.45
767.759	29393.98
767.95	29373.5
768.141	29226.05
768.331	29037.64
768.522	29150.28
768.712	28945.48
768.903	28945.48
769.093	28990.53
769.284	29606.97
769.474	28843.08
769.665	28580.94
769.855	28650.57
770.046	29371.46
770.236	28671.05
770.426	28623.95
770.617	28673.1
770.807	28935.24
770.998	29088.84
771.188	28703.82
771.378	28296.27
771.569	28863.56
771.759	28869.7
771.949	28105.81
772.139	28462.16
772.33	28236.88
772.52	28869.7
772.71	28453.97
772.9	27765.85
773.09	28746.83
773.281	28494.93
773.471	28118.1
773.661	27782.23
773.851	28230.74
774.041	27741.27
774.231	27358.3
774.421	27784.28
774.611	28046.42
774.802	27845.72
774.992	27622.49
775.182	27757.66
775.372	27864.15
775.562	27794.52
775.752	27800.66
775.942	27405.41
776.131	27778.14
776.321	27798.62
776.511	27710.55
776.701	27061.35
776.891	27323.49
777.081	27278.43
777.271	27180.13
777.461	27581.53
777.651	27466.84
777.84	27675.74
778.03	27102.31
778.22	27483.23
778.41	27704.41
778.599	27434.08
778.789	27276.38
778.979	26819.69
779.169	27288.67
779.358	27059.3
779.548	27413.6
779.738	26590.31
779.927	27221.09
780.117	26809.45
780.307	26661.99
780.496	26381.42
780.686	26698.86
780.875	27071.59
781.065	26614.89
781.254	26502.25
781.444	26406
781.633	26416.24
781.823	26086.51
782.012	26174.58
782.202	26340.46
782.391	25963.64
782.581	26045.55
782.77	26463.34
782.96	26535.02
783.149	25799.8
783.338	26156.14
783.528	26010.74
783.717	26416.24
783.906	26610.79
784.096	26154.1
784.285	26389.61
784.474	26078.32
784.663	25724.02
784.853	26063.99
785.042	25965.68
785.231	26010.74
785.42	26342.51
785.61	25840.76
785.799	25918.58
785.988	25752.7
786.177	26033.27
786.366	26066.03
786.555	25830.52
786.744	26221.68
786.933	25773.17
787.122	25339.01
787.312	25838.71
787.501	25455.74
787.69	26172.53
787.879	26004.6
788.068	25515.13
788.257	25285.76
788.445	25214.08
788.634	25625.72
788.823	25357.44
789.012	26289.26
789.201	26168.43
789.39	25433.21
789.579	25488.51
789.768	25658.49
789.957	25613.43
790.145	25539.71
790.334	25158.78
790.523	25367.68
790.712	25207.94
790.9	25013.38
791.089	24853.64
791.278	25132.16
791.467	24966.28
791.655	25025.67
791.844	25134.21
792.033	24691.85
792.221	24931.46
792.41	24673.42
792.599	24218.77
792.787	24937.6
792.976	25248.89
793.164	24585.35
793.353	24745.09
793.541	25003.14
793.73	25248.89
793.918	25132.16
794.107	24530.06
794.295	25003.14
794.484	24777.86
794.672	24319.12
794.861	24816.77
795.049	24630.41
795.238	25066.63
795.426	24452.23
795.614	24632.46
795.803	24695.94
795.991	24835.21
796.179	24372.36
796.368	24241.29
796.556	24657.03
796.744	24362.12
796.932	24231.05
797.121	24097.94
797.309	24235.15
797.497	24620.17
797.685	24396.94
797.874	24568.97
798.062	24106.13
798.25	24317.07
798.438	24521.87
798.626	24321.16
798.814	24603.78
799.002	25007.23
799.19	24317.07
799.378	23887
799.566	24288.4
799.755	24396.94
799.943	23868.56
800.131	23743.64
800.318	24245.39
800.506	24138.9
800.694	24134.8
800.882	24329.36
801.07	24480.91
801.258	24056.98
801.446	23927.95
801.634	23669.91
801.822	24173.71
802.01	23975.06
802.197	24136.85
802.385	24614.02
802.573	24540.3
802.761	24265.87
802.949	24503.43
803.136	24024.21
803.324	24515.72
803.512	24562.83
803.699	24132.75
803.887	24292.49
804.075	25007.23
804.262	24562.83
804.45	24325.26
804.638	24456.33
804.825	24704.14
805.013	24341.64
805.201	24554.63
805.388	24396.94
805.576	24597.64
805.763	24990.85
805.951	24302.73
806.138	24409.23
806.326	24845.44
806.513	24609.93
806.701	24323.21
806.888	24034.45
807.075	24487.05
807.263	24566.92
807.45	24216.72
807.638	24155.28
807.825	24810.63
808.012	24837.25
808.2	24267.92
808.387	24734.85
808.574	25093.25
808.761	24820.87
808.949	24470.67
809.136	24439.95
809.323	24355.98
809.51	24460.43
809.698	24595.59
809.885	24517.77
810.072	24781.96
810.259	25177.22
810.446	24773.77
810.633	24587.4
810.82	25242.75
811.008	25543.8
811.195	24689.8
811.382	25058.43
811.569	25001.09
811.756	24712.33
811.943	24730.76
812.13	24444.04
812.317	24528.01
812.504	24614.02
812.691	24710.28
812.878	24757.38
813.064	25107.58
813.251	24822.92
813.438	24632.46
813.625	24536.2
813.812	24804.49
813.999	24497.29
814.186	24935.56
814.372	24792.2
814.559	24863.88
814.746	24683.66
814.933	24560.78
815.12	24589.45
815.306	24749.19
815.493	24540.3
815.68	24685.7
815.866	24595.59
816.053	25013.38
816.24	25277.57
816.426	24773.77
816.613	24970.37
816.799	24781.96
816.986	24722.57
817.173	24497.29
817.359	24265.87
817.546	24388.75
817.732	23979.15
817.919	24390.8
818.105	24587.4
818.292	24190.09
818.478	24652.94
818.665	24761.48
818.851	24851.59
819.037	25080.96
819.224	24421.52
819.41	24427.66
819.597	24071.31
819.783	24503.43
819.969	24702.09
820.156	24413.32
820.342	24233.1
820.528	25052.29
820.714	24218.77
820.901	24382.6
821.087	23868.56
821.273	24505.48
821.459	24001.68
821.646	24071.31
821.832	24229.01
822.018	24024.21
822.204	23817.36
822.39	24128.66
822.576	23874.71
822.762	24122.51
822.948	24179.86
823.134	24120.46
823.32	23403.67
823.507	23821.46
823.693	24165.52
823.879	24040.59
824.065	23669.91
824.25	23950.48
824.436	23610.52
824.622	23739.54
824.808	23706.77
824.994	24007.83
825.18	23760.02
825.366	23602.33
825.552	23833.75
825.738	23717.01
825.923	23809.17
826.109	23721.11
826.295	23536.79
826.481	23309.47
826.667	23528.6
826.852	23950.48
827.038	23579.8
827.224	23887
827.409	23997.59
827.595	23379.1
827.781	23411.87
827.966	23735.45
828.152	23870.61
828.338	23184.54
828.523	23022.75
828.709	23547.03
828.894	23454.87
829.08	23387.29
829.266	23334.04
829.451	22914.21
829.637	23352.48
829.822	22967.46
830.008	22672.55
830.193	23172.25
830.378	22877.35
830.564	22766.76
830.749	22604.97
830.935	23016.61
831.12	23028.9
831.305	22607.02
831.491	22815.91
831.676	22527.14
831.861	22719.65
832.047	22789.28
832.232	22412.46
832.417	23184.54
832.602	22789.28
832.788	22492.33
832.973	22781.09
833.158	22664.36
833.343	22830.24
833.528	22885.54
833.714	22609.06
833.899	22733.99
834.084	22731.94
834.269	22353.07
834.454	22412.46
834.639	22631.59
834.824	22660.26
835.009	22514.86
835.194	22635.69
835.379	22981.79
835.564	22490.28
835.749	22285.48
835.934	22013.1
836.119	21945.52
836.304	22041.78
836.489	22041.78
836.674	22211.76
836.859	21710
837.044	22586.54
837.228	22281.39
837.413	22113.45
837.598	22592.68
837.783	22039.73
837.968	22207.66
838.152	21849.27
838.337	22023.34
838.522	22590.63
838.707	22406.31
838.891	21873.84
839.076	22226.09
839.261	22019.25
839.445	21767.35
839.63	21847.22
839.815	22174.89
839.999	22107.31
840.184	21750.96
840.368	21877.94
840.553	21908.66
840.737	21898.42
840.922	21382.33
841.106	21519.54
841.291	21372.09
841.475	21918.9
841.66	21572.79
841.844	21251.26
842.029	22381.74
842.213	21312.7
842.397	21308.6
842.582	21116.09
842.766	21828.79
842.951	21828.79
843.135	21308.6
843.319	21220.54
843.504	21456.06
843.688	21654.71
843.872	21171.39
844.056	21482.68
844.241	21367.99
844.425	21349.56
844.609	21290.17
844.793	21058.75
844.977	21441.72
845.161	21232.83
845.346	20956.35
845.53	20851.91
845.714	21054.65
845.898	21132.48
846.082	20632.77
846.266	20958.4
846.45	21191.87
846.634	21150.91
846.818	20675.78
847.002	20960.45
847.186	21132.48
847.37	20417.74
847.554	20516.04
847.738	20778.18
847.922	20712.64
848.106	20901.06
848.29	20677.83
848.473	20876.48
848.657	20739.27
848.841	20518.09
849.025	20600.01
849.209	20374.73
849.392	20577.48
849.576	20638.92
849.76	20159.69
849.944	20614.34
850.127	20995.26
850.311	20462.79
850.495	20368.59
850.678	20309.19
850.862	20643.01
851.046	21011.65
851.229	20686.02
851.413	19948.75
851.596	20241.61
851.78	20557
851.964	20430.02
852.147	19954.9
852.331	21015.74
852.514	20319.43
852.698	19793.11
852.881	19545.3
853.065	19963.09
853.248	19889.36
853.431	19969.23
853.615	19727.57
853.798	20366.54
853.982	20192.46
854.165	19993.81
854.348	19438.81
854.532	19719.38
854.715	19707.09
854.898	19664.08
855.081	19551.45
855.265	20219.08
855.448	20186.32
855.631	19686.61
855.814	19563.73
855.997	19850.45
856.181	19422.42
856.364	19498.2
856.547	19487.96
856.73	20038.86
856.913	19848.4
857.096	19285.21
857.279	19510.49
857.462	19109.08
857.645	19600.6
857.828	19735.76
858.011	19397.85
858.194	19199.2
858.377	19590.36
858.56	18982.11
858.743	19403.99
858.926	18920.67
859.109	19346.65
859.292	18904.29
859.475	18785.51
859.658	19436.76
859.841	19131.61
860.023	18842.85
860.206	18611.43
860.389	19139.8
860.572	19053.79
860.755	18814.18
860.937	18586.85
861.12	18816.22
861.303	18978.01
861.486	18752.74
861.668	18576.61
861.851	18853.09
862.034	18726.11
862.216	18816.22
862.399	18380.01
862.581	19029.21
862.764	18863.33
862.947	18453.73
863.129	18328.81
863.312	18554.08
863.494	18738.4
863.677	18593
863.859	18156.78
864.042	18869.47
864.224	18724.07
864.406	18031.85
864.589	17835.25
864.771	17931.5
864.954	17704.18
865.136	17687.79
865.318	17788.14
865.501	18003.18
865.683	18005.23
865.865	17947.89
866.048	17814.77
866.23	18089.2
866.412	17708.27
866.594	17853.68
866.777	17886.45
866.959	18275.56
867.141	17640.69
867.323	17919.21
867.505	18175.21
867.687	17757.43
867.869	17960.17
868.052	17698.03
868.234	17358.07
868.416	17741.04
868.598	18035.95
868.78	17263.86
868.962	17448.18
869.144	17816.82
869.326	17956.08
869.508	17458.42
869.69	17396.98
869.872	17425.65
870.054	17906.93
870.236	17106.17
870.417	17108.22
870.599	17528.05
870.781	18046.19
870.963	17362.17
871.145	17403.13
871.327	17276.15
871.508	17511.67
871.69	17384.69
871.872	17364.22
872.054	17431.8
872.235	17446.13
872.417	17280.25
872.599	17227
872.78	17833.2
872.962	17798.38
873.144	17315.06
873.325	17519.86
873.507	18167.02
873.689	17495.29
873.87	16921.85
874.052	17597.68
874.233	17358.07
874.415	17511.67
874.596	17321.21
874.778	17188.09
874.959	17491.19
875.141	17767.66
875.322	17368.31
875.503	17233.15
875.685	17364.22
875.866	16999.68
876.048	17046.78
876.229	17280.25
876.41	17220.86
876.592	17579.25
876.773	17372.41
876.954	17323.26
877.136	17941.74
877.317	17548.53
877.498	16917.76
877.679	17091.84
877.86	17609.97
878.042	17708.27
878.223	17425.65
878.404	17698.03
878.585	17822.96
878.766	17853.68
878.947	17435.89
879.128	17919.21
879.309	17716.47
879.49	17753.33
879.672	17769.71
879.853	17626.36
880.034	17591.54
880.215	17927.41
880.396	17968.37
880.576	17587.44
880.757	17851.63
880.938	18093.29
881.119	17597.68
881.3	17599.73
881.481	18158.83
881.662	18842.85
881.843	17540.34
882.023	17603.83
882.204	17941.74
882.385	17808.62
882.566	17923.31
882.747	17884.4
882.927	18164.97
883.108	18218.22
883.289	17997.04
883.469	18156.78
883.65	18203.88
883.831	18447.59
884.011	18310.38
884.192	18091.24
884.373	18506.98
884.553	18613.48
884.734	18337
884.914	18543.85
885.095	19113.18
885.275	18937.06
885.456	18691.3
885.636	18179.31
885.817	18371.82
885.997	18535.65
886.178	18597.09
886.358	18130.16
886.538	18599.14
886.719	19512.53
886.899	18420.97
887.08	18527.46
887.26	18810.08
887.44	18361.58
887.621	18455.78
887.801	18740.45
887.981	19166.43
888.161	19039.45
888.342	18371.82
888.522	18513.13
888.702	18924.77
888.882	18992.35
889.062	18593
889.242	18443.49
889.423	19143.9
889.603	18699.49
889.783	19166.43
889.963	18511.08
890.143	19240.15
890.323	18914.53
890.503	19037.41
890.683	18633.96
890.863	18846.94
891.043	18939.1
891.223	18808.03
891.403	19068.13
891.583	18969.82
891.763	18996.45
891.943	19186.91
892.122	18656.48
892.302	19227.87
892.482	19102.94
892.662	19055.84
892.842	19328.22
893.022	19360.98
893.201	18932.96
893.381	19152.09
893.561	19037.41
893.741	19109.08
893.92	19313.88
894.1	19254.49
894.28	18984.16
894.459	19137.76
894.639	19223.77
894.819	19070.17
894.998	18875.62
895.178	19360.98
895.357	19219.67
895.537	18803.94
895.716	18750.69
895.896	18875.62
896.075	19254.49
896.255	18861.28
896.434	18674.92
896.614	18830.56
896.793	19313.88
896.973	18881.76
897.152	18660.58
897.331	19303.64
897.511	19690.71
897.69	18734.31
897.87	18760.93
898.049	19066.08
898.228	18963.68
898.407	19010.78
898.587	18848.99
898.766	18996.45
898.945	19135.71
899.124	19084.51
899.304	19219.67
899.483	19229.91
899.662	19426.52
899.841	18588.9
900.02	18865.38
900.199	19008.73
900.378	19133.66
900.557	18748.64
900.737	18447.59
900.916	19021.02
901.095	18765.03
901.274	18595.04
901.453	18554.08
901.632	18373.86
901.811	18283.75
901.989	18060.52
902.168	18283.75
902.347	18613.48
902.526	18136.3
902.705	18599.14
902.884	18113.77
903.063	19051.74
903.242	18783.46
903.42	18269.42
903.599	18330.86
903.778	18593
903.957	18785.51
904.135	18435.3
904.314	18185.45
904.493	18631.91
904.672	18502.89
904.85	18433.25
905.029	18212.07
905.207	18480.36
905.386	19330.27
905.565	17749.23
905.743	17822.96
905.922	18031.85
906.1	18281.71
906.279	17765.62
906.457	17626.36
906.636	17743.09
906.814	17925.36
906.993	17835.25
907.171	17927.41
907.35	17833.2
907.528	18083.05
907.707	17667.31
907.885	17472.76
908.063	17964.27
908.242	17419.51
908.42	17536.24
908.598	17204.47
908.777	17685.75
908.955	17544.44
909.133	17390.84
909.311	17198.33
909.49	17433.85
909.668	17442.04
909.846	17587.44
910.024	17202.43
910.202	17665.27
910.38	17616.12
910.559	17229.05
910.737	16962.81
910.915	17347.83
911.093	17083.64
911.271	17175.8
911.449	17450.23
911.627	17149.18
911.805	17194.23
911.983	16555.27
912.161	16635.14
912.339	16858.37
912.517	16823.55
912.695	16686.34
912.872	16411.91
913.05	16532.74
913.228	16491.78
913.406	16209.16
913.584	16217.35
913.762	16645.38
913.939	16076.04
914.117	16094.47
914.295	16180.49
914.473	16573.7
914.65	16291.08
914.828	16067.85
915.006	15887.63
915.184	16164.11
915.361	16373
915.539	16321.8
915.716	16096.52
915.894	16340.23
916.072	16452.87
916.249	16350.47
916.427	16289.03
916.604	16057.61
916.782	16182.54
916.959	16065.8
917.137	15856.91
917.314	16278.79
917.492	16221.45
917.669	15740.18
917.847	15955.21
918.024	15818
918.201	15664.4
918.379	15564.05
918.556	15301.91
918.733	15512.85
918.911	15396.12
919.088	15369.49
919.265	15222.04
919.442	15189.27
919.62	14865.69
919.797	15017.24
919.974	15000.86
920.151	15303.96
920.328	15162.65
920.506	15013.15
920.683	15349.01
920.86	14798.11
921.037	15052.06
921.214	14841.12
921.391	14820.64
921.568	15086.87
921.745	14740.77
921.922	14611.75
922.099	14460.2
922.276	15072.54
922.453	15234.33
922.63	14630.18
922.807	14746.91
922.984	14646.56
923.161	14611.75
923.338	14732.58
923.514	14576.93
923.691	14986.52
923.868	14769.44
924.045	14357.8
924.222	14185.77
924.399	14722.34
924.575	14791.97
924.752	14458.15
924.929	14406.95
925.105	14595.36
925.282	14382.37
925.459	14175.53
925.635	14253.35
925.812	14284.07
925.989	13810.99
926.165	14196.01
926.342	13974.83
926.518	13954.35
926.695	14105.9
926.871	13886.76
927.048	13667.63
927.224	14107.94
927.401	13454.64
927.577	13516.08
927.754	13299
927.93	13821.23
928.107	13634.86
928.283	13417.78
928.459	13440.31
928.636	13399.35
928.812	13147.45
928.988	13292.85
929.165	13192.5
929.341	13477.17
929.517	13387.06
929.693	13456.69
929.87	12838.2
930.046	13301.05
930.222	12903.74
930.398	12780.86
930.574	12696.89
930.751	12881.21
930.927	12789.05
931.103	12700.99
931.279	12291.4
931.455	12369.22
931.631	12420.42
931.807	12311.88
931.983	12229.96
932.159	11959.63
932.335	12455.23
932.511	12092.74
932.687	11908.43
932.863	12229.96
933.039	11973.96
933.215	11543.89
933.391	11562.32
933.566	12113.22
933.742	11957.58
933.918	11765.07
934.094	11482.45
934.27	11857.23
934.445	11611.47
934.621	11566.42
934.797	11042.14
934.973	11461.97
935.148	11273.56
935.324	10972.5
935.5	10812.76
935.675	11195.73
935.851	10841.43
936.027	10419.55
936.202	10485.09
936.378	10517.86
936.553	10421.6
936.729	10431.84
936.904	10075.49
937.08	9626.99
937.255	9641.32
937.431	9442.67
937.606	9104.76
937.782	9061.75
937.957	9338.23
938.133	9078.13
938.308	8613.24
938.483	8822.14
938.659	8467.84
938.834	8486.27
939.009	8336.77
939.185	8244.61
939.36	7777.67
939.535	7679.37
939.71	8035.72
939.886	8320.39
940.061	8138.12
940.236	7746.95
940.411	7658.89
940.586	7800.2
940.761	7980.42
940.937	7531.92
941.112	7386.51
941.287	7476.62
941.462	7316.88
941.637	7214.48
941.812	7179.67
941.987	7282.06
942.162	7275.92
942.337	6942.1
942.512	6946.2
942.687	7331.22
942.862	7441.81
943.037	6616.48
943.212	6579.61
943.386	6870.42
943.561	6913.43
943.736	6985.11
943.911	7003.54
944.086	7153.04
944.26	7019.92
944.435	6823.32
944.61	6964.63
944.785	7347.6
944.959	7331.22
945.134	6639
945.309	6751.64
945.483	6636.95
945.658	7081.36
945.833	6419.87
946.007	6690.2
946.182	7263.63
946.357	6522.27
946.531	6602.14
946.706	6528.41
946.88	6421.92
947.055	6806.94
947.229	6727.07
947.404	6763.93
947.578	7079.32
947.752	6675.87
947.927	6579.61
948.101	6546.84
948.276	6966.68
948.45	7107.99
948.624	7015.83
948.799	6755.74
948.973	7032.21
949.147	6614.43
949.321	6938.01
949.496	6921.62
949.67	7370.13
949.844	7116.18
950.018	7009.69
950.193	6905.24
950.367	7482.77
950.541	7062.93
950.715	7335.31
950.889	7300.5
951.063	7564.68
951.237	7421.33
951.411	6923.67
951.585	7028.12
951.759	7402.9
951.933	7413.13
952.107	7206.29
952.281	7554.44
952.455	7798.15
952.629	7568.78
952.803	7429.52
952.977	7372.18
953.151	7544.2
953.325	7589.26
953.499	7435.66
953.672	7292.3
953.846	7292.3
954.02	7607.69
954.194	7568.78
954.368	7376.27
954.541	7777.67
954.715	7318.93
954.889	7445.9
955.062	7501.2
955.236	7703.95
955.41	7538.06
955.583	7546.25
955.757	7497.1
955.93	7613.84
956.104	7329.17
956.278	7583.12
956.451	7716.23
956.625	7945.61
956.798	8242.56
956.972	7781.77
957.145	7380.37
957.319	7818.63
957.492	7773.58
957.665	7761.29
957.839	7527.82
958.012	7853.45
958.185	7517.58
958.359	7675.27
958.532	7779.72
958.705	7779.72
958.879	7835.02
959.052	7519.63
959.225	7472.53
959.398	7759.24
959.572	7980.42
959.745	7820.68
959.918	7847.3
960.091	7757.19
960.264	8095.11
960.438	7519.63
960.611	7531.92
960.784	7947.65
960.957	7482.77
961.13	7859.59
961.303	7581.07
961.476	7814.54
961.649	7912.84
961.822	7540.11
961.995	7720.33
962.168	8158.6
962.341	7890.31
962.514	7654.8
962.686	7632.27
962.859	7808.39
963.032	7832.97
963.205	7624.08
963.378	7415.18
963.551	7812.49
963.723	7613.84
963.896	7665.04
964.069	7636.36
964.242	7617.93
964.414	7749
964.587	7378.32
964.76	7376.27
964.932	7691.66
965.105	7783.82
965.278	7370.13
965.45	7521.68
965.623	7798.15
965.795	7830.92
965.968	7452.05
966.14	7415.18
966.313	7564.68
966.485	7810.44
966.658	7443.85
966.83	7388.56
967.003	7908.74
967.175	7769.48
967.348	7452.05
967.52	7441.81
967.692	7830.92
967.865	7509.39
968.037	7294.35
968.209	7427.47
968.382	7562.64
968.554	7560.59
968.726	7359.89
968.898	7255.44
969.071	7452.05
969.243	7705.99
969.415	7296.4
969.587	7255.44
969.759	8035.72
969.932	7560.59
970.104	7298.45
970.276	7034.26
970.448	7116.18
970.62	7306.64
970.792	7423.37
970.964	7312.78
971.136	7792.01
971.308	7433.61
971.48	7181.71
971.652	7064.98
971.824	7439.76
971.996	7130.52
972.168	7142.8
972.339	7224.72
972.511	7507.34
972.683	7159.19
972.855	7384.46
973.027	7189.91
973.199	7157.14
973.37	7482.77
973.542	7224.72
973.714	7140.76
973.886	7167.38
974.057	7234.96
974.229	6851.99
974.401	7036.31
974.572	6950.29
974.744	6626.71
974.915	6700.44
975.087	7009.69
975.259	7495.05
975.43	6722.97
975.602	6829.46
975.773	6733.21
975.945	6991.25
976.116	7179.67
976.288	6782.36
976.459	6897.05
976.63	6772.12
976.802	6905.24
976.973	6495.64
977.145	6716.83
977.316	7075.22
977.487	6995.35
977.659	6598.04
977.83	6493.6
978.001	7136.66
978.172	6909.33
978.344	6651.29
978.515	6552.99
978.686	6743.45
978.857	6983.06
979.028	6509.98
979.2	6526.36
979.371	6860.18
979.542	6788.5
979.713	6589.85
979.884	6266.27
980.055	6327.71
980.226	6450.59
980.397	6432.16
980.568	6325.66
980.739	6688.15
980.91	6340
981.081	6387.1
981.252	6155.68
981.423	6550.94
981.594	6802.84
981.765	6419.87
981.936	6346.14
982.106	6387.1
982.277	6534.56
982.448	6026.66
982.619	6319.52
982.79	6137.25
982.96	6733.21
983.131	6440.35
983.302	5959.08
983.472	6122.91
983.643	6272.42
983.814	6393.25
983.984	5936.55
984.155	6114.72
984.326	6356.38
984.496	6290.85
984.667	5897.64
984.837	6260.13
985.008	6362.53
985.178	6075.81
985.349	6010.28
985.519	5907.88
985.69	5965.22
985.86	6024.61
986.031	6004.13
986.201	5871.01
986.371	5944.74
986.542	5762.47
986.712	5442.99
986.882	5957.03
987.053	6028.71
987.223	5770.66
987.393	5926.31
987.563	5823.91
987.734	5834.15
987.904	5815.72
988.074	5676.46
988.244	5838.25
988.414	5600.68
988.585	5615.02
988.755	5780.9
988.925	5860.77
989.095	5991.84
989.265	5533.1
989.435	5680.55
989.605	5758.38
989.775	5938.6
989.945	5737.9
990.115	5369.26
990.285	5830.06
990.455	5619.11
990.625	5381.55
990.795	5297.58
990.965	5901.73
991.134	5107.12
991.304	5277.1
991.474	5100.98
991.644	5367.21
991.814	5698.99
991.984	5078.45
992.153	5021.11
992.323	5209.52
992.493	5311.92
992.662	4896.18
992.832	5258.67
993.002	5324.21
993.171	5289.39
993.341	5027.25
993.511	5320.11
993.68	5055.92
993.85	5350.83
994.019	4883.89
994.189	4980.15
994.358	5242.29
994.528	5139.89
994.697	4677.05
994.867	4935.09
995.036	5225.9
995.206	5035.44
995.375	4920.76
995.544	4939.19
995.714	4896.18
995.883	4824.5
996.052	4957.62
996.222	4550.07
996.391	5447.08
996.56	4826.55
996.73	4611.51
996.899	4568.51
997.068	5330.35
997.237	4748.73
997.406	4466.11
997.576	4576.7
997.745	4728.25
997.914	4840.89
998.083	4310.46
998.252	4419
998.421	4535.74
998.59	4548.03
998.759	4404.67
998.928	4267.45
999.097	4926.9
999.266	4711.86
999.435	4564.41
999.604	4236.74
999.773	5062.07
999.942	4554.17
1000.111	4271.55
1000.28	4326.85
1000.448	4451.77
1000.617	4259.26
1000.786	4529.59
1000.955	4042.18
1001.124	4431.29
1001.292	5051.83
1001.461	4255.17
1001.63	4218.3
1001.798	4945.33
1001.967	4691.38
1002.136	3835.33
1002.304	3939.78
1002.473	4289.98
1002.642	4285.89
1002.81	4097.47
1002.979	3952.07
1003.147	4322.75
1003.316	4666.81
1003.484	3956.16
1003.653	3777.99
1003.821	4314.56
1003.99	4015.55
1004.158	4140.48
1004.327	4109.76
1004.495	4085.19
1004.663	3847.62
1004.832	4044.23
1005	3620.3
1005.168	4036.03
1005.337	3927.49
1005.505	3544.52
1005.673	3806.66
1005.842	4042.18
1006.01	3939.78
1006.178	3698.12
1006.346	3653.06
1006.514	4091.33
1006.683	4165.06
1006.851	3538.38
1007.019	3560.91
1007.187	3497.42
1007.355	3286.48
1007.523	3532.23
1007.691	3321.29
1007.859	3442.12
1008.027	3931.59
1008.195	3526.09
1008.363	3278.29
1008.531	3966.4
1008.699	3503.56
1008.867	3173.84
1009.035	3360.2
1009.203	3966.4
1009.37	3605.96
1009.538	3315.15
1009.706	3696.07
1009.874	3558.86
1010.042	3399.12
1010.209	3175.89
1010.377	3347.92
1010.545	3689.93
1010.713	3683.78
1010.88	3384.78
1011.048	3247.57
1011.216	3360.2
1011.383	3644.87
1011.551	3065.3
1011.718	3044.82
1011.886	3478.99
1012.054	3286.48
1012.221	3139.02
1012.389	3059.15
1012.556	3171.79
1012.724	3687.88
1012.891	3091.92
1013.058	2921.94
1013.226	3274.19
1013.393	3294.67
1013.561	2866.64
1013.728	2760.15
1013.895	3274.19
1014.063	3171.79
1014.23	2981.33
1014.397	2780.63
1014.565	3372.49
1014.732	3059.15
1014.899	2938.32
1015.066	2774.49
1015.233	3136.98
1015.401	3313.1
1015.568	2876.88
1015.735	2786.77
1015.902	3083.73
1016.069	3141.07
1016.236	2811.35
1016.403	2721.24
1016.57	2770.39
1016.737	3186.13
1016.904	2756.05
1017.071	2538.97
1017.238	2768.34
1017.405	2979.28
1017.572	2639.32
1017.739	2702.81
1017.906	2923.99
1018.073	3016.15
1018.24	2586.07
1018.407	2440.67
1018.573	3122.64
1018.74	2602.46
1018.907	2555.35
1019.074	2371.04
1019.241	2969.04
1019.407	2692.57
1019.574	2356.7
1019.741	2354.65
1019.907	2692.57
1020.074	2940.37
1020.241	2325.98
1020.407	2311.64
1020.574	2844.12
1020.74	2786.77
1020.907	2364.89
1021.073	2164.19
1021.24	3046.87
1021.406	2997.71
1021.573	2254.3
1021.739	2299.36
1021.906	2749.91
1022.072	2295.26
1022.239	2264.54
1022.405	2203.1
1022.571	2528.73
1022.738	2383.32
1022.904	2225.63
1023.07	2266.59
1023.237	2414.04
1023.403	2581.98
1023.569	2108.9
1023.735	2229.73
1023.902	2479.58
1024.068	2432.47
1024.234	2031.07
1024.4	2172.38
1024.566	2399.71
1024.732	2504.15
1024.898	1895.91
1025.065	1965.54
1025.231	2473.43
1025.397	2215.39
1025.563	2252.25
1025.729	1934.82
1025.895	1959.39
1026.061	2121.18
1026.227	1873.38
1026.392	2043.36
1026.558	2528.73
1026.724	2268.64
1026.89	1807.84
1027.056	1877.48
1027.222	2264.54
1027.388	1979.87
1027.553	1883.62
1027.719	1840.61
1027.885	2358.75
1028.051	2170.33
1028.216	1789.41
1028.382	1824.23
1028.548	2145.76
1028.713	2117.09
1028.879	1635.82
1029.045	1949.15
1029.21	2397.66
1029.376	2252.25
1029.541	1867.24
1029.707	1830.37
1029.873	2031.07
1030.038	2248.16
1030.204	1660.39
1030.369	1807.84
1030.534	2014.69
1030.7	1822.18
1030.865	1783.27
1031.031	1658.34
1031.196	2002.4
1031.361	1932.77
1031.527	1611.24
1031.692	1486.31
1031.857	1596.9
1032.023	1938.91
1032.188	1547.75
1032.353	1623.53
1032.518	2211.29
1032.684	1846.76
1032.849	1486.31
1033.014	1598.95
1033.179	1979.87
1033.344	1959.39
1033.509	1523.18
1033.674	1539.56
1033.839	1834.47
1034.004	1785.32
1034.17	1484.27
1034.335	1451.5
1034.5	1570.28
1034.664	1603.05
1034.829	1404.39
1034.994	1410.54
1035.159	1791.46
1035.324	1779.17
1035.489	1342.96
1035.654	1345
1035.819	1797.6
1035.984	1682.92
1036.148	1517.03
1036.313	1263.08
1036.478	1805.8
1036.643	1560.04
1036.807	1232.37
1036.972	1258.99
1037.137	1981.92
1037.301	1478.12
1037.466	1138.16
1037.631	1351.15
1037.795	1834.47
1037.96	1596.9
1038.124	1461.74
1038.289	1138.16
1038.454	1633.77
1038.618	1670.63
1038.783	1310.19
1038.947	1392.11
1039.111	1650.15
1039.276	1385.96
1039.44	1183.21
1039.605	1557.99
1039.769	1416.68
1039.933	1431.02
1040.098	1269.23
1040.262	1457.64
1040.426	1621.48
1040.591	1723.88
1040.755	1074.67
1040.919	1222.13
1041.083	1560.04
1041.248	1355.24
1041.412	1017.33
1041.576	1072.62
1041.74	1345
1041.904	1560.04
1042.068	1082.86
1042.232	1095.15
1042.397	1555.94
1042.561	1453.55
1042.725	923.12
1042.889	1330.67
1043.053	1598.95
1043.217	1582.57
1043.381	1089.01
1043.544	986.61
1043.708	1709.54
1043.872	1089.01
1044.036	820.72
1044.2	873.97
1044.364	1553.9
1044.528	1631.72
1044.691	3358.16
1044.855	947.7
1045.019	1383.91
1045.183	1304.04
1045.346	1052.14
1045.51	947.7
1045.674	1222.13
1045.837	1422.83
1046.001	994.8
1046.165	943.6
1046.328	1791.46
1046.492	1324.52
1046.655	1117.68
1046.819	976.37
1046.983	1052.14
1047.146	1240.56
1047.31	1019.38
1047.473	787.96
1047.636	1230.32
1047.8	841.2
1047.963	955.89
1048.127	878.07
1048.29	953.84
