Data from Ink_Intensity_USB4F045381__160__00160.txt Node

Date: Mon Jul 17 11:33:16 EDT 2023
User: mmckonesweet
Spectrometer: USB4F04538
Trigger mode: 4
Integration Time (sec): 9.000000E-1
Scans to average: 1
Electric dark correction enabled: true
Nonlinearity correction enabled: false
Boxcar width: 0
XAxis mode: Wavelengths
Number of Pixels in Spectrum: 3648
>>>>>Begin Spectral Data<<<<<
345.52	-1060.85
345.736	-1060.85
345.952	-1060.85
346.168	-1056.75
346.384	-978.93
346.6	-122.88
346.816	-192.51
347.032	-243.71
347.248	282.62
347.464	-155.65
347.68	-176.13
347.896	53.25
348.112	364.54
348.328	-12.29
348.544	-28.67
348.76	55.3
348.975	176.13
349.191	-221.18
349.407	-266.24
349.623	14.34
349.839	-4.1
350.055	-157.69
350.27	47.1
350.486	188.41
350.702	313.34
350.918	116.73
351.133	-159.74
351.349	145.41
351.565	401.4
351.781	-192.51
351.996	-2.05
352.212	286.72
352.428	-206.84
352.644	-264.19
352.859	-282.62
353.075	251.9
353.291	96.25
353.506	-194.56
353.722	-249.85
353.938	-79.87
354.153	448.51
354.369	79.87
354.584	-378.87
354.8	202.75
355.016	-323.58
355.231	-286.72
355.447	-94.21
355.662	40.96
355.878	884.72
356.093	-342.01
356.309	-32.77
356.524	-233.47
356.74	188.41
356.955	-172.03
357.171	-110.59
357.386	73.73
357.602	-219.13
357.817	-55.3
358.033	-180.22
358.248	399.35
358.464	124.93
358.679	-147.45
358.895	-411.64
359.11	-14.34
359.325	241.66
359.541	-43.01
359.756	-67.58
359.972	-233.47
360.187	135.17
360.402	-196.61
360.618	-135.17
360.833	966.64
361.048	163.84
361.264	-245.76
361.479	-90.11
361.694	94.21
361.909	190.46
362.125	-268.28
362.34	-4.1
362.555	143.36
362.77	32.77
362.986	-307.2
363.201	-200.7
363.416	118.78
363.631	-2.05
363.847	-192.51
364.062	-200.7
364.277	159.74
364.492	-12.29
364.707	-120.83
364.922	-352.25
365.138	178.17
365.353	296.96
365.568	-337.91
365.783	-161.79
365.998	38.91
366.213	540.66
366.428	-321.53
366.643	81.92
366.858	182.27
367.073	131.07
367.288	-172.03
367.503	-296.96
367.718	57.34
367.933	303.1
368.148	-280.57
368.363	-90.11
368.578	32.77
368.793	419.83
369.008	-167.93
369.223	-235.52
369.438	163.84
369.653	335.87
369.868	-241.66
370.083	-296.96
370.298	12.29
370.513	348.15
370.728	-26.62
370.943	-141.31
371.157	-188.41
371.372	550.9
371.587	-323.58
371.802	-315.39
372.017	10.24
372.232	446.46
372.446	-71.68
372.661	-299
372.876	129.02
373.091	90.11
373.306	-77.82
373.52	-266.24
373.735	-188.41
373.95	358.39
374.165	-135.17
374.379	-100.35
374.594	-133.12
374.809	51.2
375.023	-67.58
375.238	-206.84
375.453	225.28
375.667	-264.19
375.882	-194.56
376.097	-196.61
376.311	-8.19
376.526	-53.25
376.741	-299
376.955	24.58
377.17	561.14
377.384	479.22
377.599	-159.74
377.813	-309.24
378.028	540.66
378.242	153.6
378.457	-106.49
378.672	-362.49
378.886	24.58
379.101	-77.82
379.315	-487.42
379.53	-208.89
379.744	200.7
379.958	106.49
380.173	-217.08
380.387	-227.32
380.602	135.17
380.816	-167.93
381.031	-178.17
381.245	-260.09
381.459	143.36
381.674	2562.01
381.888	-249.85
382.103	77.82
382.317	-212.99
382.531	401.4
382.746	-116.73
382.96	-208.89
383.174	-155.65
383.388	423.93
383.603	-53.25
383.817	-317.44
384.031	112.64
384.246	421.88
384.46	-28.67
384.674	274.43
384.888	-16.38
385.103	16.38
385.317	-319.48
385.531	-53.25
385.745	303.1
385.959	290.81
386.174	-256
386.388	-282.62
386.602	36.86
386.816	-135.17
387.03	-61.44
387.244	-110.59
387.458	24.58
387.672	233.47
387.887	-251.9
388.101	-294.91
388.315	296.96
388.529	161.79
388.743	-126.97
388.957	-339.96
389.171	266.24
389.385	-190.46
389.599	-124.93
389.813	-2.05
390.027	112.64
390.241	612.34
390.455	-204.8
390.669	-159.74
390.883	-30.72
391.097	327.68
391.311	49.15
391.525	-165.89
391.738	104.45
391.952	18.43
392.166	-102.4
392.38	-323.58
392.594	225.28
392.808	335.87
393.022	-126.97
393.236	-186.37
393.449	174.08
393.663	139.26
393.877	-311.29
394.091	-139.26
394.305	-69.63
394.518	-161.79
394.732	-262.14
394.946	-161.79
395.16	428.03
395.373	79.87
395.587	-280.57
395.801	-258.04
396.015	274.43
396.228	143.36
396.442	-339.96
396.656	-409.59
396.869	350.2
397.083	366.59
397.297	-133.12
397.51	-135.17
397.724	266.24
397.938	186.37
398.151	-301.05
398.365	-311.29
398.578	172.03
398.792	282.62
399.005	-4.1
399.219	-180.22
399.433	116.73
399.646	159.74
399.86	8.19
400.073	-75.77
400.287	155.65
400.5	-2.05
400.714	-61.44
400.927	-90.11
401.141	110.59
401.354	1128.43
401.567	200.7
401.781	-311.29
401.994	245.76
402.208	610.29
402.421	-151.55
402.635	-159.74
402.848	20.48
403.061	270.33
403.275	-122.88
403.488	-188.41
403.701	473.08
403.915	172.03
404.128	-43.01
404.341	-190.46
404.555	98.3
404.768	-79.87
404.981	-34.82
405.195	-221.18
405.408	526.33
405.621	266.24
405.834	-53.25
406.048	-256
406.261	387.07
406.474	407.55
406.687	-237.56
406.9	-65.53
407.114	65.53
407.327	178.17
407.54	-337.91
407.753	-323.58
407.966	-114.69
408.179	180.22
408.392	-296.96
408.605	-319.48
408.819	176.13
409.032	124.93
409.245	-292.86
409.458	32.77
409.671	182.27
409.884	227.32
410.097	-346.11
410.31	-61.44
410.523	192.51
410.736	-43.01
410.949	-110.59
411.162	-126.97
411.375	391.16
411.588	292.86
411.801	16.38
412.014	-229.37
412.227	-18.43
412.44	-49.15
412.653	-217.08
412.865	-59.39
413.078	290.81
413.291	122.88
413.504	6.14
413.717	-223.23
413.93	294.91
414.143	-167.93
414.356	-124.93
414.568	-380.92
414.781	225.28
414.994	77.82
415.207	-90.11
415.42	-75.77
415.632	233.47
415.845	438.27
416.058	-317.44
416.271	-258.04
416.483	-14.34
416.696	450.55
416.909	-178.17
417.121	-221.18
417.334	139.26
417.547	499.7
417.759	-196.61
417.972	-315.39
418.185	-133.12
418.397	178.17
418.61	-143.36
418.823	-235.52
419.035	260.09
419.248	26.62
419.46	-92.16
419.673	-73.73
419.885	192.51
420.098	-75.77
420.311	-200.7
420.523	-403.45
420.736	143.36
420.948	14.34
421.161	-202.75
421.373	-434.17
421.586	126.97
421.798	-106.49
422.01	-296.96
422.223	-28.67
422.435	-100.35
422.648	219.13
422.86	-202.75
423.073	-178.17
423.285	360.44
423.497	-294.91
423.71	-317.44
423.922	-206.84
424.134	149.5
424.347	366.59
424.559	-14.34
424.771	102.4
424.984	-49.15
425.196	108.54
425.408	-364.54
425.621	-317.44
425.833	245.76
426.045	299
426.257	-303.1
426.47	-96.25
426.682	86.01
426.894	188.41
427.106	-176.13
427.318	-202.75
427.531	-108.54
427.743	151.55
427.955	-217.08
428.167	208.89
428.379	106.49
428.591	-32.77
428.804	-223.23
429.016	-335.87
429.228	-92.16
429.44	112.64
429.652	-6.14
429.864	-356.35
430.076	-141.31
430.288	-77.82
430.5	-73.73
430.712	-106.49
430.924	251.9
431.136	118.78
431.348	-352.25
431.56	-225.28
431.772	2.05
431.984	-151.55
432.196	-362.49
432.408	-159.74
432.62	-67.58
432.832	112.64
433.044	4.1
433.256	-98.3
433.468	139.26
433.679	-360.44
433.891	-356.35
434.103	-45.06
434.315	362.49
434.527	147.45
434.739	-114.69
434.95	-196.61
435.162	243.71
435.374	-104.45
435.586	-139.26
435.798	-206.84
436.009	-167.93
436.221	-8.19
436.433	-180.22
436.645	-245.76
436.856	-77.82
437.068	356.35
437.28	-270.33
437.491	49.15
437.703	114.69
437.915	88.06
438.126	-155.65
438.338	22.53
438.55	0
438.761	147.45
438.973	-157.69
439.184	-229.37
439.396	53.25
439.608	221.18
439.819	-325.63
440.031	-43.01
440.242	202.75
440.454	313.34
440.665	-200.7
440.877	-151.55
441.088	69.63
441.3	-73.73
441.511	-364.54
441.723	-274.43
441.934	165.89
442.146	-61.44
442.357	-83.97
442.569	32.77
442.78	18.43
442.991	397.31
443.203	100.35
443.414	-339.96
443.626	327.68
443.837	-204.8
444.048	-344.06
444.26	-374.78
444.471	71.68
444.682	204.8
444.894	-477.18
445.105	-346.11
445.316	249.85
445.528	77.82
445.739	-116.73
445.95	-184.32
446.161	147.45
446.373	327.68
446.584	-172.03
446.795	-260.09
447.006	206.84
447.217	403.45
447.429	-319.48
447.64	-339.96
447.851	243.71
448.062	73.73
448.273	-393.21
448.484	-266.24
448.695	184.32
448.907	-94.21
449.118	-221.18
449.329	-34.82
449.54	-163.84
449.751	-188.41
449.962	-233.47
450.173	-276.48
450.384	249.85
450.595	290.81
450.806	-278.52
451.017	-167.93
451.228	317.44
451.439	274.43
451.65	-225.28
451.861	-444.41
452.072	-212.99
452.283	18.43
452.494	-38.91
452.705	-225.28
452.915	450.55
453.126	57.34
453.337	-206.84
453.548	-249.85
453.759	225.28
453.97	446.46
454.181	-10.24
454.391	-184.32
454.602	32.77
454.813	55.3
455.024	-155.65
455.235	-225.28
455.445	94.21
455.656	77.82
455.867	-77.82
456.078	-237.56
456.288	-90.11
456.499	43.01
456.71	-317.44
456.921	-18.43
457.131	116.73
457.342	2.05
457.553	-124.93
457.763	-174.08
457.974	131.07
458.184	210.94
458.395	-299
458.606	-382.97
458.816	247.8
459.027	507.9
459.237	-135.17
459.448	-436.22
459.659	346.11
459.869	632.82
460.08	-405.5
460.29	-223.23
460.501	495.61
460.711	-45.06
460.922	-360.44
461.132	-272.38
461.343	634.87
461.553	-264.19
461.764	-212.99
461.974	-215.04
462.184	206.84
462.395	90.11
462.605	-153.6
462.816	-323.58
463.026	102.4
463.236	313.34
463.447	-323.58
463.657	-268.28
463.867	151.55
464.078	-81.92
464.288	-241.66
464.498	-272.38
464.709	8.19
464.919	-24.58
465.129	-163.84
465.339	-315.39
465.55	94.21
465.76	178.17
465.97	-233.47
466.18	-256
466.391	221.18
466.601	14.34
466.811	-223.23
467.021	-352.25
467.231	135.17
467.441	278.52
467.651	-212.99
467.862	-471.03
468.072	24.58
468.282	350.2
468.492	-251.9
468.702	-192.51
468.912	-40.96
469.122	487.42
469.332	38.91
469.542	-278.52
469.752	196.61
469.962	24.58
470.172	-313.34
470.382	-274.43
470.592	219.13
470.802	307.2
471.012	-53.25
471.222	-247.8
471.432	137.21
471.642	110.59
471.852	-120.83
472.062	-303.1
472.272	-69.63
472.482	-206.84
472.691	-350.2
472.901	-327.67
473.111	49.15
473.321	520.18
473.531	-339.96
473.741	-147.45
473.95	94.21
474.16	192.51
474.37	-141.31
474.58	-376.83
474.79	454.65
474.999	206.84
475.209	-327.67
475.419	-256
475.628	-24.58
475.838	217.08
476.048	-172.03
476.258	-350.2
476.467	344.06
476.677	-118.78
476.886	-81.92
477.096	-174.08
477.306	-172.03
477.515	296.96
477.725	-212.99
477.935	-204.8
478.144	419.83
478.354	-131.07
478.563	-256
478.773	-268.28
478.982	163.84
479.192	286.72
479.401	-278.52
479.611	-356.35
479.82	-194.56
480.03	110.59
480.239	-321.53
480.449	-286.72
480.658	407.55
480.868	-106.49
481.077	-237.56
481.287	-206.84
481.496	131.07
481.705	303.1
481.915	0
482.124	6.14
482.333	131.07
482.543	315.39
482.752	-206.84
482.961	-243.71
483.171	167.93
483.38	18.43
483.589	-212.99
483.799	-362.49
484.008	-26.62
484.217	174.08
484.426	-233.47
484.636	-462.84
484.845	24.58
485.054	-270.33
485.263	36.86
485.472	-245.76
485.682	448.51
485.891	24.58
486.1	-356.35
486.309	-290.81
486.518	178.17
486.727	301.05
486.936	-360.44
487.146	-83.97
487.355	421.88
487.564	-167.93
487.773	-270.33
487.982	-217.08
488.191	-83.97
488.4	-18.43
488.609	-243.71
488.818	-249.85
489.027	540.66
489.236	348.15
489.445	-143.36
489.654	-303.1
489.863	284.67
490.072	12.29
490.281	55.3
490.49	-299
490.698	333.82
490.907	299
491.116	-137.21
491.325	-380.92
491.534	286.72
491.743	81.92
491.952	-165.89
492.16	-184.32
492.369	137.21
492.578	266.24
492.787	-102.4
492.996	-342.01
493.204	-61.44
493.413	516.09
493.622	-448.51
493.831	-495.61
494.039	305.15
494.248	-141.31
494.457	-278.52
494.665	-366.59
494.874	227.32
495.083	552.95
495.291	-299
495.5	-346.11
495.709	241.66
495.917	145.41
496.126	-108.54
496.335	-249.85
496.543	-108.54
496.752	110.59
496.96	24.58
497.169	-450.55
497.377	47.1
497.586	337.91
497.794	-79.87
498.003	-499.7
498.211	-86.01
498.42	421.88
498.628	-110.59
498.837	-321.53
499.045	88.06
499.254	155.65
499.462	-342.01
499.671	-309.24
499.879	491.51
500.087	262.14
500.296	-278.52
500.504	-286.72
500.713	106.49
500.921	481.27
501.129	-247.8
501.338	-258.04
501.546	57.34
501.754	92.16
501.962	-237.56
502.171	-393.21
502.379	77.82
502.587	368.63
502.795	-129.02
503.004	-204.8
503.212	10.24
503.42	296.96
503.628	-231.42
503.837	-206.84
504.045	151.55
504.253	454.65
504.461	-319.48
504.669	-382.97
504.877	221.18
505.085	389.11
505.294	-344.06
505.502	-141.31
505.71	47.1
505.918	188.41
506.126	-215.04
506.334	-303.1
506.542	-67.58
506.75	126.97
506.958	-231.42
507.166	-235.52
507.374	-47.1
507.582	479.22
507.79	-182.27
507.998	-280.57
508.206	161.79
508.414	184.32
508.622	-309.24
508.83	-256
509.037	403.45
509.245	-4.1
509.453	-317.44
509.661	-301.05
509.869	274.43
510.077	30.72
510.285	-204.8
510.492	-481.27
510.7	577.53
510.908	-34.82
511.116	-221.18
511.324	-282.62
511.531	-36.86
511.739	98.3
511.947	-186.37
512.155	32.77
512.362	57.34
512.57	-303.1
512.778	-284.67
512.985	-421.88
513.193	231.42
513.401	339.96
513.608	-165.89
513.816	-311.29
514.024	182.27
514.231	270.33
514.439	-313.34
514.646	-286.72
514.854	241.66
515.061	286.72
515.269	-266.24
515.477	-301.05
515.684	-192.51
515.892	256
516.099	-409.59
516.307	-370.68
516.514	139.26
516.722	458.74
516.929	-327.67
517.136	-380.92
517.344	317.44
517.551	131.07
517.759	-385.02
517.966	-225.28
518.173	-30.72
518.381	22.53
518.588	-217.08
518.796	-294.91
519.003	217.08
519.21	0
519.418	-313.34
519.625	-18.43
519.832	16.38
520.039	126.97
520.247	-440.31
520.454	-258.04
520.661	331.77
520.868	71.68
521.076	-282.62
521.283	-256
521.49	583.67
521.697	165.89
521.904	-196.61
522.112	-208.89
522.319	212.99
522.526	163.84
522.733	-319.48
522.94	-245.76
523.147	-86.01
523.354	208.89
523.561	-438.27
523.768	-196.61
523.975	208.89
524.183	151.55
524.39	-159.74
524.597	-389.11
524.804	32.77
525.011	-192.51
525.218	-337.91
525.425	-264.19
525.632	315.39
525.838	-167.93
526.045	-225.28
526.252	-360.44
526.459	1202.16
526.666	849.91
526.873	-229.37
527.08	-327.67
527.287	233.47
527.494	194.56
527.701	-364.54
527.907	-284.67
528.114	176.13
528.321	-47.1
528.528	-163.84
528.735	-358.39
528.941	-92.16
529.148	-73.73
529.355	-188.41
529.562	-346.11
529.768	534.52
529.975	-77.82
530.182	-229.37
530.388	-329.72
530.595	313.34
530.802	-241.66
531.008	-102.4
531.215	-243.71
531.422	436.22
531.628	735.22
531.835	-114.69
532.042	-157.69
532.248	-10.24
532.455	106.49
532.661	-258.04
532.868	-286.72
533.074	90.11
533.281	231.42
533.487	-126.97
533.694	-339.96
533.9	-151.55
534.107	167.93
534.313	-315.39
534.52	-342.01
534.726	274.43
534.933	456.7
535.139	-356.35
535.345	-370.68
535.552	79.87
535.758	26.62
535.965	-253.95
536.171	-288.76
536.377	198.65
536.584	415.74
536.79	-262.14
536.996	-137.21
537.203	122.88
537.409	217.08
537.615	-186.37
537.821	-73.73
538.028	262.14
538.234	239.61
538.44	-307.2
538.646	-149.5
538.853	169.98
539.059	-120.83
539.265	151.55
539.471	-430.07
539.677	258.04
539.883	-32.77
540.09	-221.18
540.296	149.5
540.502	-22.53
540.708	-178.17
540.914	-71.68
541.12	-262.14
541.326	192.51
541.532	-36.86
541.738	-143.36
541.944	-169.98
542.15	217.08
542.356	88.06
542.562	-329.72
542.768	-200.7
542.974	643.06
543.18	499.7
543.386	-339.96
543.592	-405.5
543.798	405.5
544.004	323.58
544.21	-335.87
544.415	-167.93
544.621	40.96
544.827	253.95
545.033	-313.34
545.239	-34.82
545.445	-192.51
545.651	147.45
545.856	-335.87
546.062	-217.08
546.268	-94.21
546.474	-18.43
546.679	-212.99
546.885	-141.31
547.091	-118.78
547.297	542.71
547.502	-133.12
547.708	-370.68
547.914	-47.1
548.119	198.65
548.325	-378.87
548.531	-294.91
548.736	391.16
548.942	-79.87
549.147	-196.61
549.353	8.19
549.559	387.07
549.764	75.77
549.97	-321.53
550.175	-309.24
550.381	188.41
550.586	-51.2
550.792	-206.84
550.997	-266.24
551.203	102.4
551.408	163.84
551.614	-262.14
551.819	-331.77
552.025	444.41
552.23	505.85
552.435	-303.1
552.641	-155.65
552.846	-98.3
553.052	311.29
553.257	-34.82
553.462	-217.08
553.668	-178.17
553.873	290.81
554.078	-366.59
554.283	-235.52
554.489	126.97
554.694	51.2
554.899	-356.35
555.105	-135.17
555.31	192.51
555.515	223.23
555.72	-114.69
555.925	-387.07
556.131	165.89
556.336	-16.38
556.541	-260.09
556.746	-323.58
556.951	382.97
557.156	415.74
557.361	-141.31
557.567	-184.32
557.772	524.28
557.977	165.89
558.182	-239.61
558.387	-217.08
558.592	-77.82
558.797	389.11
559.002	-75.77
559.207	-67.58
559.412	96.25
559.617	563.19
559.822	-251.9
560.027	-247.8
560.232	135.17
560.437	305.15
560.642	-368.63
560.847	-319.48
561.051	120.83
561.256	143.36
561.461	-172.03
561.666	-387.07
561.871	98.3
562.076	317.44
562.281	-294.91
562.485	-299
562.69	309.24
562.895	299
563.1	-215.04
563.305	-342.01
563.509	366.59
563.714	581.62
563.919	-253.95
564.123	-208.89
564.328	69.63
564.533	366.59
564.737	-212.99
564.942	-260.09
565.147	356.35
565.351	552.95
565.556	-81.92
565.761	-53.25
565.965	204.8
566.17	-83.97
566.374	-208.89
566.579	-282.62
566.784	137.21
566.988	24.58
567.193	-331.77
567.397	-268.28
567.602	-208.89
567.806	155.65
568.011	-233.47
568.215	-188.41
568.42	32.77
568.624	10.24
568.828	-253.95
569.033	-83.97
569.237	256
569.442	106.49
569.646	-272.38
569.85	-249.85
570.055	16.38
570.259	251.9
570.463	-53.25
570.668	-253.95
570.872	-4.1
571.076	92.16
571.281	-88.06
571.485	-86.01
571.689	65.53
571.893	315.39
572.098	-69.63
572.302	-217.08
572.506	167.93
572.71	83.97
572.914	-106.49
573.119	-157.69
573.323	432.12
573.527	339.96
573.731	-256
573.935	-294.91
574.139	135.17
574.343	-67.58
574.547	-169.98
574.751	-190.46
574.955	405.5
575.159	430.07
575.364	-188.41
575.568	-268.28
575.772	51.2
575.976	458.74
576.18	-247.8
576.383	-294.91
576.587	409.59
576.791	235.52
576.995	-288.76
577.199	-368.63
577.403	356.35
577.607	399.35
577.811	-305.15
578.015	-108.54
578.219	161.79
578.422	266.24
578.626	-169.98
578.83	-10.24
579.034	323.58
579.238	94.21
579.442	-247.8
579.645	167.93
579.849	12.29
580.053	172.03
580.257	-118.78
580.46	-165.89
580.664	358.39
580.868	290.81
581.071	-96.25
581.275	-77.82
581.479	-202.75
581.682	270.33
581.886	-159.74
582.09	-110.59
582.293	385.02
582.497	311.29
582.7	63.49
582.904	-239.61
583.107	180.22
583.311	34.82
583.515	-135.17
583.718	-75.77
583.922	278.52
584.125	509.94
584.329	-198.65
584.532	20.48
584.735	448.51
584.939	169.98
585.142	-403.45
585.346	-249.85
585.549	221.18
585.753	-10.24
585.956	-116.73
586.159	-22.53
586.363	473.08
586.566	268.28
586.769	-159.74
586.973	-258.04
587.176	258.04
587.379	364.54
587.582	143.36
587.786	40.96
587.989	20.48
588.192	696.31
588.395	-38.91
588.599	221.18
588.802	274.43
589.005	356.35
589.208	-163.84
589.411	-118.78
589.615	333.82
589.818	538.62
590.021	118.78
590.224	-12.29
590.427	405.5
590.63	290.81
590.833	-288.76
591.036	-192.51
591.239	53.25
591.442	-10.24
591.645	55.3
591.848	-100.35
592.051	237.56
592.254	380.92
592.457	-92.16
592.66	-53.25
592.863	90.11
593.066	202.75
593.269	-139.26
593.472	-57.34
593.675	4.1
593.878	348.15
594.081	69.63
594.284	-215.04
594.486	344.06
594.689	276.48
594.892	53.25
595.095	-69.63
595.298	317.44
595.5	20.48
595.703	10.24
595.906	141.31
596.109	511.99
596.311	393.21
596.514	-360.44
596.717	-49.15
596.92	368.63
597.122	419.83
597.325	-337.91
597.528	-167.93
597.73	520.18
597.933	256
598.136	-145.41
598.338	-399.35
598.541	212.99
598.743	380.92
598.946	-114.69
599.148	-16.38
599.351	450.55
599.554	421.88
599.756	53.25
599.959	-75.77
600.161	415.74
600.363	720.88
600.566	231.42
600.768	-120.83
600.971	540.66
601.173	428.03
601.376	-81.92
601.578	-10.24
601.78	374.78
601.983	815.09
602.185	-122.88
602.388	88.06
602.59	266.24
602.792	139.26
602.995	137.21
603.197	-36.86
603.399	454.65
603.601	233.47
603.804	-14.34
604.006	-122.88
604.208	206.84
604.41	-227.32
604.613	49.15
604.815	-143.36
605.017	714.74
605.219	51.2
605.421	321.53
605.623	-92.16
605.826	481.27
606.028	659.45
606.23	-53.25
606.432	-100.35
606.634	606.2
606.836	548.86
607.038	-182.27
607.24	61.44
607.442	266.24
607.644	184.32
607.846	79.87
608.048	-129.02
608.25	516.09
608.452	53.25
608.654	-26.62
608.856	-233.47
609.058	141.31
609.26	276.48
609.462	86.01
609.664	-36.86
609.866	714.74
610.067	473.08
610.269	182.27
610.471	8.19
610.673	163.84
610.875	462.84
611.077	-184.32
611.278	141.31
611.48	225.28
611.682	690.17
611.884	126.97
612.085	102.4
612.287	135.17
612.489	290.81
612.69	-176.13
612.892	45.06
613.094	557.05
613.295	348.15
613.497	-116.73
613.699	45.06
613.9	579.58
614.102	479.22
614.304	-18.43
614.505	-200.7
614.707	200.7
614.908	274.43
615.11	-184.32
615.311	96.25
615.513	516.09
615.714	483.32
615.916	-124.93
616.117	63.49
616.319	227.32
616.52	446.46
616.722	10.24
616.923	38.91
617.124	491.51
617.326	438.27
617.527	100.35
617.729	253.95
617.93	487.42
618.131	382.97
618.333	16.38
618.534	110.59
618.735	77.82
618.937	675.83
619.138	-149.5
619.339	-98.3
619.54	487.42
619.742	186.37
619.943	184.32
620.144	69.63
620.345	423.93
620.546	561.14
620.748	-49.15
620.949	86.01
621.15	278.52
621.351	434.17
621.552	-8.19
621.753	-120.83
621.954	-4.1
622.155	737.27
622.356	-100.35
622.558	227.32
622.759	245.76
622.96	794.61
623.161	-10.24
623.362	67.58
623.563	315.39
623.764	348.15
623.965	186.37
624.166	288.76
624.366	192.51
624.567	407.55
624.768	-200.7
624.969	-90.11
625.17	223.23
625.371	475.13
625.572	110.59
625.773	-34.82
625.973	489.46
626.174	479.22
626.375	159.74
626.576	90.11
626.777	421.88
626.977	888.82
627.178	24.58
627.379	161.79
627.58	354.3
627.78	395.26
627.981	149.5
628.182	147.45
628.382	530.42
628.583	-14.34
628.784	-26.62
628.984	237.56
629.185	473.08
629.386	532.47
629.586	212.99
629.787	14.34
629.987	481.27
630.188	344.06
630.388	161.79
630.589	129.02
630.79	849.91
630.99	356.35
631.191	245.76
631.391	204.8
631.591	555
631.792	784.37
631.992	243.71
632.193	110.59
632.393	833.52
632.594	335.87
632.794	90.11
632.994	206.84
633.195	358.39
633.395	438.27
633.595	108.54
633.796	325.63
633.996	245.76
634.196	632.82
634.397	-16.38
634.597	186.37
634.797	225.28
634.997	817.14
635.198	364.54
635.398	-24.58
635.598	460.79
635.798	684.02
635.998	577.53
636.199	110.59
636.399	225.28
636.599	88.06
636.799	186.37
636.999	456.7
637.199	530.42
637.399	579.58
637.599	153.6
637.799	147.45
637.999	315.39
638.199	765.94
638.399	169.98
638.599	112.64
638.799	505.85
638.999	864.24
639.199	243.71
639.399	225.28
639.599	761.84
639.799	251.9
639.999	153.6
640.199	102.4
640.399	458.74
640.599	585.72
640.799	196.61
640.998	387.07
641.198	722.93
641.398	618.49
641.598	319.48
641.798	208.89
641.997	1269.74
642.197	444.41
642.397	282.62
642.597	81.92
642.796	579.58
642.996	782.32
643.196	368.63
643.395	77.82
643.595	630.77
643.795	65.53
643.994	188.41
644.194	225.28
644.394	669.69
644.593	550.9
644.793	71.68
644.992	268.28
645.192	651.25
645.392	2.05
645.591	376.83
645.791	290.81
645.99	610.29
646.19	421.88
646.389	247.8
646.589	315.39
646.788	544.76
646.987	565.24
647.187	495.61
647.386	350.2
647.586	528.38
647.785	626.68
647.984	253.95
648.184	317.44
648.383	333.82
648.582	403.45
648.782	233.47
648.981	411.64
649.18	352.25
649.38	483.32
649.579	258.04
649.778	229.37
649.977	630.77
650.177	581.62
650.376	264.19
650.575	71.68
650.774	858.1
650.973	380.92
651.173	16.38
651.372	284.67
651.571	511.99
651.77	729.08
651.969	227.32
652.168	370.68
652.367	278.52
652.566	468.98
652.765	188.41
652.964	491.51
653.163	966.64
653.362	481.27
653.561	272.38
653.76	176.13
653.959	356.35
654.158	614.39
654.357	569.34
654.556	217.08
654.755	667.64
654.954	753.65
655.153	268.28
655.352	354.3
655.551	819.19
655.749	333.82
655.948	395.26
656.147	362.49
656.346	608.25
656.545	446.46
656.743	462.84
656.942	348.15
657.141	645.11
657.34	305.15
657.538	403.45
657.737	311.29
657.936	495.61
658.135	647.16
658.333	210.94
658.532	511.99
658.731	950.26
658.929	839.67
659.128	593.91
659.326	286.72
659.525	950.26
659.724	487.42
659.922	135.17
660.121	208.89
660.319	657.4
660.518	288.76
660.716	266.24
660.915	303.1
661.113	976.88
661.312	329.72
661.51	446.46
661.709	223.23
661.907	774.13
662.105	935.92
662.304	423.93
662.502	423.93
662.701	880.63
662.899	497.66
663.097	624.63
663.296	258.04
663.494	954.35
663.692	995.31
663.891	219.13
664.089	147.45
664.287	714.74
664.485	954.35
664.684	360.44
664.882	511.99
665.08	598.01
665.278	710.65
665.476	288.76
665.675	692.21
665.873	1122.29
666.071	921.59
666.269	356.35
666.467	679.93
666.665	661.49
666.863	661.49
667.061	528.38
667.259	350.2
667.457	667.64
667.655	765.94
667.853	219.13
668.051	557.05
668.249	540.66
668.447	821.24
668.645	303.1
668.843	536.57
669.041	835.57
669.239	612.34
669.437	542.71
669.635	536.57
669.833	528.38
670.031	872.43
670.229	516.09
670.426	563.19
670.624	540.66
670.822	538.62
671.02	417.79
671.218	520.18
671.415	348.15
671.613	735.22
671.811	628.73
672.009	460.79
672.206	884.72
672.404	716.79
672.602	667.64
672.799	540.66
672.997	704.5
673.195	956.4
673.392	548.86
673.59	358.39
673.788	880.63
673.985	258.04
674.183	550.9
674.38	479.22
674.578	815.09
674.775	507.9
674.973	360.44
675.17	423.93
675.368	1019.89
675.565	856.05
675.763	391.16
675.96	342.01
676.158	1003.5
676.355	733.17
676.553	450.55
676.75	479.22
676.947	774.13
677.145	643.06
677.342	577.53
677.539	593.91
677.737	735.22
677.934	1165.29
678.131	733.17
678.329	438.27
678.526	1015.79
678.723	872.43
678.92	538.62
679.118	585.72
679.315	395.26
679.512	1073.14
679.709	604.15
679.906	585.72
680.104	1036.27
680.301	700.41
680.498	421.88
680.695	403.45
680.892	604.15
681.089	628.73
681.286	675.83
681.483	362.49
681.68	942.07
681.877	929.78
682.075	548.86
682.272	741.36
682.469	790.52
682.665	749.56
682.862	438.27
683.059	227.32
683.256	749.56
683.453	851.95
683.65	634.87
683.847	636.92
684.044	692.21
684.241	647.16
684.438	684.02
684.635	411.64
684.831	1216.49
685.028	1187.82
685.225	585.72
685.422	778.23
685.619	735.22
685.815	745.46
686.012	663.54
686.209	626.68
686.405	561.14
686.602	964.59
686.799	401.4
686.996	346.11
687.192	557.05
687.389	1216.49
687.586	530.42
687.782	618.49
687.979	1193.97
688.175	1046.51
688.372	694.26
688.568	579.58
688.765	684.02
688.962	1095.66
689.158	724.98
689.355	337.91
689.551	1009.65
689.748	679.93
689.944	647.16
690.14	491.51
690.337	1046.51
690.533	806.9
690.73	815.09
690.926	684.02
691.123	948.21
691.319	770.04
691.515	612.34
691.712	753.65
691.908	958.45
692.104	817.14
692.301	757.75
692.497	520.18
692.693	956.4
692.889	1023.98
693.086	806.9
693.282	428.03
693.478	819.19
693.674	1218.54
693.87	585.72
694.067	528.38
694.263	901.11
694.459	737.27
694.655	792.56
694.851	790.52
695.047	1009.65
695.243	956.4
695.439	788.47
695.635	616.44
695.831	1005.55
696.027	937.97
696.224	649.21
696.42	1005.55
696.615	1286.12
696.811	976.88
697.007	544.76
697.203	673.78
697.399	966.64
697.595	1234.93
697.791	608.25
697.987	849.91
698.183	643.06
698.379	731.12
698.575	620.53
698.77	729.08
698.966	1083.38
699.162	1101.81
699.358	657.4
699.554	718.84
699.749	1062.9
699.945	1116.14
700.141	878.58
700.337	794.61
700.532	864.24
700.728	675.83
700.924	606.2
701.119	536.57
701.315	1071.09
701.511	866.29
701.706	770.04
701.902	495.61
702.097	960.5
702.293	1023.98
702.489	784.37
702.684	751.6
702.88	876.53
703.075	856.05
703.271	733.17
703.466	589.82
703.662	993.26
703.857	980.98
704.053	684.02
704.248	651.25
704.443	1142.77
704.639	1159.15
704.834	733.17
705.03	634.87
705.225	1118.19
705.42	1208.3
705.616	876.53
705.811	565.24
706.006	890.87
706.202	763.89
706.397	888.82
706.592	526.33
706.787	1021.94
706.983	913.39
707.178	980.98
707.373	909.3
707.568	1173.49
707.763	1265.64
707.959	741.36
708.154	774.13
708.349	1015.79
708.544	1036.27
708.739	997.36
708.934	630.77
709.129	1095.66
709.324	1236.97
709.519	722.93
709.714	696.31
709.909	1236.97
710.104	1032.18
710.299	686.07
710.494	811
710.689	1232.88
710.884	1056.75
711.079	909.3
711.274	1085.42
711.469	1093.62
711.664	987.12
711.859	731.12
712.054	823.28
712.249	1169.39
712.443	1316.84
712.638	602.1
712.833	792.56
713.028	1030.13
713.223	946.16
713.417	1112.05
713.612	743.41
713.807	1175.53
714.002	1519.59
714.196	954.35
714.391	749.56
714.586	1308.65
714.78	987.12
714.975	829.43
715.17	741.36
715.364	874.48
715.559	1286.12
715.754	561.14
715.948	735.22
716.143	1462.25
716.337	1081.33
716.532	1089.52
716.726	806.9
716.921	1171.44
717.115	1372.14
717.31	763.89
717.504	1329.13
717.699	1052.66
717.893	1226.73
718.088	735.22
718.282	727.03
718.476	1198.06
718.671	1196.01
718.865	851.95
719.059	798.71
719.254	1101.81
719.448	1423.34
719.642	2162.65
719.837	690.17
720.031	1222.64
720.225	1302.51
720.419	905.2
720.614	835.57
720.808	1196.01
721.002	927.73
721.196	739.32
721.39	897.01
721.585	1290.22
721.779	1165.29
721.973	897.01
722.167	593.91
722.361	1128.43
722.555	1333.23
722.749	817.14
722.943	849.91
723.137	858.1
723.331	1116.14
723.525	927.73
723.719	753.65
723.913	1331.18
724.107	1400.81
724.301	884.72
724.495	827.38
724.689	1529.83
724.883	1449.96
725.077	911.35
725.271	866.29
725.465	1384.43
725.659	1097.71
725.853	956.4
726.046	614.39
726.24	1054.7
726.434	1288.17
726.628	970.74
726.822	923.63
727.015	1404.91
727.209	1417.19
727.403	929.78
727.596	720.88
727.79	1290.22
727.984	1302.51
728.177	913.39
728.371	931.83
728.565	1269.74
728.758	909.3
728.952	786.42
729.146	835.57
729.339	1445.87
729.533	1028.08
729.726	882.67
729.92	753.65
730.113	1476.59
730.307	1163.25
730.5	858.1
730.694	847.86
730.887	1030.13
731.081	1337.32
731.274	792.56
731.468	983.03
731.661	1196.01
731.854	1073.14
732.048	948.21
732.241	767.99
732.435	1023.98
732.628	1253.36
732.821	901.11
733.014	794.61
733.208	909.3
733.401	1421.29
733.594	1038.32
733.788	909.3
733.981	1497.07
734.174	1247.21
734.367	862.19
734.56	1122.29
734.754	1433.58
734.947	1226.73
735.14	868.34
735.333	999.41
735.526	1361.9
735.719	1036.27
735.912	917.49
736.105	798.71
736.298	1138.67
736.491	1144.81
736.684	868.34
736.877	933.87
737.07	1212.4
737.263	1554.41
737.456	925.68
737.649	831.48
737.842	1064.94
738.035	1228.78
738.228	991.22
738.421	1073.14
738.614	1486.83
738.807	1454.06
739	831.48
739.192	923.63
739.385	1286.12
739.578	1435.63
739.771	1216.49
739.964	929.78
740.156	1366
740.349	1189.87
740.542	1167.34
740.735	929.78
740.927	989.17
741.12	1044.46
741.313	925.68
741.505	1040.37
741.698	1306.6
741.891	1372.14
742.083	1157.1
742.276	901.11
742.468	1273.84
742.661	1261.55
742.854	954.35
743.046	917.49
743.239	1574.89
743.431	1218.54
743.624	1079.28
743.816	899.06
744.009	1200.11
744.201	1425.39
744.393	1220.59
744.586	890.87
744.778	1611.75
744.971	1306.6
745.163	1032.18
745.355	1112.05
745.548	1236.97
745.74	1253.36
745.932	1153.01
746.125	978.93
746.317	1746.92
746.509	1279.98
746.702	970.74
746.894	1028.08
747.086	1355.76
747.278	1507.3
747.471	1142.77
747.663	1118.19
747.855	1300.46
748.047	1628.14
748.239	974.83
748.431	997.36
748.623	1667.05
748.815	1757.16
749.008	993.26
749.2	882.67
749.392	1458.15
749.584	1441.77
749.776	1089.52
749.968	1112.05
750.16	1720.29
750.352	1232.88
750.544	1064.94
750.736	1103.86
750.928	1370.09
751.12	1259.5
751.311	946.16
751.503	1083.38
751.695	1527.78
751.887	1355.76
752.079	872.43
752.271	1150.96
752.463	2119.65
752.654	1568.74
752.846	1200.11
753.038	1136.62
753.23	1122.29
753.421	1570.79
753.613	1036.27
753.805	1363.95
753.997	1484.78
754.188	1552.36
754.38	1015.79
754.572	1155.05
754.763	1343.47
754.955	1529.83
755.146	1241.07
755.338	1146.86
755.53	1458.15
755.721	1351.66
755.913	978.93
756.104	1138.67
756.296	1298.41
756.487	1578.98
756.679	966.64
756.87	1126.38
757.062	1320.94
757.253	1529.83
757.445	1079.28
757.636	1208.3
757.827	1482.73
758.019	1898.47
758.21	958.45
758.401	1075.18
758.593	1923.04
758.784	1638.38
758.975	937.97
759.167	1009.65
759.358	1441.77
759.549	1628.14
759.74	1159.15
759.932	1157.1
760.123	1673.19
760.314	1359.85
760.505	1265.64
760.696	1173.49
760.888	1861.6
761.079	1140.72
761.27	1066.99
761.461	970.74
761.652	1800.16
761.843	1290.22
762.034	1110
762.225	1384.43
762.416	1329.13
762.607	1298.41
762.798	1312.75
762.989	1122.29
763.18	2086.88
763.371	1351.66
763.562	1144.81
763.753	1343.47
763.944	1695.72
764.135	1667.05
764.326	1212.4
764.517	1120.24
764.708	1462.25
764.899	1503.21
765.089	1048.56
765.28	837.62
765.471	1464.3
765.662	1712.1
765.853	1322.99
766.043	1073.14
766.234	1650.66
766.425	1605.61
766.615	1159.15
766.806	1052.66
766.997	1800.16
767.187	1413.1
767.378	1120.24
767.569	993.26
767.759	1636.33
767.95	1388.52
768.141	1327.08
768.331	1071.09
768.522	1509.35
768.712	1574.89
768.903	1124.33
769.093	1224.69
769.284	1687.53
769.474	1374.19
769.665	940.02
769.855	946.16
770.046	1611.75
770.236	1480.68
770.426	1437.67
770.617	1005.55
770.807	1578.98
770.998	1429.48
771.188	1366
771.378	1110
771.569	1595.37
771.759	1593.32
771.949	1023.98
772.139	911.35
772.33	1456.11
772.52	1839.08
772.71	1114.09
772.9	1015.79
773.09	1841.12
773.281	1701.86
773.471	1118.19
773.661	1230.83
773.851	1701.86
774.041	1259.5
774.231	1128.43
774.421	1298.41
774.611	1794.02
774.802	1554.41
774.992	1169.39
775.182	1042.42
775.372	1415.15
775.562	1695.72
775.752	1081.33
775.942	1191.92
776.131	1738.73
776.321	1507.3
776.511	1177.58
776.701	1120.24
776.891	1718.25
777.081	1259.5
777.271	1273.84
777.461	1064.94
777.651	1581.03
777.84	1667.05
778.03	1368.04
778.22	1081.33
778.41	1701.86
778.599	1263.6
778.789	1239.02
778.979	1069.04
779.169	1662.95
779.358	1482.73
779.548	1478.63
779.738	1097.71
779.927	1540.07
780.117	1269.74
780.307	1228.78
780.496	860.15
780.686	1535.98
780.875	1882.08
781.065	1218.54
781.254	1118.19
781.444	1484.78
781.633	1544.17
781.823	1196.01
782.012	1062.9
782.202	1265.64
782.391	1482.73
782.581	1054.7
782.77	1347.56
782.96	1611.75
783.149	1499.11
783.338	1245.16
783.528	978.93
783.717	1726.44
783.906	1740.77
784.096	1376.24
784.285	1103.86
784.474	1445.87
784.663	1243.12
784.853	1150.96
785.042	1259.5
785.231	1339.37
785.42	1738.73
785.61	1290.22
785.799	1144.81
785.988	1304.56
786.177	1568.74
786.366	1222.64
786.555	1378.28
786.744	1642.47
786.933	1548.26
787.122	1226.73
787.312	942.07
787.501	1310.7
787.69	1470.44
787.879	1187.82
788.068	1093.62
788.257	1210.35
788.445	1413.1
788.634	1282.03
788.823	1091.57
789.012	2205.66
789.201	1718.25
789.39	1331.18
789.579	1081.33
789.768	1556.46
789.957	1486.83
790.145	1202.16
790.334	950.26
790.523	1316.84
790.712	1398.76
790.9	1261.55
791.089	1069.04
791.278	1712.1
791.467	1593.32
791.655	1503.21
791.844	1675.24
792.033	1421.29
792.221	1472.49
792.41	1302.51
792.599	1132.53
792.787	1669.09
792.976	1669.09
793.164	1155.05
793.353	1161.2
793.541	1718.25
793.73	1667.05
793.918	1292.27
794.107	1153.01
794.295	1562.6
794.484	1568.74
794.672	1310.7
794.861	1234.93
795.049	1730.53
795.238	1896.42
795.426	1073.14
795.614	1202.16
795.803	1634.28
795.991	1783.78
796.179	1216.49
796.368	1118.19
796.556	1720.29
796.744	1290.22
796.932	1261.55
797.121	1038.32
797.309	1517.54
797.497	1732.58
797.685	1325.04
797.874	1153.01
798.062	1497.07
798.25	1822.69
798.438	1183.73
798.626	1222.64
798.814	1572.84
799.002	2023.39
799.19	1409
799.378	1353.71
799.566	1798.12
799.755	1984.48
799.943	1409
800.131	1163.25
800.318	1566.7
800.506	1593.32
800.694	1241.07
800.882	1374.19
801.07	1789.92
801.258	1564.65
801.446	1298.41
801.634	1300.46
801.822	1546.22
802.01	1566.7
802.197	1282.03
802.385	1437.67
802.573	1615.85
802.761	1435.63
802.949	1273.84
803.136	1185.77
803.324	1767.4
803.512	1593.32
803.699	1462.25
803.887	1062.9
804.075	1982.43
804.262	1421.29
804.45	1236.97
804.638	1445.87
804.825	1390.57
805.013	1478.63
805.201	1406.95
805.388	1269.74
805.576	1474.54
805.763	2084.83
805.951	1374.19
806.138	1470.44
806.326	2050.02
806.513	1644.52
806.701	1400.81
806.888	1327.08
807.075	1687.53
807.263	2097.12
807.45	1333.23
807.638	1568.74
807.825	2043.87
808.012	1953.76
808.2	1376.24
808.387	1667.05
808.574	1769.44
808.761	1945.57
808.949	1433.58
809.136	1398.76
809.323	1572.84
809.51	1515.5
809.698	1685.48
809.885	1605.61
810.072	1824.74
810.259	1888.23
810.446	1538.02
810.633	1431.53
810.82	1970.15
811.008	2052.06
811.195	1589.22
811.382	1515.5
811.569	1689.57
811.756	1384.43
811.943	1417.19
812.13	1378.28
812.317	1699.81
812.504	1603.56
812.691	1542.12
812.878	1628.14
813.064	1925.09
813.251	1732.58
813.438	1343.47
813.625	1564.65
813.812	1775.59
813.999	1662.95
814.186	1581.03
814.372	1499.11
814.559	1712.1
814.746	2090.98
814.933	1572.84
815.12	1705.96
815.306	1634.28
815.493	1525.74
815.68	1372.14
815.866	1601.51
816.053	1996.77
816.24	2176.99
816.426	1603.56
816.613	1341.42
816.799	1890.28
816.986	2013.15
817.173	1447.91
817.359	1421.29
817.546	1873.89
817.732	1458.15
817.919	1236.97
818.105	1611.75
818.292	1732.58
818.478	1857.51
818.665	1665
818.851	1429.48
819.037	2338.78
819.224	1738.73
819.41	1404.91
819.597	1417.19
819.783	2232.29
819.969	1806.31
820.156	1654.76
820.342	1417.19
820.528	2488.28
820.714	1748.97
820.901	1765.35
821.087	1581.03
821.273	2256.86
821.459	1609.7
821.646	1402.86
821.832	1390.57
822.018	1761.25
822.204	1873.89
822.39	1437.67
822.576	1458.15
822.762	1990.63
822.948	1847.27
823.134	1599.46
823.32	1509.35
823.507	1492.97
823.693	1802.21
823.879	1949.67
824.065	1486.83
824.25	1791.97
824.436	1542.12
824.622	1509.35
824.808	1484.78
824.994	1705.96
825.18	1609.7
825.366	1427.43
825.552	1472.49
825.738	1744.87
825.923	1888.23
826.109	1751.01
826.295	1495.02
826.481	1685.48
826.667	1667.05
826.852	1628.14
827.038	1511.4
827.224	1949.67
827.409	2254.81
827.595	1423.34
827.781	1724.39
827.966	2093.02
828.152	2136.03
828.338	1511.4
828.523	1376.24
828.709	1646.57
828.894	2047.97
829.08	1556.46
829.266	1515.5
829.451	1689.57
829.637	1947.62
829.822	1712.1
830.008	1503.21
830.193	2017.25
830.378	2170.85
830.564	1574.89
830.749	1392.62
830.935	1869.8
831.12	1988.58
831.305	1402.86
831.491	1568.74
831.676	1634.28
831.861	2133.98
832.047	1615.85
832.232	1421.29
832.417	2115.55
832.602	1853.41
832.788	1449.96
832.973	1605.61
833.158	1783.78
833.343	1865.7
833.528	1667.05
833.714	1621.99
833.899	1937.38
834.084	2293.72
834.269	1773.54
834.454	1517.54
834.639	1886.18
834.824	1787.88
835.009	1673.19
835.194	1718.25
835.379	2002.91
835.564	2187.23
835.749	1753.06
835.934	1462.25
836.119	2007.01
836.304	1920.99
836.489	1552.36
836.674	1716.2
836.859	1673.19
837.044	2109.41
837.228	1605.61
837.413	1429.48
837.598	1929.19
837.783	2023.39
837.968	1521.64
838.152	1423.34
838.337	1316.84
838.522	2183.13
838.707	2013.15
838.891	1775.59
839.076	1871.84
839.261	2004.96
839.445	1558.5
839.63	1744.87
839.815	2074.59
839.999	1701.86
840.184	1660.9
840.368	1619.94
840.553	1970.15
840.737	2041.82
840.922	1400.81
841.106	1398.76
841.291	1597.42
841.475	1875.94
841.66	1556.46
841.844	1603.56
842.029	2584.54
842.213	1480.68
842.397	1611.75
842.582	1347.56
842.766	2113.5
842.951	1970.15
843.135	1624.04
843.319	1568.74
843.504	1816.55
843.688	2105.31
843.872	1402.86
844.056	1400.81
844.241	2080.74
844.425	1863.65
844.609	1761.25
844.793	1325.04
844.977	1988.58
845.161	1918.95
845.346	1462.25
845.53	1566.7
845.714	1722.34
845.898	2213.85
846.082	1363.95
846.266	1495.02
846.45	1658.85
846.634	1894.37
846.818	1497.07
847.002	1634.28
847.186	1953.76
847.37	1593.32
847.554	1409
847.738	1882.08
847.922	1949.67
848.106	1851.36
848.29	1437.67
848.473	1566.7
848.657	2045.92
848.841	1808.36
849.025	1597.42
849.209	1327.08
849.392	2037.73
849.576	1877.99
849.76	1265.64
849.944	1691.62
850.127	2312.16
850.311	1480.68
850.495	1433.58
850.678	1394.67
850.862	2154.46
851.046	2111.46
851.229	1785.83
851.413	1452.01
851.596	1757.16
851.78	1722.34
851.964	1656.81
852.147	1484.78
852.331	2445.27
852.514	2150.37
852.698	1521.64
852.881	1310.7
853.065	1988.58
853.248	1722.34
853.431	1595.37
853.615	1585.13
853.798	2379.74
853.982	1884.13
854.165	1667.05
854.348	1544.17
854.532	1705.96
854.715	1638.38
854.898	1683.43
855.081	1474.54
855.265	2064.35
855.448	2295.77
855.631	1470.44
855.814	1535.98
855.997	1974.24
856.181	1761.25
856.364	1654.76
856.547	1454.06
856.73	1777.64
856.913	1818.6
857.096	1331.18
857.279	1669.09
857.462	1703.91
857.645	1961.95
857.828	1578.98
858.011	1691.62
858.194	1800.16
858.377	2015.2
858.56	1454.06
858.743	1601.51
858.926	1593.32
859.109	1834.98
859.292	1497.07
859.475	1396.71
859.658	2060.26
859.841	1843.17
860.023	1353.71
860.206	1417.19
860.389	1890.28
860.572	2142.18
860.755	1693.67
860.937	1495.02
861.12	1794.02
861.303	1843.17
861.486	1611.75
861.668	1372.14
861.851	2076.64
862.034	1908.71
862.216	1740.77
862.399	1361.9
862.581	2000.87
862.764	2248.67
862.947	1558.5
863.129	1353.71
863.312	1535.98
863.494	2263.01
863.677	1804.26
863.859	1390.57
864.042	1972.19
864.224	2125.79
864.406	1619.94
864.589	1361.9
864.771	1923.04
864.954	1581.03
865.136	1546.22
865.318	1341.42
865.501	1994.72
865.683	1241.07
865.865	1568.74
866.048	1568.74
866.23	1867.75
866.412	1757.16
866.594	1345.52
866.777	1593.32
866.959	1873.89
867.141	1658.85
867.323	1798.12
867.505	1658.85
867.687	1748.97
867.869	1900.52
868.052	1482.73
868.234	1411.05
868.416	1720.29
868.598	1890.28
868.78	1406.95
868.962	1409
869.144	1992.67
869.326	1910.75
869.508	1621.99
869.69	1486.83
869.872	1683.43
870.054	2050.02
870.236	1372.14
870.417	1474.54
870.599	1726.44
870.781	2056.16
870.963	1740.77
871.145	1449.96
871.327	1472.49
871.508	2086.88
871.69	1527.78
871.872	1495.02
872.054	1789.92
872.235	2015.2
872.417	1568.74
872.599	1380.33
872.78	2160.61
872.962	1830.88
873.144	1349.61
873.325	1482.73
873.507	2240.48
873.689	1769.44
873.87	1472.49
874.052	1578.98
874.233	1724.39
874.415	2097.12
874.596	1480.68
874.778	1480.68
874.959	1781.73
875.141	1986.53
875.322	1570.79
875.503	1425.39
875.685	1812.45
875.866	1466.35
876.048	1355.76
876.229	1374.19
876.41	1931.23
876.592	1832.93
876.773	1609.7
876.954	1488.87
877.136	2099.17
877.317	1652.71
877.498	1372.14
877.679	1583.08
877.86	1929.19
878.042	1847.27
878.223	1611.75
878.404	1974.24
878.585	1980.39
878.766	2338.78
878.947	1890.28
879.128	1816.55
879.309	1959.91
879.49	2183.13
879.672	1634.28
879.853	1673.19
880.034	1675.24
880.215	1890.28
880.396	1593.32
880.576	1535.98
880.757	1570.79
880.938	2088.93
881.119	1599.46
881.3	1587.18
881.481	1710.05
881.662	2707.41
881.843	1445.87
882.023	1431.53
882.204	2037.73
882.385	1939.43
882.566	1726.44
882.747	1646.57
882.927	1945.57
883.108	1900.52
883.289	1560.55
883.469	1834.98
883.65	1798.12
883.831	1904.61
884.011	1837.03
884.192	1671.14
884.373	2195.42
884.553	2035.68
884.734	1822.69
884.914	1851.36
885.095	2445.27
885.275	2439.13
885.456	2047.97
885.636	1513.45
885.817	1968.1
885.997	1877.99
886.178	1589.22
886.358	1763.3
886.538	2072.54
886.719	2899.92
886.899	1677.29
887.08	1843.17
887.26	2129.89
887.44	1777.64
887.621	1669.09
887.801	1812.45
887.981	2631.64
888.161	2205.66
888.342	1810.4
888.522	1867.75
888.702	2240.48
888.882	2318.3
889.062	1929.19
889.242	1538.02
889.423	2471.9
889.603	2115.55
889.783	1972.19
889.963	1736.68
890.143	2162.65
890.323	2367.45
890.503	1734.63
890.683	1806.31
890.863	2152.42
891.043	2002.91
891.223	1978.34
891.403	1937.38
891.583	2086.88
891.763	2205.66
891.943	1812.45
892.122	1861.6
892.302	2154.46
892.482	1920.99
892.662	1925.09
892.842	1851.36
893.022	2213.85
893.201	2027.49
893.381	2031.59
893.561	1843.17
893.741	2318.3
893.92	2273.25
894.1	1824.74
894.28	1896.42
894.459	2232.29
894.639	2193.37
894.819	1937.38
894.998	1972.19
895.178	2318.3
895.357	2318.3
895.537	1884.13
895.716	1845.22
895.896	2217.95
896.075	2439.13
896.255	1785.83
896.434	1652.71
896.614	2392.03
896.793	2396.12
896.973	2002.91
897.152	1972.19
897.331	2174.94
897.511	2273.25
897.69	1748.97
897.87	2027.49
898.049	2267.1
898.228	2269.15
898.407	2047.97
898.587	1929.19
898.766	2064.35
898.945	2318.3
899.124	2136.03
899.304	2066.4
899.483	2338.78
899.662	2519
899.841	1916.9
900.02	1896.42
900.199	2486.23
900.378	2285.53
900.557	1716.2
900.737	1726.44
900.916	2164.7
901.095	2353.12
901.274	2152.42
901.453	1759.21
901.632	1918.95
901.811	2002.91
901.989	1859.56
902.168	1781.73
902.347	2371.55
902.526	1980.39
902.705	1925.09
902.884	2004.96
903.063	2453.47
903.242	2258.91
903.42	1839.08
903.599	1968.1
903.778	2430.94
903.957	2404.32
904.135	2031.59
904.314	1980.39
904.493	2183.13
904.672	2201.57
904.85	1937.38
905.029	1984.48
905.207	2293.72
905.386	2928.6
905.565	1828.84
905.743	1933.28
905.922	2154.46
906.1	2367.45
906.279	1800.16
906.457	1808.36
906.636	2066.4
906.814	2076.64
906.993	1888.23
907.171	1804.26
907.35	2426.84
907.528	2166.75
907.707	2068.45
907.885	1789.92
908.063	2621.4
908.242	1920.99
908.42	1834.98
908.598	1689.57
908.777	2389.98
908.955	2017.25
909.133	2019.3
909.311	1775.59
909.49	2007.01
909.668	2095.07
909.846	1888.23
910.024	1697.77
910.202	2228.19
910.38	2211.81
910.559	1630.18
910.737	1771.49
910.915	2236.38
911.093	2242.53
911.271	1916.9
911.449	2072.54
911.627	2283.49
911.805	2602.97
911.983	1896.42
912.161	1722.34
912.339	2203.61
912.517	2447.32
912.695	1923.04
912.872	1851.36
913.05	2002.91
913.228	2193.37
913.406	1869.8
913.584	1779.68
913.762	2232.29
913.939	1994.72
914.117	1621.99
914.295	1802.21
914.473	2215.9
914.65	2179.04
914.828	1767.4
915.006	1740.77
915.184	1761.25
915.361	2068.45
915.539	1966.05
915.716	1945.57
915.894	2023.39
916.072	2334.68
916.249	1802.21
916.427	2007.01
916.604	1869.8
916.782	2138.08
916.959	1658.85
917.137	1785.83
917.314	2160.61
917.492	2125.79
917.669	1794.02
917.847	1753.06
918.024	2000.87
918.201	1771.49
918.379	1898.47
918.556	1769.44
918.733	2215.9
918.911	1755.11
919.088	1851.36
919.265	1726.44
919.442	1964
919.62	2007.01
919.797	1488.87
919.974	1601.51
920.151	1968.1
920.328	1886.18
920.506	1658.85
920.683	1849.32
920.86	1703.91
921.037	1855.46
921.214	1720.29
921.391	1611.75
921.568	2183.13
921.745	1769.44
921.922	1699.81
922.099	1578.98
922.276	2000.87
922.453	1929.19
922.63	1597.42
922.807	1912.8
922.984	2019.3
923.161	1734.63
923.338	1621.99
923.514	1665
923.691	1904.61
923.868	2047.97
924.045	1480.68
924.222	1529.83
924.399	1853.41
924.575	2121.7
924.752	1669.09
924.929	1656.81
925.105	1992.67
925.282	1681.38
925.459	1562.6
925.635	1519.59
925.812	1843.17
925.989	1601.51
926.165	1718.25
926.342	1413.1
926.518	1636.33
926.695	1683.43
926.871	1548.26
927.048	1417.19
927.224	2035.68
927.401	1716.2
927.577	1601.51
927.754	1529.83
927.93	2013.15
928.107	1966.05
928.283	1368.04
928.459	1544.17
928.636	1839.08
928.812	1802.21
928.988	1409
929.165	1322.99
929.341	1753.06
929.517	1847.27
929.693	1808.36
929.87	1353.71
930.046	1720.29
930.222	1535.98
930.398	1376.24
930.574	1589.22
930.751	1683.43
930.927	1425.39
931.103	1406.95
931.279	1462.25
931.455	1413.1
931.631	1683.43
931.807	1228.78
931.983	1353.71
932.159	1378.28
932.335	1630.18
932.511	1464.3
932.687	1361.9
932.863	1605.61
933.039	1607.66
933.215	1257.45
933.391	1175.53
933.566	1413.1
933.742	1628.14
933.918	1279.98
934.094	1128.43
934.27	1585.13
934.445	1509.35
934.621	1349.61
934.797	1198.06
934.973	1769.44
935.148	1609.7
935.324	1091.57
935.5	1011.7
935.675	1705.96
935.851	1523.69
936.027	1167.34
936.202	1316.84
936.378	1490.92
936.553	1226.73
936.729	1599.46
936.904	978.93
937.08	1069.04
937.255	1124.33
937.431	987.12
937.606	964.59
937.782	1155.05
937.957	1339.37
938.133	972.79
938.308	876.53
938.483	1171.44
938.659	1011.7
938.834	1069.04
939.009	800.76
939.185	1097.71
939.36	899.06
939.535	593.91
939.71	978.93
939.886	1277.93
940.061	1241.07
940.236	987.12
940.411	825.33
940.586	1052.66
940.761	1163.25
940.937	819.19
941.112	774.13
941.287	1052.66
941.462	1083.38
941.637	733.17
941.812	782.32
941.987	1060.85
942.162	956.4
942.337	851.95
942.512	700.41
942.687	1171.44
942.862	1142.77
943.037	536.57
943.212	456.7
943.386	811
943.561	1021.94
943.736	890.87
943.911	950.26
944.086	1040.37
944.26	958.45
944.435	724.98
944.61	796.66
944.785	1212.4
944.959	1366
945.134	776.18
945.309	667.64
945.483	774.13
945.658	1249.26
945.833	333.82
946.007	466.94
946.182	1327.08
946.357	757.75
946.531	518.14
946.706	538.62
946.88	479.22
947.055	917.49
947.229	671.73
947.404	651.25
947.578	1026.03
947.752	804.85
947.927	430.07
948.101	442.36
948.276	970.74
948.45	899.06
948.624	858.1
948.799	626.68
948.973	1032.18
949.147	577.53
949.321	632.82
949.496	679.93
949.67	1107.95
949.844	790.52
950.018	659.45
950.193	761.84
950.367	1404.91
950.541	716.79
950.715	753.65
950.889	874.48
951.063	827.38
951.237	974.83
951.411	450.55
951.585	497.66
951.759	1044.46
951.933	815.09
952.107	604.15
952.281	917.49
952.455	1314.8
952.629	1183.73
952.803	595.96
952.977	583.67
953.151	1116.14
953.325	929.78
953.499	815.09
953.672	466.94
953.846	800.76
954.02	755.7
954.194	608.25
954.368	557.05
954.541	909.3
954.715	841.72
954.889	808.95
955.062	614.39
955.236	835.57
955.41	755.7
955.583	849.91
955.757	487.42
955.93	794.61
956.104	657.4
956.278	729.08
956.451	714.74
956.625	950.26
956.798	1306.6
956.972	933.87
957.145	577.53
957.319	749.56
957.492	815.09
957.665	741.36
957.839	651.25
958.012	931.83
958.185	710.65
958.359	700.41
958.532	884.72
958.705	1118.19
958.879	1019.89
959.052	671.73
959.225	456.7
959.398	786.42
959.572	954.35
959.745	569.34
959.918	600.05
960.091	804.85
960.264	989.17
960.438	544.76
960.611	587.77
960.784	997.36
960.957	790.52
961.13	1032.18
961.303	620.53
961.476	870.39
961.649	1023.98
961.822	450.55
961.995	702.45
962.168	974.83
962.341	833.52
962.514	585.72
962.686	606.2
962.859	870.39
963.032	1052.66
963.205	522.23
963.378	409.59
963.551	892.91
963.723	878.58
963.896	761.84
964.069	724.98
964.242	774.13
964.414	1007.6
964.587	569.34
964.76	694.26
964.932	800.76
965.105	729.08
965.278	532.47
965.45	526.33
965.623	757.75
965.795	1046.51
965.968	606.2
966.14	417.79
966.313	792.56
966.485	888.82
966.658	581.62
966.83	489.46
967.003	1077.23
967.175	1030.13
967.348	555
967.52	585.72
967.692	1171.44
967.865	1081.33
968.037	665.59
968.209	911.35
968.382	854
968.554	1050.61
968.726	608.25
968.898	587.77
969.071	870.39
969.243	1066.99
969.415	696.31
969.587	647.16
969.759	1314.8
969.932	1064.94
970.104	624.63
970.276	253.95
970.448	661.49
970.62	757.75
970.792	651.25
970.964	655.35
971.136	1353.71
971.308	950.26
971.48	493.56
971.652	452.6
971.824	1265.64
971.996	645.11
972.168	583.67
972.339	602.1
972.511	1060.85
972.683	731.12
972.855	796.66
973.027	651.25
973.199	788.47
973.37	915.44
973.542	743.41
973.714	802.8
973.886	835.57
974.057	1089.52
974.229	487.42
974.401	612.34
974.572	524.28
974.744	382.97
974.915	493.56
975.087	452.6
975.259	1142.77
975.43	659.45
975.602	552.95
975.773	528.38
975.945	702.45
976.116	1056.75
976.288	391.16
976.459	714.74
976.63	700.41
976.802	923.63
976.973	483.32
977.145	604.15
977.316	1216.49
977.487	1294.32
977.659	716.79
977.83	593.91
978.001	1171.44
978.172	860.15
978.344	460.79
978.515	638.97
978.686	663.54
978.857	1089.52
979.028	569.34
979.2	487.42
979.371	1005.55
979.542	788.47
979.713	708.6
979.884	155.65
980.055	628.73
980.226	737.27
980.397	528.38
980.568	397.31
980.739	972.79
980.91	704.5
981.081	600.05
981.252	540.66
981.423	864.24
981.594	1011.7
981.765	366.59
981.936	692.21
982.106	733.17
982.277	1009.65
982.448	464.89
982.619	622.58
982.79	729.08
982.96	972.79
983.131	624.63
983.302	323.58
983.472	624.63
983.643	790.52
983.814	692.21
983.984	405.5
984.155	755.7
984.326	1009.65
984.496	636.92
984.667	475.13
984.837	561.14
985.008	1126.38
985.178	737.27
985.349	587.77
985.519	696.31
985.69	647.16
985.86	573.43
986.031	421.88
986.201	890.87
986.371	944.11
986.542	518.14
986.712	337.91
986.882	823.28
987.053	911.35
987.223	385.02
987.393	692.21
987.563	622.58
987.734	907.25
987.904	757.75
988.074	499.7
988.244	823.28
988.414	503.8
988.585	450.55
988.755	618.49
988.925	741.36
989.095	1034.22
989.265	421.88
989.435	511.99
989.605	870.39
989.775	933.87
989.945	700.41
990.115	276.48
990.285	679.93
990.455	776.18
990.625	518.14
990.795	428.03
990.965	991.22
991.134	423.93
991.304	399.35
991.474	413.69
991.644	790.52
991.814	1134.57
991.984	243.71
992.153	391.16
992.323	669.69
992.493	772.08
992.662	215.04
992.832	540.66
993.002	757.75
993.171	761.84
993.341	288.76
993.511	636.92
993.68	526.33
993.85	800.76
994.019	229.37
994.189	315.39
994.358	745.46
994.528	485.37
994.697	167.93
994.867	352.25
995.036	819.19
995.206	610.29
995.375	286.72
995.544	526.33
995.714	731.12
995.883	612.34
996.052	571.38
996.222	176.13
996.391	1069.04
996.56	649.21
996.73	229.37
996.899	278.52
997.068	907.25
997.237	677.88
997.406	219.13
997.576	180.22
997.745	606.2
997.914	659.45
998.083	169.98
998.252	313.34
998.421	487.42
998.59	430.07
998.759	288.76
998.928	110.59
999.097	935.92
999.266	628.73
999.435	372.73
999.604	176.13
999.773	1001.46
999.942	579.58
1000.111	147.45
1000.28	110.59
1000.448	393.21
1000.617	389.11
1000.786	428.03
1000.955	12.29
1001.124	653.3
1001.292	1286.12
1001.461	196.61
1001.63	235.52
1001.798	888.82
1001.967	849.91
1002.136	141.31
1002.304	208.89
1002.473	698.36
1002.642	524.28
1002.81	335.87
1002.979	299
1003.147	778.23
1003.316	1118.19
1003.484	266.24
1003.653	245.76
1003.821	811
1003.99	475.13
1004.158	393.21
1004.327	378.87
1004.495	745.46
1004.663	364.54
1004.832	456.7
1005	94.21
1005.168	684.02
1005.337	583.67
1005.505	192.51
1005.673	372.73
1005.842	698.36
1006.01	690.17
1006.178	73.73
1006.346	129.02
1006.514	655.35
1006.683	882.67
1006.851	200.7
1007.019	96.25
1007.187	299
1007.355	139.26
1007.523	-24.58
1007.691	30.72
1007.859	251.9
1008.027	841.72
1008.195	249.85
1008.363	133.12
1008.531	735.22
1008.699	378.87
1008.867	108.54
1009.035	161.79
1009.203	823.28
1009.37	468.98
1009.538	266.24
1009.706	643.06
1009.874	571.38
1010.042	434.17
1010.209	57.34
1010.377	86.01
1010.545	741.36
1010.713	489.46
1010.88	151.55
1011.048	176.13
1011.216	438.27
1011.383	837.62
1011.551	202.75
1011.718	59.39
1011.886	780.28
1012.054	524.28
1012.221	71.68
1012.389	98.3
1012.556	389.11
1012.724	960.5
1012.891	274.43
1013.058	22.53
1013.226	575.48
1013.393	675.83
1013.561	-6.14
1013.728	-57.34
1013.895	518.14
1014.063	489.46
1014.23	-8.19
1014.397	73.73
1014.565	645.11
1014.732	477.18
1014.899	81.92
1015.066	6.14
1015.233	548.86
1015.401	651.25
1015.568	188.41
1015.735	288.76
1015.902	577.53
1016.069	518.14
1016.236	88.06
1016.403	-18.43
1016.57	290.81
1016.737	733.17
1016.904	147.45
1017.071	16.38
1017.238	305.15
1017.405	643.06
1017.572	61.44
1017.739	352.25
1017.906	610.29
1018.073	641.01
1018.24	65.53
1018.407	124.93
1018.573	759.8
1018.74	389.11
1018.907	161.79
1019.074	-2.05
1019.241	679.93
1019.407	497.66
1019.574	71.68
1019.741	-30.72
1019.907	501.75
1020.074	634.87
1020.241	-169.98
1020.407	47.1
1020.574	493.56
1020.74	622.58
1020.907	38.91
1021.073	34.82
1021.24	980.98
1021.406	743.41
1021.573	79.87
1021.739	-8.19
1021.906	653.3
1022.072	417.79
1022.239	10.24
1022.405	110.59
1022.571	399.35
1022.738	319.48
1022.904	57.34
1023.07	79.87
1023.237	534.52
1023.403	739.32
1023.569	73.73
1023.735	122.88
1023.902	528.38
1024.068	442.36
1024.234	-18.43
1024.4	30.72
1024.566	460.79
1024.732	677.88
1024.898	24.58
1025.065	-104.45
1025.231	511.99
1025.397	319.48
1025.563	59.39
1025.729	-2.05
1025.895	26.62
1026.061	180.22
1026.227	-61.44
1026.392	94.21
1026.558	645.11
1026.724	522.23
1026.89	163.84
1027.056	86.01
1027.222	516.09
1027.388	364.54
1027.553	36.86
1027.719	106.49
1027.885	743.41
1028.051	516.09
1028.216	-131.07
1028.382	69.63
1028.548	655.35
1028.713	274.43
1028.879	-67.58
1029.045	147.45
1029.21	667.64
1029.376	585.72
1029.541	12.29
1029.707	69.63
1029.873	425.98
1030.038	585.72
1030.204	-22.53
1030.369	77.82
1030.534	659.45
1030.7	266.24
1030.865	51.2
1031.031	45.06
1031.196	516.09
1031.361	350.2
1031.527	-49.15
1031.692	-75.77
1031.857	-4.1
1032.023	552.95
1032.188	-36.86
1032.353	20.48
1032.518	751.6
1032.684	380.92
1032.849	-149.5
1033.014	40.96
1033.179	532.47
1033.344	511.99
1033.509	71.68
1033.674	-24.58
1033.839	565.24
1034.004	636.92
1034.17	-16.38
1034.335	-147.45
1034.5	274.43
1034.664	333.82
1034.829	-77.82
1034.994	-20.48
1035.159	423.93
1035.324	434.17
1035.489	-20.48
1035.654	-120.83
1035.819	700.41
1035.984	399.35
1036.148	43.01
1036.313	-16.38
1036.478	641.01
1036.643	385.02
1036.807	-40.96
1036.972	-110.59
1037.137	727.03
1037.301	374.78
1037.466	-108.54
1037.631	90.11
1037.795	638.97
1037.96	438.27
1038.124	96.25
1038.289	-143.36
1038.454	450.55
1038.618	438.27
1038.783	-43.01
1038.947	26.62
1039.111	468.98
1039.276	315.39
1039.44	-49.15
1039.605	442.36
1039.769	208.89
1039.933	294.91
1040.098	0
1040.262	161.79
1040.426	538.62
1040.591	454.65
1040.755	-57.34
1040.919	55.3
1041.083	407.55
1041.248	337.91
1041.412	-81.92
1041.576	-143.36
1041.74	376.83
1041.904	555
1042.068	-149.5
1042.232	28.67
1042.397	450.55
1042.561	372.73
1042.725	-311.29
1042.889	110.59
1043.053	403.45
1043.217	376.83
1043.381	67.58
1043.544	-118.78
1043.708	671.73
1043.872	69.63
1044.036	-278.52
1044.2	-208.89
1044.364	565.24
1044.528	727.03
1044.691	3297.23
1044.855	-157.69
1045.019	544.76
1045.183	528.38
1045.346	63.49
1045.51	-86.01
1045.674	385.02
1045.837	464.89
1046.001	51.2
1046.165	-98.3
1046.328	839.67
1046.492	430.07
1046.655	67.58
1046.819	69.63
1046.983	262.14
1047.146	450.55
1047.31	24.58
1047.473	-225.28
1047.636	253.95
1047.8	159.74
1047.963	-51.2
1048.127	-67.58
1048.29	106.49
