Data from Ink_Intensity_USB4F045381__17__00017.txt Node

Date: Mon Jul 17 09:37:03 EDT 2023
User: mmckonesweet
Spectrometer: USB4F04538
Trigger mode: 4
Integration Time (sec): 9.000000E-1
Scans to average: 1
Electric dark correction enabled: true
Nonlinearity correction enabled: false
Boxcar width: 0
XAxis mode: Wavelengths
Number of Pixels in Spectrum: 3648
>>>>>Begin Spectral Data<<<<<
345.52	-924.83
345.736	-924.83
345.952	-924.83
346.168	-957.6
346.384	-896.16
346.6	-144.55
346.816	-205.99
347.032	-242.85
347.248	260.95
347.464	-107.69
347.68	-148.65
347.896	64.34
348.112	355.15
348.328	-52.39
348.544	-29.87
348.76	54.1
348.975	197.46
349.191	-165.03
349.407	-64.68
349.623	-9.39
349.839	-3.24
350.055	-83.11
350.27	101.2
350.486	185.17
350.702	381.78
350.918	213.84
351.133	-189.61
351.349	176.98
351.565	355.15
351.781	-177.32
351.996	33.62
352.212	299.86
352.428	-117.93
352.644	-70.83
352.859	-152.74
353.075	287.57
353.291	-3.24
353.506	-70.83
353.722	-142.5
353.938	-95.4
354.153	480.08
354.369	215.89
354.584	-238.76
354.8	211.79
355.016	-332.97
355.231	-193.7
355.447	29.52
355.662	111.44
355.878	940.87
356.093	-335.01
356.309	15.19
356.524	-218.28
356.74	246.61
356.955	-126.12
357.171	31.57
357.386	201.55
357.602	-191.66
357.817	11.09
358.033	-68.78
358.248	359.25
358.464	185.17
358.679	-25.77
358.895	-265.38
359.11	7
359.325	346.96
359.541	299.86
359.756	47.96
359.972	-257.19
360.187	191.31
360.402	-197.8
360.618	-119.98
360.833	953.16
361.048	215.89
361.264	-122.02
361.479	-60.59
361.694	-1.19
361.909	176.98
362.125	-83.11
362.34	0.85
362.555	285.52
362.77	68.44
362.986	-271.53
363.201	-148.65
363.416	166.74
363.631	15.19
363.847	-107.69
364.062	-148.65
364.277	164.69
364.492	84.82
364.707	-99.5
364.922	-302.25
365.138	248.66
365.353	312.14
365.568	-189.61
365.783	-101.55
365.998	101.2
366.213	566.09
366.428	-201.9
366.643	138.07
366.858	301.9
367.073	195.41
367.288	-48.3
367.503	-132.26
367.718	158.55
367.933	322.38
368.148	-253.09
368.363	-40.11
368.578	13.14
368.793	455.5
369.008	-119.98
369.223	-181.42
369.438	174.93
369.653	437.07
369.868	-146.6
370.083	-171.18
370.298	86.87
370.513	414.54
370.728	131.92
370.943	-136.36
371.157	-113.83
371.372	553.8
371.587	-224.42
371.802	-191.66
372.017	113.49
372.232	459.6
372.446	-29.87
372.661	-242.85
372.876	232.27
373.091	170.83
373.306	-76.97
373.52	-126.12
373.735	-85.16
373.95	371.54
374.165	-97.45
374.379	-44.2
374.594	-183.46
374.809	99.16
375.023	88.92
375.238	-205.99
375.453	258.9
375.667	-167.08
375.882	-17.58
376.097	-115.88
376.311	66.39
376.526	-46.25
376.741	-220.33
376.955	84.82
377.17	590.67
377.384	461.65
377.599	2.9
377.813	-156.84
378.028	584.52
378.242	152.4
378.457	-17.58
378.672	-320.68
378.886	127.83
379.101	-60.59
379.315	-197.8
379.53	-156.84
379.744	283.47
379.958	136.02
380.173	-99.5
380.387	-66.73
380.602	113.49
380.816	-68.78
381.031	-42.15
381.245	-140.46
381.459	240.47
381.674	2474.8
381.888	-122.02
382.103	127.83
382.317	-91.31
382.531	545.61
382.746	-87.21
382.96	-195.75
383.174	-25.77
383.388	426.83
383.603	140.12
383.817	-189.61
384.031	123.73
384.246	480.08
384.46	60.24
384.674	314.19
384.888	84.82
385.103	70.48
385.317	-234.66
385.531	-27.82
385.745	346.96
385.959	328.53
386.174	-183.46
386.388	-173.22
386.602	37.72
386.816	-160.94
387.03	-19.63
387.244	-74.92
387.458	2.9
387.672	334.67
387.887	-185.51
388.101	-320.68
388.315	326.48
388.529	217.94
388.743	-3.24
388.957	-87.21
389.171	285.52
389.385	-140.46
389.599	7
389.813	127.83
390.027	111.44
390.241	650.06
390.455	-31.91
390.669	-9.39
390.883	-72.87
391.097	338.77
391.311	107.35
391.525	-97.45
391.738	170.83
391.952	176.98
392.166	66.39
392.38	-165.03
392.594	303.95
392.808	373.58
393.022	-27.82
393.236	-109.74
393.449	226.13
393.663	144.21
393.877	-195.75
394.091	-52.39
394.305	-42.15
394.518	-89.26
394.732	-195.75
394.946	-38.06
395.16	346.96
395.373	101.2
395.587	-173.22
395.801	-99.5
396.015	357.2
396.228	252.75
396.442	-142.5
396.656	-253.09
396.869	385.87
397.083	400.21
397.297	-52.39
397.51	-44.2
397.724	400.21
397.938	156.5
398.151	-279.72
398.365	-97.45
398.578	265.04
398.792	387.92
399.005	-23.72
399.219	4.95
399.433	82.77
399.646	246.61
399.86	39.76
400.073	109.4
400.287	244.56
400.5	-3.24
400.714	105.3
400.927	109.4
401.141	271.19
401.354	1082.18
401.567	217.94
401.781	-101.55
401.994	310.1
402.208	598.86
402.421	-97.45
402.635	-25.77
402.848	140.12
403.061	334.67
403.275	45.91
403.488	-189.61
403.701	547.66
403.915	314.19
404.128	54.1
404.341	41.81
404.555	127.83
404.768	103.25
404.981	217.94
405.195	-87.21
405.408	602.96
405.621	291.66
405.834	41.81
406.048	-193.7
406.261	371.54
406.474	553.8
406.687	-101.55
406.9	125.78
407.114	119.64
407.327	107.35
407.54	-158.89
407.753	-99.5
407.966	-27.82
408.179	346.96
408.392	-152.74
408.605	-193.7
408.819	285.52
409.032	256.85
409.245	-130.22
409.458	136.02
409.671	250.71
409.884	242.51
410.097	-183.46
410.31	88.92
410.523	205.65
410.736	2.9
410.949	-15.53
411.162	64.34
411.375	531.28
411.588	295.76
411.801	174.93
412.014	-70.83
412.227	127.83
412.44	-3.24
412.653	-85.16
412.865	54.1
413.078	314.19
413.291	250.71
413.504	88.92
413.717	-79.02
413.93	330.58
414.143	-52.39
414.356	62.29
414.568	-238.76
414.781	260.95
414.994	289.62
415.207	62.29
415.42	47.96
415.632	312.14
415.845	453.45
416.058	-203.94
416.271	-167.08
416.483	152.4
416.696	547.66
416.909	-95.4
417.121	-87.21
417.334	332.62
417.547	607.05
417.759	-68.78
417.972	-58.54
418.185	17.24
418.397	328.53
418.61	-72.87
418.823	50
419.035	529.23
419.248	111.44
419.46	66.39
419.673	80.72
419.885	322.38
420.098	107.35
420.311	-17.58
420.523	-179.37
420.736	240.47
420.948	84.82
421.161	7
421.373	-81.07
421.586	191.31
421.798	-68.78
422.01	-146.6
422.223	111.44
422.435	-5.29
422.648	351.06
422.86	-54.44
423.073	-136.36
423.285	453.45
423.497	-138.41
423.71	19.29
423.922	-146.6
424.134	242.51
424.347	514.89
424.559	93.01
424.771	310.1
424.984	-5.29
425.196	275.28
425.408	-177.32
425.621	-175.27
425.833	475.98
426.045	369.49
426.257	-134.31
426.47	37.72
426.682	306
426.894	310.1
427.106	-33.96
427.318	54.1
427.531	97.11
427.743	375.63
427.955	-142.5
428.167	340.82
428.379	334.67
428.591	224.08
428.804	146.26
429.016	-60.59
429.228	113.49
429.44	293.71
429.652	222.03
429.864	-146.6
430.076	68.44
430.288	31.57
430.5	152.4
430.712	125.78
430.924	514.89
431.136	293.71
431.348	-167.08
431.56	9.05
431.772	316.24
431.984	33.62
432.196	-48.3
432.408	47.96
432.62	82.77
432.832	293.71
433.044	359.25
433.256	144.21
433.468	324.43
433.679	-105.64
433.891	-11.43
434.103	138.07
434.315	557.9
434.527	287.57
434.739	119.64
434.95	66.39
435.162	428.88
435.374	125.78
435.586	144.21
435.798	-3.24
436.009	39.76
436.221	195.41
436.433	64.34
436.645	156.5
436.856	164.69
437.068	461.65
437.28	-31.91
437.491	303.95
437.703	287.57
437.915	385.87
438.126	93.01
438.338	312.14
438.55	314.19
438.761	369.49
438.973	60.24
439.184	35.67
439.396	297.81
439.608	422.73
439.819	-3.24
440.031	131.92
440.242	387.92
440.454	435.02
440.665	170.83
440.877	191.31
441.088	387.92
441.3	45.91
441.511	-40.11
441.723	33.62
441.934	396.11
442.146	277.33
442.357	271.19
442.569	342.86
442.78	402.26
442.991	674.64
443.203	414.54
443.414	33.62
443.626	598.86
443.837	101.2
444.048	-81.07
444.26	62.29
444.471	242.51
444.682	545.61
444.894	-107.69
445.105	-36.01
445.316	461.65
445.528	422.73
445.739	187.22
445.95	185.17
446.161	349.01
446.373	555.85
446.584	226.13
446.795	107.35
447.006	484.17
447.217	684.87
447.429	-44.2
447.64	39.76
447.851	502.61
448.062	346.96
448.273	-52.39
448.484	123.73
448.695	412.5
448.907	211.79
449.118	230.23
449.329	301.9
449.54	205.65
449.751	107.35
449.962	158.55
450.173	197.46
450.384	562
450.595	662.35
450.806	209.75
451.017	232.27
451.228	664.4
451.439	504.65
451.65	144.21
451.861	-7.34
452.072	176.98
452.283	295.76
452.494	355.15
452.705	101.2
452.915	715.59
453.126	377.68
453.337	195.41
453.548	199.51
453.759	562
453.97	895.82
454.181	443.21
454.391	215.89
454.602	367.44
454.813	521.04
455.024	287.57
455.235	170.83
455.445	467.79
455.656	516.94
455.867	330.58
456.078	150.36
456.288	289.62
456.499	387.92
456.71	176.98
456.921	406.35
457.131	637.77
457.342	572.24
457.553	344.91
457.763	176.98
457.974	537.42
458.184	600.91
458.395	140.12
458.606	101.2
458.816	678.73
459.027	834.38
459.237	430.93
459.448	60.24
459.659	709.45
459.869	906.06
460.08	78.68
460.29	392.02
460.501	813.9
460.711	269.14
460.922	197.46
461.132	283.47
461.343	1092.42
461.553	248.66
461.764	258.9
461.974	211.79
462.184	645.96
462.395	637.77
462.605	342.86
462.816	293.71
463.026	504.65
463.236	779.08
463.447	262.99
463.657	324.43
463.867	762.7
464.078	494.41
464.288	322.38
464.498	353.1
464.709	441.17
464.919	529.23
465.129	387.92
465.339	297.81
465.55	627.53
465.76	711.5
465.97	451.41
466.18	291.66
466.391	774.99
466.601	494.41
466.811	414.54
467.021	262.99
467.231	668.49
467.441	865.1
467.651	457.55
467.862	213.84
468.072	557.9
468.282	944.97
468.492	424.78
468.702	518.99
468.912	731.98
469.122	1160
469.332	772.94
469.542	422.73
469.752	879.43
469.962	686.92
470.172	467.79
470.382	422.73
470.592	858.95
470.802	1016.65
471.012	658.25
471.222	471.89
471.432	928.58
471.642	918.34
471.852	717.64
472.062	500.56
472.272	699.21
472.482	518.99
472.691	480.08
472.901	508.75
473.111	865.1
473.321	1332.03
473.531	566.09
473.741	734.03
473.95	1026.89
474.16	1104.71
474.37	676.68
474.58	559.95
474.79	1250.11
474.999	1041.22
475.209	611.15
475.419	734.03
475.628	734.03
475.838	1135.43
476.048	813.9
476.258	725.83
476.467	1178.44
476.677	787.27
476.886	1014.6
477.096	801.61
477.306	863.05
477.515	1309.51
477.725	891.72
477.935	885.58
478.144	1379.14
478.354	920.39
478.563	942.92
478.773	889.67
478.982	1235.78
479.192	1379.14
479.401	930.63
479.611	934.73
479.82	928.58
480.03	1098.56
480.239	854.86
480.449	897.86
480.658	1506.11
480.868	1020.74
481.077	1127.24
481.287	1129.28
481.496	1350.46
481.705	1631.04
481.915	1311.55
482.124	1252.16
482.333	1368.9
482.543	1551.17
482.752	1250.11
482.961	1028.93
483.171	1475.39
483.38	1319.75
483.589	1219.39
483.799	1209.15
484.008	1399.62
484.217	1717.05
484.426	1172.29
484.636	1092.42
484.845	1438.53
485.054	1045.32
485.263	1565.5
485.472	1346.37
485.682	1891.13
485.891	1448.77
486.1	1147.72
486.309	1258.31
486.518	1581.89
486.727	1747.77
486.936	1321.79
487.146	1454.91
487.355	1817.4
487.564	1319.75
487.773	1399.62
487.982	1446.72
488.191	1547.07
488.4	1522.49
488.609	1418.05
488.818	1432.38
489.027	2120.5
489.236	2083.64
489.445	1475.39
489.654	1399.62
489.863	1938.23
490.072	1786.68
490.281	1811.26
490.49	1534.78
490.698	2134.84
490.907	2050.87
491.116	1669.95
491.325	1506.11
491.534	2147.12
491.743	1930.04
491.952	1649.47
492.16	1762.11
492.369	1936.18
492.578	2052.92
492.787	1731.39
492.996	1477.44
493.204	1680.19
493.413	2446.13
493.622	1540.93
493.831	1530.69
494.039	2198.32
494.248	1659.71
494.457	1725.24
494.665	1649.47
494.874	2069.3
495.083	2423.6
495.291	1837.88
495.5	1921.85
495.709	2233.14
495.917	2134.84
496.126	1901.37
496.335	1743.67
496.543	1960.76
496.752	2143.03
496.96	2124.6
497.169	1737.53
497.377	2126.64
497.586	2433.84
497.794	2046.77
498.003	1729.34
498.211	2106.17
498.42	2542.38
498.628	2071.35
498.837	1946.42
499.045	2229.04
499.254	2302.77
499.462	2075.45
499.671	1936.18
499.879	2667.31
500.087	2431.79
500.296	2079.54
500.504	2108.21
500.713	2319.15
500.921	2710.32
501.129	2118.45
501.338	2067.25
501.546	2413.36
501.754	2450.22
501.962	2210.61
502.171	1962.81
502.379	2429.74
502.587	2800.43
502.795	2255.67
503.004	2237.24
503.212	2413.36
503.42	2698.03
503.628	2253.62
503.837	2302.77
504.045	2566.96
504.253	2913.06
504.461	2202.42
504.669	2149.17
504.877	2517.81
505.085	2923.3
505.294	2073.4
505.502	2493.23
505.71	2521.9
505.918	2657.07
506.126	2362.16
506.334	2358.07
506.542	2505.52
506.75	2569.01
506.958	2433.84
507.166	2380.59
507.374	2620.21
507.582	3099.43
507.79	2532.14
507.998	2378.55
508.206	2775.85
508.414	2794.28
508.622	2538.29
508.83	2501.42
509.037	3033.9
509.245	2614.06
509.453	2396.98
509.661	2474.8
509.869	2859.82
510.077	2583.34
510.285	2673.45
510.492	2329.39
510.7	3246.88
510.908	2745.13
511.116	2634.54
511.324	2577.2
511.531	2708.27
511.739	2798.38
511.947	2790.19
512.155	2906.92
512.362	2745.13
512.57	2505.52
512.778	2585.39
512.985	2485.04
513.193	3113.77
513.401	3365.67
513.608	2804.52
513.816	2698.03
514.024	3027.75
514.231	3257.12
514.439	2796.33
514.646	2722.6
514.854	3191.59
515.061	3128.1
515.269	2609.97
515.477	2796.33
515.684	2657.07
515.892	3201.83
516.099	2675.5
516.307	2710.32
516.514	3128.1
516.722	3396.39
516.929	2921.26
517.136	2708.27
517.344	3416.87
517.551	3250.98
517.759	2906.92
517.966	3007.27
518.173	3140.39
518.381	3169.06
518.588	2898.73
518.796	2954.02
519.003	3341.09
519.21	3113.77
519.418	3054.37
519.625	3293.99
519.832	3253.03
520.039	3281.7
520.247	2892.59
520.454	3015.46
520.661	3449.63
520.868	3435.3
521.076	2999.08
521.283	3121.96
521.49	3828.51
521.697	3494.69
521.904	3087.14
522.112	3158.82
522.319	3470.11
522.526	3447.58
522.733	3064.61
522.94	2999.08
523.147	3291.94
523.354	3625.76
523.561	2937.64
523.768	3332.9
523.975	3623.71
524.183	3535.65
524.39	3214.12
524.597	3089.19
524.804	3468.06
525.011	3365.67
525.218	3255.08
525.425	3349.28
525.632	3898.14
525.838	3437.34
526.045	3310.37
526.252	3261.22
526.459	4576.02
526.666	4354.83
526.873	3306.27
527.08	3414.82
527.287	3937.05
527.494	3820.32
527.701	3365.67
527.907	3375.91
528.114	3771.16
528.321	3705.63
528.528	3420.96
528.735	3474.21
528.941	3652.38
529.148	3588.89
529.355	3445.54
529.562	3404.58
529.768	4084.5
529.975	3646.24
530.182	3584.8
530.388	3445.54
530.595	3945.24
530.802	3486.5
531.008	3789.6
531.215	3666.72
531.422	4416.27
531.628	4459.28
531.835	3773.21
532.042	3795.74
532.248	3740.44
532.455	3871.51
532.661	3830.55
532.868	3687.2
533.074	4061.98
533.281	4197.14
533.487	3689.25
533.694	3742.49
533.9	3871.51
534.107	4236.05
534.313	3691.29
534.52	3781.4
534.726	4231.96
534.933	4485.9
535.139	3805.98
535.345	4023.06
535.552	4129.56
535.758	4102.93
535.965	4000.54
536.171	3918.62
536.377	4317.97
536.584	4504.34
536.79	3853.08
536.996	4094.74
537.203	4342.55
537.409	4260.63
537.615	3842.84
537.821	4330.26
538.028	4422.42
538.234	4307.73
538.44	4100.89
538.646	4094.74
538.853	4317.97
539.059	4076.31
539.265	4297.49
539.471	3914.52
539.677	4645.65
539.883	4317.97
540.09	4107.03
540.296	4530.96
540.502	4375.31
540.708	4281.11
540.914	4348.69
541.12	4207.38
541.326	4776.72
541.532	4371.22
541.738	4330.26
541.944	4260.63
542.15	4629.26
542.356	4356.88
542.562	4170.52
542.768	4426.51
542.974	5049.1
543.18	4999.95
543.386	4494.1
543.592	4285.2
543.798	4866.83
544.004	4909.83
544.21	4535.06
544.415	4483.86
544.621	4887.31
544.827	4801.29
545.033	4401.94
545.239	4764.43
545.445	4651.79
545.651	4879.11
545.856	4379.41
546.062	4709.13
546.268	4664.08
546.474	4657.93
546.679	4518.67
546.885	4600.59
547.091	4807.44
547.297	5288.71
547.502	4473.62
547.708	4502.29
547.914	4631.31
548.119	4987.66
548.325	4573.97
548.531	4461.33
548.736	5126.92
548.942	4629.26
549.147	4494.1
549.353	4918.03
549.559	5032.71
549.764	5036.81
549.97	4625.17
550.175	4606.74
550.381	5069.58
550.586	4821.77
550.792	4840.2
550.997	4752.14
551.203	4999.95
551.408	5100.3
551.614	4762.38
551.819	4877.07
552.025	5384.96
552.23	5628.67
552.435	4776.72
552.641	5141.25
552.846	4999.95
553.052	5456.64
553.257	4971.27
553.462	5034.76
553.668	5022.47
553.873	5503.75
554.078	4958.99
554.283	4819.72
554.489	5405.44
554.694	5194.5
554.899	4907.79
555.105	5118.73
555.31	5393.16
555.515	5335.81
555.72	5194.5
555.925	4969.23
556.131	5595.9
556.336	5135.11
556.541	5024.52
556.746	5169.93
556.951	5571.33
557.156	5769.98
557.361	5245.7
557.567	5301
557.772	5839.61
557.977	5595.9
558.182	5313.28
558.387	5212.93
558.592	5210.89
558.797	5772.03
559.002	5487.36
559.207	5309.19
559.412	5628.67
559.617	6023.93
559.822	5284.61
560.027	5225.22
560.232	5583.62
560.437	5710.59
560.642	5180.17
560.847	5399.3
561.051	5597.95
561.256	5692.16
561.461	5434.11
561.666	5225.22
561.871	5610.24
562.076	5722.88
562.281	5399.3
562.485	5315.33
562.69	5765.89
562.895	5899
563.1	5444.35
563.305	5348.1
563.509	6003.45
563.714	6390.52
563.919	5493.51
564.123	5554.94
564.328	5608.19
564.533	5985.02
564.737	5579.52
564.942	5536.51
565.147	6177.53
565.351	6216.44
565.556	5698.3
565.761	5812.99
565.965	5735.17
566.17	5735.17
566.374	5569.28
566.579	5614.34
566.784	6009.59
566.988	5905.15
567.193	5554.94
567.397	5651.2
567.602	5692.16
567.806	5921.53
568.011	5602.05
568.215	5837.56
568.42	5745.41
568.624	5942.01
568.828	5729.02
569.033	5839.61
569.237	6142.71
569.442	6193.91
569.646	5612.29
569.85	5827.32
570.055	6073.08
570.259	6150.9
570.463	6042.36
570.668	5849.85
570.872	6021.88
571.076	6187.77
571.281	5923.58
571.485	5989.11
571.689	6210.29
571.893	6333.17
572.098	6081.27
572.302	5901.05
572.506	6380.28
572.71	6261.49
572.914	6138.62
573.119	6167.29
573.323	6388.47
573.527	6640.37
573.731	6046.46
573.935	6193.91
574.139	6251.25
574.343	6167.29
574.547	5997.31
574.751	6363.89
574.955	6744.81
575.159	6634.22
575.364	6013.69
575.568	5985.02
575.772	6447.86
575.976	6705.9
576.18	6161.14
576.383	6118.14
576.587	6869.74
576.791	6499.06
576.995	6105.85
577.199	5987.07
577.403	6802.16
577.607	6666.99
577.811	6331.12
578.015	6359.8
578.219	6554.35
578.422	6765.29
578.626	6359.8
578.83	6621.94
579.034	6705.9
579.238	6525.68
579.442	6415.09
579.645	6798.06
579.849	6560.5
580.053	6791.92
580.257	6314.74
580.46	6642.42
580.664	6939.37
580.868	6773.49
581.071	6759.15
581.275	6550.26
581.479	6423.28
581.682	6937.32
581.886	6435.57
582.09	6763.25
582.293	6947.56
582.497	6839.02
582.7	6834.93
582.904	6632.18
583.107	6757.1
583.311	6705.9
583.515	6773.49
583.718	6687.47
583.922	6929.13
584.125	7365.35
584.329	6570.74
584.532	6703.86
584.735	7240.42
584.939	7113.45
585.142	6449.91
585.346	6476.53
585.549	6988.52
585.753	6922.99
585.956	7031.53
586.159	6968.04
586.363	7418.6
586.566	7070.44
586.769	6599.41
586.973	6724.33
587.176	7164.65
587.379	7490.28
587.582	7422.69
587.786	7131.88
587.989	7142.12
588.192	7656.16
588.395	7084.78
588.599	7287.53
588.802	7336.68
589.005	7224.04
589.208	7228.14
589.411	7025.39
589.615	7475.94
589.818	7647.97
590.021	7330.53
590.224	7281.38
590.427	7516.9
590.63	7486.18
590.833	7224.04
591.036	7076.59
591.239	7226.09
591.442	7371.49
591.645	7400.16
591.848	7303.91
592.051	7639.78
592.254	7602.91
592.457	7170.79
592.66	7303.91
592.863	7328.49
593.066	7555.81
593.269	7297.77
593.472	7394.02
593.675	7428.84
593.878	7564
594.081	7496.42
594.284	7324.39
594.486	7736.03
594.689	7670.5
594.892	7473.89
595.095	7664.35
595.298	7752.42
595.5	7746.27
595.703	7746.27
595.906	7596.77
596.109	8149.72
596.311	7903.96
596.514	7162.6
596.717	7713.5
596.92	8008.41
597.122	7930.59
597.325	7477.99
597.528	7594.72
597.73	8184.54
597.933	7846.62
598.136	7631.58
598.338	7277.29
598.541	8039.13
598.743	8192.73
598.946	7733.98
599.148	7758.56
599.351	8153.82
599.554	8174.3
599.756	7754.46
599.959	7893.72
600.161	8229.59
600.363	8608.47
600.566	8094.43
600.768	7668.45
600.971	8399.57
601.173	8241.88
601.376	7838.43
601.578	7949.02
601.78	8205.02
601.983	8573.65
602.185	8073.95
602.388	8039.13
602.59	8012.51
602.792	8186.58
602.995	8051.42
603.197	8026.84
603.399	8307.41
603.601	8340.18
603.804	7955.16
604.006	8030.94
604.208	8125.15
604.41	7951.07
604.613	8215.26
604.815	7924.44
605.017	8891.09
605.219	8047.32
605.421	8198.87
605.623	8104.67
605.826	8569.55
606.028	8747.73
606.23	8264.41
606.432	7899.87
606.634	8708.82
606.836	8630.99
607.038	8149.72
607.24	8274.65
607.442	8327.89
607.644	8430.29
607.846	8262.36
608.048	8409.81
608.25	8843.98
608.452	8295.13
608.654	8358.61
608.856	7998.17
609.058	8444.63
609.26	8446.68
609.462	8260.31
609.664	8174.3
609.866	8874.7
610.067	8731.34
610.269	8461.01
610.471	8532.69
610.673	8420.05
610.875	8651.47
611.077	8225.5
611.278	8372.95
611.48	8506.07
611.682	9034.44
611.884	8504.02
612.085	8362.71
612.287	8317.65
612.489	8753.87
612.69	8368.85
612.892	8364.76
613.094	8874.7
613.295	8534.74
613.497	8299.22
613.699	8311.51
613.9	8960.72
614.102	8876.75
614.304	8674
614.505	8198.87
614.707	8749.78
614.908	8653.52
615.11	8354.52
615.311	8516.31
615.513	8813.26
615.714	8731.34
615.916	8587.99
616.117	8592.08
616.319	8815.31
616.52	8798.93
616.722	8493.78
616.923	8653.52
617.124	8884.94
617.326	8899.28
617.527	8639.19
617.729	9003.72
617.93	8915.66
618.131	9157.32
618.333	8477.4
618.534	8782.54
618.735	8639.19
618.937	9147.08
619.138	8499.92
619.339	8477.4
619.54	8997.58
619.742	8749.78
619.943	8848.08
620.144	8690.38
620.345	9149.13
620.546	9255.62
620.748	8800.98
620.949	8807.12
621.15	9003.72
621.351	9040.59
621.552	8571.6
621.753	8630.99
621.954	8520.4
622.155	9308.87
622.356	8628.95
622.558	8821.45
622.759	9067.21
622.96	9450.18
623.161	8751.82
623.362	8766.16
623.563	8968.91
623.764	9192.14
623.965	8917.71
624.166	8960.72
624.366	8909.52
624.567	8921.81
624.768	8608.47
624.969	8815.31
625.17	8897.23
625.371	9124.55
625.572	8831.69
625.773	8747.73
625.973	9253.58
626.174	9233.1
626.375	9079.5
626.576	9114.31
626.777	9366.21
626.977	9835.2
627.178	8995.53
627.379	9079.5
627.58	9040.59
627.78	9212.62
627.981	9018.06
628.182	9013.96
628.382	9470.66
628.583	9036.49
628.784	9069.26
628.984	9192.14
629.185	9396.93
629.386	9448.13
629.586	9106.12
629.787	8825.55
629.987	9493.19
630.188	9243.34
630.388	9077.45
630.589	9067.21
630.79	9833.15
630.99	9249.48
631.191	9274.06
631.391	9245.38
631.591	9568.96
631.792	9798.34
631.992	9450.18
632.193	9450.18
632.393	9740.99
632.594	9429.7
632.794	9206.47
632.994	9335.49
633.195	9241.29
633.395	9552.58
633.595	9276.1
633.796	9388.74
633.996	9319.11
634.196	9687.75
634.397	9378.5
634.597	9364.17
634.797	9384.65
634.997	9685.7
635.198	9425.61
635.398	9192.14
635.598	9910.97
635.798	9722.56
635.998	9771.71
636.199	9403.08
636.399	9415.37
636.599	9155.27
636.799	9571.01
636.999	9585.35
637.199	9906.88
637.399	9788.1
637.599	9499.33
637.799	9732.8
637.999	9421.51
638.199	10040
638.399	9421.51
638.599	9396.93
638.799	9894.59
638.999	10386.1
639.199	9517.76
639.399	9716.42
639.599	9915.07
639.799	9499.33
639.999	9511.62
640.199	9517.76
640.399	9720.51
640.599	9755.33
640.799	9753.28
640.998	9847.49
641.198	10193.59
641.398	9986.75
641.598	9605.83
641.798	9687.75
641.997	10646.19
642.197	9857.73
642.397	9796.29
642.597	9814.72
642.796	9896.64
642.996	10353.34
643.196	9679.55
643.395	9673.41
643.595	10005.18
643.795	9808.58
643.994	9888.45
644.194	9964.22
644.394	10277.56
644.593	10146.49
644.793	9712.32
644.992	9880.25
645.192	10021.56
645.392	9769.66
645.591	9986.75
645.791	9892.54
645.99	10109.63
646.19	10287.8
646.389	10037.95
646.589	9970.37
646.788	10244.79
646.987	10220.22
647.187	10183.35
647.386	9996.99
647.586	10132.15
647.785	10130.11
647.984	10144.44
648.184	10048.19
648.383	10113.72
648.582	9986.75
648.782	9841.34
648.981	10095.29
649.18	10115.77
649.38	10185.4
649.579	9853.63
649.778	9792.19
649.977	10523.32
650.177	10289.85
650.376	10062.52
650.575	10013.37
650.774	10537.65
650.973	10246.84
651.173	9939.65
651.372	10291.9
651.571	10398.39
651.77	10623.67
651.969	9945.79
652.168	10177.21
652.367	10113.72
652.566	10375.86
652.765	10232.51
652.964	10330.81
653.163	10883.76
653.362	10314.42
653.561	10134.2
653.76	10150.59
653.959	10396.34
654.158	10584.76
654.357	10377.91
654.556	10228.41
654.755	10588.85
654.954	10525.36
655.153	10451.64
655.352	10277.56
655.551	10713.78
655.749	10357.43
655.948	10398.39
656.147	10285.75
656.346	10699.44
656.545	10627.76
656.743	10463.93
656.942	10291.9
657.141	10543.8
657.34	10283.7
657.538	10316.47
657.737	10537.65
657.936	10476.21
658.135	10805.94
658.333	10412.73
658.532	10689.2
658.731	11082.41
658.929	10748.59
659.128	10670.77
659.326	10291.9
659.525	10988.21
659.724	10515.12
659.922	10109.63
660.121	10234.55
660.319	10642.1
660.518	10531.51
660.716	10306.23
660.915	10332.86
661.113	11186.86
661.312	10523.32
661.51	10736.31
661.709	10678.96
661.907	10922.67
662.105	11098.8
662.304	10605.24
662.502	10683.06
662.701	10998.45
662.899	10699.44
663.097	10638
663.296	10322.62
663.494	10992.3
663.692	11094.7
663.891	10564.28
664.089	10300.09
664.287	10945.2
664.485	10965.68
664.684	10705.59
664.882	10844.85
665.08	10861.23
665.278	10822.32
665.476	10353.34
665.675	10869.42
665.873	11338.41
666.071	11033.26
666.269	10533.56
666.467	11043.5
666.665	10916.53
666.863	10619.57
667.061	10742.45
667.259	10721.97
667.457	10963.63
667.655	11012.78
667.853	10455.73
668.051	10654.39
668.249	10656.43
668.447	11209.39
668.645	10715.83
668.843	11039.4
669.041	11190.95
669.239	10965.68
669.437	10977.97
669.635	10703.54
669.833	10990.25
670.031	10959.53
670.229	10820.27
670.426	10844.85
670.624	11129.52
670.822	10551.99
671.02	10668.72
671.218	10785.46
671.415	10678.96
671.613	11045.55
671.811	10642.1
672.009	10769.07
672.206	11289.26
672.404	11109.04
672.602	10910.38
672.799	10832.56
672.997	11082.41
673.195	11272.87
673.392	10767.03
673.59	10947.25
673.788	11141.8
673.985	10773.17
674.183	10678.96
674.38	10746.55
674.578	11344.55
674.775	10623.67
674.973	10625.72
675.17	11002.54
675.368	11045.55
675.565	11158.19
675.763	10764.98
675.96	10656.43
676.158	11385.51
676.355	10861.23
676.553	10717.87
676.75	10957.49
676.947	11010.73
677.145	10875.57
677.342	10713.78
677.539	10781.36
677.737	11051.69
677.934	11537.06
678.131	10891.95
678.329	10869.42
678.526	11340.46
678.723	11147.95
678.92	10781.36
679.118	10799.79
679.315	10726.07
679.512	11438.76
679.709	10781.36
679.906	10771.12
680.104	11188.91
680.301	11231.91
680.498	10529.46
680.695	10738.35
680.892	10773.17
681.089	10832.56
681.286	10947.25
681.483	10488.5
681.68	11016.88
681.877	11207.34
682.075	10764.98
682.272	10891.95
682.469	10902.19
682.665	10672.82
682.862	10650.29
683.059	10650.29
683.256	11123.37
683.453	10951.34
683.65	11027.12
683.847	10832.56
684.044	10902.19
684.241	10721.97
684.438	11057.84
684.635	10709.68
684.831	11285.16
685.028	11588.26
685.225	10736.31
685.422	10801.84
685.619	10969.77
685.815	11219.63
686.012	10867.38
686.209	10709.68
686.405	10934.96
686.602	11317.93
686.799	10736.31
686.996	10740.4
687.192	10650.29
687.389	11219.63
687.586	10605.24
687.782	10750.64
687.979	11354.79
688.175	11565.73
688.372	10775.22
688.568	10730.16
688.765	10918.57
688.962	11489.96
689.158	10670.77
689.355	10601.14
689.551	10953.39
689.748	10912.43
689.944	10713.78
690.14	10666.67
690.337	11209.39
690.533	10961.58
690.73	10855.09
690.926	10801.84
691.123	10898.1
691.319	10887.86
691.515	10566.32
691.712	10848.94
691.908	11088.56
692.104	10840.75
692.301	10826.42
692.497	10625.72
692.693	11152.04
692.889	11274.92
693.086	10941.1
693.282	10642.1
693.478	10865.33
693.674	11412.14
693.87	10801.84
694.067	10717.87
694.263	11127.47
694.459	10902.19
694.655	10994.35
694.851	10939.05
695.047	11135.66
695.243	11047.6
695.439	10797.74
695.635	10805.94
695.831	11193
696.027	11047.6
696.224	10508.98
696.42	10996.4
696.615	11352.74
696.811	10971.82
697.007	10506.93
697.203	10713.78
697.399	11127.47
697.595	11055.79
697.791	10697.39
697.987	10885.81
698.183	10607.28
698.379	10560.18
698.575	10685.11
698.77	10635.96
698.966	11057.84
699.162	11252.39
699.358	10771.12
699.554	10799.79
699.749	11197.1
699.945	11018.93
700.141	10638
700.337	10896.05
700.532	10717.87
700.728	10668.72
700.924	10576.56
701.119	10560.18
701.315	10900.14
701.511	10666.67
701.706	10769.07
701.902	10422.97
702.097	10687.15
702.293	10967.73
702.489	10625.72
702.684	10666.67
702.88	10740.4
703.075	10697.39
703.271	10707.63
703.466	10611.38
703.662	11014.83
703.857	10998.45
704.053	10599.09
704.248	10531.51
704.443	11016.88
704.639	10937.01
704.834	10672.82
705.03	10867.38
705.225	11039.4
705.42	11098.8
705.616	10672.82
705.811	10322.62
706.006	10881.71
706.202	10719.92
706.397	10947.25
706.592	10592.95
706.787	10824.37
706.983	10922.67
707.178	10973.87
707.373	10607.28
707.568	10896.05
707.763	10775.22
707.959	10566.32
708.154	10783.41
708.349	10916.53
708.544	10918.57
708.739	10941.1
708.934	10310.33
709.129	11004.59
709.324	11121.32
709.519	10767.03
709.714	10578.61
709.909	11102.89
710.104	11047.6
710.299	10693.3
710.494	10773.17
710.689	11006.64
710.884	10640.05
711.079	10633.91
711.274	10867.38
711.469	11010.73
711.664	10982.06
711.859	10566.32
712.054	10740.4
712.249	11059.88
712.443	11094.7
712.638	10666.67
712.833	10736.31
713.028	10660.53
713.223	10701.49
713.417	11248.3
713.612	10607.28
713.807	11039.4
714.002	11397.8
714.196	10658.48
714.391	10295.99
714.586	11043.5
714.78	10556.08
714.975	10642.1
715.17	10603.19
715.364	10715.83
715.559	10828.46
715.754	10320.57
715.948	10595
716.143	11272.87
716.337	10750.64
716.532	10916.53
716.726	10492.6
716.921	10826.42
717.115	11291.31
717.31	10513.08
717.504	11082.41
717.699	10799.79
717.893	10891.95
718.088	10316.47
718.282	10398.39
718.476	10762.93
718.671	10750.64
718.865	10508.98
719.059	10443.45
719.254	10611.38
719.448	11213.48
719.642	11629.22
719.837	10214.07
720.031	10932.91
720.225	10734.26
720.419	10429.11
720.614	10275.51
720.808	10760.88
721.002	10683.06
721.196	10255.03
721.39	10576.56
721.585	11039.4
721.779	10791.6
721.973	10386.1
722.167	10441.4
722.361	10713.78
722.555	10939.05
722.749	10207.93
722.943	10517.17
723.137	10355.38
723.331	10730.16
723.525	10480.31
723.719	10445.49
723.913	10775.22
724.107	11063.98
724.301	10101.44
724.495	10324.66
724.689	11012.78
724.883	10869.42
725.077	10431.16
725.271	10474.17
725.465	10855.09
725.659	10556.08
725.853	10648.24
726.046	10295.99
726.24	10326.71
726.434	10580.66
726.628	10551.99
726.822	10455.73
727.015	10973.87
727.209	10732.21
727.403	10308.28
727.596	10040
727.79	10719.92
727.984	10879.66
728.177	10390.2
728.371	10359.48
728.565	10738.35
728.758	10269.37
728.952	10291.9
729.146	10255.03
729.339	10881.71
729.533	10412.73
729.726	10332.86
729.92	10138.3
730.113	10945.2
730.307	10838.7
730.5	10341.05
730.694	10523.32
730.887	10420.92
731.081	10748.59
731.274	10451.64
731.468	10410.68
731.661	10590.9
731.854	10427.06
732.048	10443.45
732.241	10019.52
732.435	10275.51
732.628	10584.76
732.821	10439.35
733.014	10431.16
733.208	10197.69
733.401	10850.99
733.594	10425.01
733.788	10400.44
733.981	10947.25
734.174	10615.48
734.367	10410.68
734.56	10513.08
734.754	10789.55
734.947	10826.42
735.14	10320.57
735.333	10527.41
735.526	10773.17
735.719	10529.46
735.912	10283.7
736.105	10564.28
736.298	10527.41
736.491	10250.94
736.684	10388.15
736.877	10234.55
737.07	10697.39
737.263	11023.02
737.456	10595
737.649	10242.75
737.842	10427.06
738.035	10541.75
738.228	10451.64
738.421	10629.81
738.614	10664.63
738.807	10750.64
739	10308.28
739.192	10363.58
739.385	10783.41
739.578	10750.64
739.771	10459.83
739.964	10351.29
740.156	10525.36
740.349	10408.63
740.542	10482.36
740.735	10080.96
740.927	10218.17
741.12	10443.45
741.313	10117.82
741.505	10410.68
741.698	10633.91
741.891	10597.04
742.083	10500.79
742.276	10513.08
742.468	10277.56
742.661	10523.32
742.854	10404.53
743.046	10375.86
743.239	10916.53
743.431	10488.5
743.624	10416.82
743.816	10132.15
744.009	10326.71
744.201	10724.02
744.393	10498.74
744.586	10259.13
744.778	10703.54
744.971	10580.66
745.163	10500.79
745.355	10308.28
745.548	10400.44
745.74	10398.39
745.932	10187.45
746.125	10252.98
746.317	11035.31
746.509	10465.97
746.702	10291.9
746.894	10558.13
747.086	10545.84
747.278	10844.85
747.471	10291.9
747.663	10189.5
747.855	10482.36
748.047	10863.28
748.239	10209.98
748.431	10347.19
748.623	10664.63
748.815	10719.92
749.008	10222.27
749.2	10183.35
749.392	10564.28
749.584	10474.17
749.776	10537.65
749.968	10422.97
750.16	10902.19
750.352	10439.35
750.544	10363.58
750.736	10115.77
750.928	10742.45
751.12	10295.99
751.311	10355.38
751.503	10248.89
751.695	10310.33
751.887	10187.45
752.079	9990.84
752.271	10203.83
752.463	11049.64
752.654	10554.04
752.846	10236.6
753.038	10140.35
753.23	10115.77
753.421	10324.66
753.613	10132.15
753.805	10525.36
753.997	10580.66
754.188	10599.09
754.38	9978.56
754.572	10228.41
754.763	10132.15
754.955	10187.45
755.146	10117.82
755.338	10357.43
755.53	10089.15
755.721	10144.44
755.913	9906.88
756.104	9962.17
756.296	10121.91
756.487	10400.44
756.679	9843.39
756.87	9913.02
757.062	10001.08
757.253	10326.71
757.445	9964.22
757.636	10228.41
757.827	10019.52
758.019	10789.55
758.21	9900.73
758.401	9827.01
758.593	10685.11
758.784	10308.28
758.975	9620.16
759.167	9870.01
759.358	10148.54
759.549	10635.96
759.74	9800.38
759.932	9730.75
760.123	10437.3
760.314	9976.51
760.505	10242.75
760.696	10029.76
760.888	10539.7
761.079	9849.54
761.27	9845.44
761.461	9935.55
761.652	10488.5
761.843	9812.67
762.034	9872.06
762.225	10209.98
762.416	9978.56
762.607	10078.91
762.798	9675.46
762.989	9775.81
763.18	10787.5
763.371	9843.39
763.562	9804.48
763.753	9763.52
763.944	10144.44
764.135	10089.15
764.326	9771.71
764.517	9700.03
764.708	9939.65
764.899	10068.67
765.089	9779.9
765.28	9685.7
765.471	9888.45
765.662	10115.77
765.853	9644.74
766.043	9312.97
766.234	9982.65
766.425	9882.3
766.615	9669.31
766.806	9460.42
766.997	10175.16
767.187	9931.45
767.378	9534.15
767.569	9278.15
767.759	9982.65
767.95	9771.71
768.141	9761.47
768.331	9347.78
768.522	9888.45
768.712	10062.52
768.903	9573.06
769.093	9536.2
769.284	10185.4
769.474	9958.08
769.665	9120.46
769.855	9280.2
770.046	9886.4
770.236	9511.62
770.426	9738.94
770.617	9257.67
770.807	9886.4
770.998	9554.63
771.188	9775.81
771.378	9497.28
771.569	10062.52
771.759	9777.86
771.949	9263.82
772.139	9380.55
772.33	9515.72
772.52	9833.15
772.71	9237.19
772.9	9247.43
773.09	9872.06
773.281	9603.78
773.471	9183.95
773.661	9255.62
773.851	9693.89
774.041	9362.12
774.231	9206.47
774.421	9339.59
774.611	9759.42
774.802	9538.24
774.992	9386.69
775.182	9120.46
775.372	9394.89
775.562	9571.01
775.752	9159.37
775.942	9272.01
776.131	9777.86
776.321	9501.38
776.511	9061.07
776.701	9046.73
776.891	9435.85
777.081	9040.59
777.271	9194.19
777.461	9099.98
777.651	9468.61
777.84	9587.4
778.03	9016.01
778.22	9177.8
778.41	9667.27
778.599	9079.5
778.789	9104.07
778.979	9142.99
779.169	9425.61
779.358	9124.55
779.548	9335.49
779.738	8846.03
779.927	9202.38
780.117	9220.81
780.307	9329.35
780.496	8960.72
780.686	9247.43
780.875	9816.77
781.065	9149.13
781.254	8946.38
781.444	9177.8
781.633	9208.52
781.823	8954.57
782.012	9001.68
782.202	8917.71
782.391	9267.91
782.581	8630.99
782.77	8968.91
782.96	9417.41
783.149	8993.48
783.338	8841.93
783.528	8671.95
783.717	9286.34
783.906	9509.57
784.096	9022.16
784.285	8932.05
784.474	9016.01
784.663	8872.65
784.853	8915.66
785.042	8884.94
785.231	8899.28
785.42	9067.21
785.61	8962.76
785.799	8731.34
785.988	9054.92
786.177	8796.88
786.366	8858.32
786.555	9120.46
786.744	8977.1
786.933	8973
787.122	8811.21
787.312	8733.39
787.501	8782.54
787.69	9093.83
787.879	8604.37
788.068	8678.1
788.257	8643.28
788.445	8641.23
788.634	8835.79
788.823	8561.36
789.012	9708.23
789.201	9276.1
789.39	8735.44
789.579	8354.52
789.768	8803.02
789.957	8782.54
790.145	8690.38
790.334	8372.95
790.523	8608.47
790.712	8870.61
790.9	8854.22
791.089	8491.73
791.278	8917.71
791.467	8811.21
791.655	8469.2
791.844	9067.21
792.033	8639.19
792.221	8524.5
792.41	8680.14
792.599	8350.42
792.787	8950.48
792.976	9013.96
793.164	8733.39
793.353	8614.61
793.541	8747.73
793.73	8938.19
793.918	8493.78
794.107	8475.35
794.295	8858.32
794.484	8612.56
794.672	8633.04
794.861	8477.4
795.049	8899.28
795.238	9018.06
795.426	8526.55
795.614	8387.29
795.803	8864.46
795.991	9065.16
796.179	8579.79
796.368	8475.35
796.556	8901.33
796.744	8348.37
796.932	8211.16
797.121	8305.37
797.309	8581.84
797.497	8886.99
797.685	8600.27
797.874	8458.96
798.062	8508.12
798.25	8665.81
798.438	8381.14
798.626	8338.13
798.814	8598.23
799.002	9040.59
799.19	8479.44
799.378	8440.53
799.566	8827.6
799.755	8786.64
799.943	8598.23
800.131	8383.19
800.318	8764.11
800.506	8598.23
800.694	8424.15
800.882	8395.48
801.07	8776.4
801.258	8581.84
801.446	8544.98
801.634	8387.29
801.822	8520.4
802.01	8651.47
802.197	8516.31
802.385	8428.24
802.573	8688.34
802.761	8442.58
802.949	8465.11
803.136	8356.57
803.324	8874.7
803.512	8639.19
803.699	8491.73
803.887	8336.09
804.075	8999.63
804.262	8383.19
804.45	8331.99
804.638	8561.36
804.825	8587.99
805.013	8456.92
805.201	8608.47
805.388	8411.86
805.576	8659.67
805.763	9276.1
805.951	8626.9
806.138	8643.28
806.326	9177.8
806.513	8735.44
806.701	8657.62
806.888	8436.44
807.075	9022.16
807.263	9200.33
807.45	8420.05
807.638	8688.34
807.825	9212.62
808.012	9038.54
808.2	8577.75
808.387	8602.32
808.574	8831.69
808.761	8915.66
808.949	8415.96
809.136	8901.33
809.323	8604.37
809.51	8749.78
809.698	8921.81
809.885	8880.85
810.072	9046.73
810.259	9181.9
810.446	8635.09
810.633	8647.38
810.82	9071.31
811.008	9243.34
811.195	8995.53
811.382	8819.41
811.569	8930
811.756	8704.72
811.943	8635.09
812.13	8598.23
812.317	8932.05
812.504	8717.01
812.691	8780.5
812.878	9224.9
813.064	9036.49
813.251	8983.24
813.438	8659.67
813.625	8948.43
813.812	9048.78
813.999	8909.52
814.186	8841.93
814.372	8858.32
814.559	9071.31
814.746	9233.1
814.933	8829.65
815.12	8989.39
815.306	8891.09
815.493	8776.4
815.68	8702.67
815.866	8823.5
816.053	9282.25
816.24	9489.09
816.426	8780.5
816.613	8520.4
816.799	9151.18
816.986	9358.02
817.173	8829.65
817.359	8512.21
817.546	8909.52
817.732	8616.66
817.919	8583.89
818.105	8739.54
818.292	8805.07
818.478	9073.35
818.665	8882.89
818.851	8708.82
819.037	9497.28
819.224	8927.95
819.41	8524.5
819.597	8731.34
819.783	9089.74
819.969	9130.7
820.156	8796.88
820.342	8692.43
820.528	9439.94
820.714	8839.89
820.901	8886.99
821.087	8473.3
821.273	9386.69
821.459	8874.7
821.646	8450.77
821.832	8473.3
822.018	9028.3
822.204	8979.15
822.39	8626.9
822.576	8407.77
822.762	8835.79
822.948	8633.04
823.134	8919.76
823.32	8719.06
823.507	8682.19
823.693	8770.26
823.879	8895.18
824.065	8547.03
824.25	8880.85
824.436	8452.82
824.622	8524.5
824.808	8608.47
824.994	8774.35
825.18	8534.74
825.366	8540.88
825.552	8530.64
825.738	8643.28
825.923	8780.5
826.109	8962.76
826.295	8530.64
826.481	8313.56
826.667	8420.05
826.852	8614.61
827.038	8467.16
827.224	8952.52
827.409	8919.76
827.595	8311.51
827.781	8418
827.966	8784.59
828.152	8796.88
828.338	8370.9
828.523	8344.28
828.709	8311.51
828.894	8803.02
829.08	8467.16
829.266	8319.7
829.451	8401.62
829.637	8729.3
829.822	8430.29
830.008	8311.51
830.193	8700.62
830.378	8837.84
830.564	8471.25
830.749	8139.48
830.935	8751.82
831.12	8655.57
831.305	8020.7
831.491	8315.61
831.676	8164.06
831.861	8592.08
832.047	8278.74
832.232	8002.27
832.417	8714.96
832.602	8385.24
832.788	8211.16
832.973	8053.47
833.158	8368.85
833.343	8342.23
833.528	8213.21
833.714	8190.68
833.899	8565.46
834.084	8809.17
834.269	8303.32
834.454	8110.81
834.639	8348.37
834.824	8463.06
835.009	8182.49
835.194	8286.93
835.379	8383.19
835.564	8481.49
835.749	7983.84
835.934	8037.08
836.119	8393.43
836.304	8356.57
836.489	8149.72
836.674	8270.55
836.859	8108.76
837.044	8651.47
837.228	7932.64
837.413	7936.73
837.598	8430.29
837.783	8481.49
837.968	7951.07
838.152	7789.28
838.337	7783.13
838.522	8375
838.707	8415.96
838.891	8342.23
839.076	8035.03
839.261	8360.66
839.445	7934.68
839.63	7830.24
839.815	8377.05
839.999	7893.72
840.184	8030.94
840.368	8098.52
840.553	8297.17
840.737	8258.26
840.922	7779.04
841.106	7768.8
841.291	7736.03
841.475	8080.09
841.66	7961.31
841.844	7650.02
842.029	8704.72
842.213	7693.02
842.397	7693.02
842.582	7715.55
842.766	8458.96
842.951	8139.48
843.135	7813.85
843.319	7789.28
843.504	7809.76
843.688	8260.31
843.872	7564
844.056	7625.44
844.241	8155.86
844.425	7965.4
844.609	7762.65
844.793	7500.51
844.977	7979.74
845.161	7940.83
845.346	7422.69
845.53	7836.38
845.714	7721.7
845.898	8170.2
846.082	7557.86
846.266	7684.83
846.45	7748.32
846.634	8008.41
846.818	7701.22
847.002	7572.19
847.186	7963.36
847.37	7514.85
847.554	7338.73
847.738	7533.28
847.922	7789.28
848.106	7840.48
848.29	7398.12
848.473	7527.14
848.657	7951.07
848.841	7713.5
849.025	7520.99
849.209	7318.25
849.392	7844.57
849.576	7613.15
849.76	7181.03
849.944	7584.48
850.127	7983.84
850.311	7308.01
850.495	7318.25
850.678	7281.38
850.862	8059.61
851.046	7824.09
851.229	7666.4
851.413	7424.74
851.596	7678.69
851.78	7500.51
851.964	7467.75
852.147	7375.59
852.331	8170.2
852.514	7891.68
852.698	7490.28
852.881	7062.25
853.065	7815.9
853.248	7629.54
853.431	7576.29
853.615	7443.17
853.798	7912.16
853.982	7520.99
854.165	7418.6
854.348	7265
854.532	7340.77
854.715	7363.3
854.898	7365.35
855.081	7197.42
855.265	7772.89
855.448	7752.42
855.631	7185.13
855.814	7133.93
855.997	7740.13
856.181	7373.54
856.364	7109.35
856.547	7135.98
856.73	7488.23
856.913	7420.64
857.096	7062.25
857.279	7101.16
857.462	7088.87
857.645	7711.46
857.828	7209.7
858.011	7252.71
858.194	7092.97
858.377	7506.66
858.56	7054.06
858.743	7025.39
858.926	6961.9
859.109	7363.3
859.292	7076.59
859.475	6994.67
859.658	7484.13
859.841	7101.16
860.023	6918.89
860.206	6875.88
860.389	7492.32
860.572	7391.97
860.755	6875.88
860.937	7004.91
861.12	7217.9
861.303	7262.95
861.486	6959.85
861.668	6925.04
861.851	7424.74
862.034	7226.09
862.216	6974.19
862.399	6730.48
862.581	7232.23
862.764	7545.57
862.947	6925.04
863.129	6966
863.312	6664.94
863.494	7338.73
863.677	6986.47
863.859	6804.21
864.042	7254.76
864.224	7328.49
864.406	6861.55
864.589	6474.48
864.771	6961.9
864.954	6595.31
865.136	6652.66
865.318	6484.72
865.501	7068.39
865.683	6355.7
865.865	6630.13
866.048	6570.74
866.23	6941.42
866.412	6724.33
866.594	6554.35
866.777	6636.27
866.959	6961.9
867.141	6636.27
867.323	6771.44
867.505	6918.89
867.687	6884.08
867.869	6920.94
868.052	6613.74
868.234	6341.36
868.416	6822.64
868.598	6982.38
868.78	6482.67
868.962	6697.71
869.144	7031.53
869.326	6953.71
869.508	6419.19
869.69	6578.93
869.872	6628.08
870.054	7088.87
870.236	6339.32
870.417	6411
870.599	6695.66
870.781	7144.17
870.963	6755.05
871.145	6355.7
871.327	6501.11
871.508	6879.98
871.69	6603.5
871.872	6302.45
872.054	6669.04
872.235	7049.96
872.417	6730.48
872.599	6382.32
872.78	7160.55
872.962	6884.08
873.144	6279.93
873.325	6568.69
873.507	7002.86
873.689	6669.04
873.87	6460.15
874.052	6636.27
874.233	6613.74
874.415	6929.13
874.596	6572.79
874.778	6329.08
874.959	6705.9
875.141	6841.07
875.322	6411
875.503	6443.76
875.685	6736.62
875.866	6259.45
876.048	6435.57
876.229	6501.11
876.41	6652.66
876.592	6855.4
876.773	6464.24
876.954	6404.85
877.136	7095.02
877.317	6775.53
877.498	6374.13
877.679	6556.4
877.86	6746.86
878.042	6666.99
878.223	6599.41
878.404	6972.14
878.585	6882.03
878.766	7181.03
878.947	6763.25
879.128	6886.12
879.309	6927.08
879.49	7025.39
879.672	6685.42
879.853	6781.68
880.034	6669.04
880.215	6836.97
880.396	6978.28
880.576	6583.02
880.757	6638.32
880.938	7092.97
881.119	6550.26
881.3	6699.76
881.481	6720.24
881.662	7574.24
881.843	6621.94
882.023	6611.7
882.204	7037.67
882.385	6980.33
882.566	6933.23
882.747	6699.76
882.927	6937.32
883.108	6974.19
883.289	6773.49
883.469	7021.29
883.65	6908.65
883.831	7015.15
884.011	7027.43
884.192	6888.17
884.373	7369.44
884.553	7029.48
884.734	6703.86
884.914	7076.59
885.095	7779.04
885.275	7480.04
885.456	7250.66
885.636	6740.72
885.817	7105.26
885.997	7052.01
886.178	6845.16
886.358	7082.73
886.538	7238.37
886.719	8000.22
886.899	6871.79
887.08	7117.54
887.26	7394.02
887.44	6968.04
887.621	6884.08
887.801	7060.2
887.981	7805.66
888.161	7482.08
888.342	7047.91
888.522	7189.22
888.702	7613.15
888.882	7580.39
889.062	7187.18
889.242	6990.57
889.423	7672.54
889.603	7389.92
889.783	7365.35
889.963	7062.25
890.143	7525.09
890.323	7500.51
890.503	7203.56
890.683	6998.76
890.863	7187.18
891.043	7221.99
891.223	7076.59
891.403	7322.34
891.583	7262.95
891.763	7400.16
891.943	7107.3
892.122	7140.07
892.302	7353.06
892.482	7267.05
892.662	7353.06
892.842	7115.5
893.022	7199.46
893.201	7221.99
893.381	7529.19
893.561	7242.47
893.741	7467.75
893.92	7332.58
894.1	7314.15
894.28	7142.12
894.459	7408.36
894.639	7453.41
894.819	7082.73
894.998	7443.17
895.178	7586.53
895.357	7369.44
895.537	7056.11
895.716	7082.73
895.896	7406.31
896.075	7666.4
896.255	7017.19
896.434	6963.95
896.614	7369.44
896.793	7656.16
896.973	7336.68
897.152	7189.22
897.331	7590.63
897.511	7463.65
897.69	6894.32
897.87	7064.3
898.049	7611.11
898.228	7590.63
898.407	7305.96
898.587	7418.6
898.766	7056.11
898.945	7539.43
899.124	7260.9
899.304	7285.48
899.483	7537.38
899.662	7709.41
899.841	6929.13
900.02	7123.69
900.199	7375.59
900.378	7221.99
900.557	6912.75
900.737	6904.56
900.916	7181.03
901.095	7365.35
901.274	7201.51
901.453	6904.56
901.632	7002.86
901.811	7049.96
901.989	7095.02
902.168	6783.73
902.347	7285.48
902.526	7015.15
902.705	6769.39
902.884	7029.48
903.063	7424.74
903.242	7463.65
903.42	6712.05
903.599	6959.85
903.778	7314.15
903.957	7310.05
904.135	7070.44
904.314	7070.44
904.493	7144.17
904.672	7279.33
904.85	6986.47
905.029	6941.42
905.207	7193.32
905.386	7860.96
905.565	6763.25
905.743	6853.36
905.922	6961.9
906.1	7146.22
906.279	6789.87
906.457	6619.89
906.636	6871.79
906.814	6703.86
906.993	6728.43
907.171	6722.29
907.35	7041.77
907.528	7172.84
907.707	6818.54
907.885	6540.02
908.063	7037.67
908.242	6765.29
908.42	6474.48
908.598	6435.57
908.777	7092.97
908.955	6689.52
909.133	6757.1
909.311	6505.2
909.49	6662.9
909.668	6931.18
909.846	6683.38
910.024	6435.57
910.202	6744.81
910.38	6818.54
910.559	6394.61
910.737	6542.07
910.915	6611.7
911.093	6779.63
911.271	6560.5
911.449	6804.21
911.627	6984.43
911.805	7152.36
911.983	6523.63
912.161	6537.97
912.339	6882.03
912.517	6982.38
912.695	6515.44
912.872	6257.4
913.05	6558.45
913.228	6587.12
913.406	6335.22
913.584	6136.57
913.762	6613.74
913.939	6363.89
914.117	6411
914.295	6046.46
914.473	6517.49
914.65	6265.59
914.828	6236.92
915.006	6087.42
915.184	6101.75
915.361	6480.63
915.539	6226.68
915.716	6161.14
915.894	6349.56
916.072	6544.11
916.249	6220.53
916.427	6273.78
916.604	5974.78
916.782	6312.69
916.959	5915.39
917.137	5905.15
917.314	6296.31
917.492	6433.52
917.669	6175.48
917.847	5958.39
918.024	6255.35
918.201	5894.91
918.379	6075.13
918.556	6028.03
918.733	6261.49
918.911	6068.98
919.088	6124.28
919.265	5810.94
919.442	6124.28
919.62	5878.52
919.797	5780.22
919.974	5563.14
920.151	5942.01
920.328	5946.11
920.506	5780.22
920.683	5796.6
920.86	5690.11
921.037	5829.37
921.214	5665.53
921.391	5714.69
921.568	6085.37
921.745	5653.25
921.922	5552.9
922.099	5436.16
922.276	6169.34
922.453	5778.17
922.63	5499.65
922.807	5858.04
922.984	5612.29
923.161	5448.45
923.338	5389.06
923.514	5448.45
923.691	5581.57
923.868	5583.62
924.045	5307.14
924.222	5411.59
924.399	5516.03
924.575	5890.81
924.752	5446.4
924.929	5423.87
925.105	5669.63
925.282	5255.94
925.459	5126.92
925.635	5456.64
925.812	5450.5
925.989	5460.74
926.165	5370.63
926.342	5122.82
926.518	5083.91
926.695	5098.25
926.871	5184.26
927.048	4940.55
927.224	5614.34
927.401	5323.52
927.577	5131.02
927.754	4989.71
927.93	5436.16
928.107	5272.32
928.283	4936.46
928.459	5153.54
928.636	5284.61
928.812	5155.59
928.988	4875.02
929.165	4805.39
929.341	5077.77
929.517	4993.8
929.693	5161.73
929.87	4635.41
930.046	5112.58
930.222	4922.12
930.398	4664.08
930.574	4752.14
930.751	4963.08
930.927	4733.71
931.103	4614.93
931.279	4596.5
931.455	4602.64
931.631	4870.92
931.807	4336.4
931.983	4494.1
932.159	4518.67
932.335	4735.76
932.511	4453.14
932.687	4526.86
932.863	4739.85
933.039	4586.26
933.215	4330.26
933.391	4150.04
933.566	4709.13
933.742	4547.34
933.918	4258.58
934.094	4133.65
934.27	4412.18
934.445	4391.7
934.621	4174.61
934.797	4012.82
934.973	4512.53
935.148	4311.83
935.324	3812.12
935.5	3730.2
935.675	4293.4
935.851	3996.44
936.027	3711.77
936.202	3785.5
936.378	4014.87
936.553	3785.5
936.729	3967.77
936.904	3470.11
937.08	3357.47
937.255	3525.41
937.431	3210.02
937.606	3171.11
937.782	3468.06
937.957	3410.72
938.133	3224.36
938.308	3201.83
938.483	3150.63
938.659	2951.98
938.834	3250.98
939.009	2970.41
939.185	2997.03
939.36	2863.91
939.535	2528.05
939.71	2917.16
939.886	3173.16
940.061	3148.58
940.236	2747.18
940.411	2681.64
940.586	2915.11
940.761	2921.26
940.937	2683.69
941.112	2642.73
941.287	2714.41
941.462	2906.92
941.637	2413.36
941.812	2456.37
941.987	2693.93
942.162	2573.1
942.337	2503.47
942.512	2401.07
942.687	2765.61
942.862	2726.7
943.037	2300.72
943.212	2020.15
943.386	2360.11
943.561	2566.96
943.736	2399.02
943.911	2505.52
944.086	2540.33
944.26	2470.7
944.435	2233.14
944.61	2433.84
944.785	2683.69
944.959	2853.67
945.134	2249.52
945.309	2128.69
945.483	2300.72
945.658	2646.83
945.833	1921.85
946.007	1942.33
946.182	2667.31
946.357	2067.25
946.531	2186.04
946.706	2151.22
946.88	1975.1
947.055	2370.35
947.229	2351.92
947.404	2177.84
947.578	2579.25
947.752	2417.46
947.927	2050.87
948.101	1917.75
948.276	2235.19
948.45	2396.98
948.624	2222.9
948.799	2145.08
948.973	2472.75
949.147	2126.64
949.321	2298.67
949.496	2245.43
949.67	2718.51
949.844	2272.05
950.018	2208.56
950.193	2171.7
950.367	2853.67
950.541	2257.71
950.715	2290.48
950.889	2370.35
951.063	2327.35
951.237	2499.38
951.411	1989.43
951.585	1985.34
951.759	2435.89
951.933	2343.73
952.107	2128.69
952.281	2335.54
952.455	2779.95
952.629	2538.29
952.803	2020.15
952.977	2044.73
953.151	2585.39
953.325	2435.89
953.499	2327.35
953.672	2083.64
953.846	2100.02
954.02	2231.09
954.194	2022.2
954.368	2143.03
954.541	2380.59
954.715	2253.62
954.889	2282.29
955.062	2038.58
955.236	2331.44
955.41	2237.24
955.583	2384.69
955.757	2036.53
955.93	2198.32
956.104	2020.15
956.278	2106.17
956.451	2091.83
956.625	2458.42
956.798	2827.05
956.972	2196.28
957.145	2052.92
957.319	2263.86
957.492	2366.26
957.665	2288.43
957.839	2026.29
958.012	2431.79
958.185	2071.35
958.359	2149.17
958.532	2292.53
958.705	2413.36
958.879	2444.08
959.052	2104.12
959.225	1921.85
959.398	2249.52
959.572	2247.48
959.745	2089.78
959.918	2171.7
960.091	2190.13
960.264	2339.63
960.438	1981.24
960.611	1962.81
960.784	2399.02
960.957	2165.56
961.13	2366.26
961.303	2016.05
961.476	2198.32
961.649	2388.78
961.822	1917.75
961.995	2083.64
962.168	2493.23
962.341	2276.15
962.514	2065.21
962.686	2030.39
962.859	2384.69
963.032	2284.34
963.205	2005.81
963.378	1940.28
963.551	2319.15
963.723	2247.48
963.896	2069.3
964.069	2282.29
964.242	2186.04
964.414	2491.18
964.587	2077.49
964.76	2118.45
964.932	2257.71
965.105	2059.06
965.278	1973.05
965.45	1874.74
965.623	2177.84
965.795	2298.67
965.968	2044.73
966.14	1948.47
966.313	2093.88
966.485	2177.84
966.658	1940.28
966.83	2020.15
967.003	2374.45
967.175	2278.19
967.348	2005.81
967.52	2122.55
967.692	2413.36
967.865	2249.52
968.037	1925.94
968.209	2263.86
968.382	1940.28
968.554	2274.1
968.726	1887.03
968.898	1948.47
969.071	2212.66
969.243	2200.37
969.415	2143.03
969.587	2192.18
969.759	2605.87
969.932	2286.39
970.104	1841.98
970.276	1604.41
970.448	2110.26
970.62	2044.73
970.792	2143.03
970.964	1938.23
971.136	2667.31
971.308	2104.12
971.48	1868.6
971.652	1927.99
971.824	2433.84
971.996	2016.05
972.168	1891.13
972.339	1909.56
972.511	2231.09
972.683	2036.53
972.855	2077.49
973.027	1915.7
973.199	1884.98
973.37	2147.12
973.542	2022.2
973.714	1901.37
973.886	2044.73
974.057	2358.07
974.229	1680.19
974.401	1755.96
974.572	1807.16
974.744	1585.98
974.915	1721.15
975.087	1813.31
975.259	2368.31
975.43	1856.31
975.602	1846.07
975.773	1751.87
975.945	1878.84
976.116	2081.59
976.288	1682.24
976.459	1995.57
976.63	1876.79
976.802	2104.12
976.973	1741.63
977.145	1889.08
977.316	2464.56
977.487	2030.39
977.659	1891.13
977.83	1792.83
978.001	2376.5
978.172	1995.57
978.344	1676.09
978.515	1850.17
978.686	1743.67
978.857	2159.41
979.028	1745.72
979.2	1739.58
979.371	2169.65
979.542	1866.55
979.713	1848.12
979.884	1385.28
980.055	1772.35
980.226	1921.85
980.397	1545.02
980.568	1596.22
980.739	2061.11
980.91	1821.5
981.081	1860.41
981.252	1608.51
981.423	2095.93
981.594	2183.99
981.765	1516.35
981.936	1833.79
982.106	1891.13
982.277	2018.1
982.448	1641.28
982.619	1852.22
982.79	1727.29
982.96	2093.88
983.131	1839.93
983.302	1481.53
983.472	1667.9
983.643	1829.69
983.814	1792.83
983.984	1590.08
984.155	1672
984.326	1942.33
984.496	1663.8
984.667	1557.31
984.837	1725.24
985.008	2050.87
985.178	1778.49
985.349	1622.84
985.519	1684.28
985.69	1641.28
985.86	1602.36
986.031	1534.78
986.201	1860.41
986.371	1884.98
986.542	1440.58
986.712	1323.84
986.882	1815.35
987.053	1887.03
987.223	1514.3
987.393	1708.86
987.563	1676.09
987.734	1893.18
987.904	1723.2
988.074	1479.49
988.244	1749.82
988.414	1545.02
988.585	1499.97
988.755	1628.99
988.925	1526.59
989.095	1964.86
989.265	1475.39
989.435	1538.88
989.605	1747.77
989.775	1745.72
989.945	1758.01
990.115	1315.65
990.285	1686.33
990.455	1770.3
990.625	1440.58
990.795	1325.89
990.965	1891.13
991.134	1463.1
991.304	1416
991.474	1538.88
991.644	1696.57
991.814	2026.29
991.984	1379.14
992.153	1459.01
992.323	1563.45
992.493	1602.36
992.662	1272.64
992.832	1518.4
993.002	1594.17
993.171	1583.93
993.341	1276.74
993.511	1530.69
993.68	1485.63
993.85	1690.43
994.019	1162.05
994.189	1362.75
994.358	1528.64
994.528	1397.57
994.697	1039.17
994.867	1149.76
995.036	1712.96
995.206	1465.15
995.375	1258.31
995.544	1389.38
995.714	1577.79
995.883	1383.23
996.052	1528.64
996.222	1035.08
996.391	2190.13
996.56	1477.44
996.73	1276.74
996.899	1153.86
997.068	1776.44
997.237	1399.62
997.406	1207.11
997.576	1299.27
997.745	1389.38
997.914	1530.69
998.083	1045.32
998.252	1352.51
998.421	1506.11
998.59	1184.58
998.759	1098.56
998.928	1100.61
999.097	1657.66
999.266	1360.7
999.435	1393.47
999.604	1047.37
999.773	1971
999.942	1387.33
1000.111	969.54
1000.28	1061.7
1000.448	1186.63
1000.617	1217.35
1000.786	1391.42
1000.955	1039.17
1001.124	1430.34
1001.292	2009.91
1001.461	1049.41
1001.63	1090.37
1001.798	1686.33
1001.967	1717.05
1002.136	996.17
1002.304	971.59
1002.473	1436.48
1002.642	1479.49
1002.81	1172.29
1002.979	1037.13
1003.147	1510.21
1003.316	1948.47
1003.484	1024.84
1003.653	994.12
1003.821	1596.22
1003.99	1352.51
1004.158	1184.58
1004.327	1133.38
1004.495	1418.05
1004.663	1139.52
1004.832	1186.63
1005	928.58
1005.168	1489.73
1005.337	1217.35
1005.505	953.16
1005.673	1221.44
1005.842	1418.05
1006.01	1448.77
1006.178	820.04
1006.346	951.11
1006.514	1246.02
1006.683	1481.53
1006.851	1035.08
1007.019	916.3
1007.187	1112.9
1007.355	840.52
1007.523	840.52
1007.691	774.99
1007.859	832.33
1008.027	1454.91
1008.195	1022.79
1008.363	885.58
1008.531	1479.49
1008.699	1108.8
1008.867	809.8
1009.035	904.01
1009.203	1407.81
1009.37	1160
1009.538	992.07
1009.706	1227.59
1009.874	1180.48
1010.042	1133.38
1010.209	762.7
1010.377	899.91
1010.545	1366.85
1010.713	1129.28
1010.88	807.75
1011.048	873.29
1011.216	1104.71
1011.383	1405.76
1011.551	875.34
1011.718	744.27
1011.886	1336.13
1012.054	1123.14
1012.221	701.26
1012.389	783.18
1012.556	1123.14
1012.724	1471.29
1012.891	838.47
1013.058	729.93
1013.226	1211.2
1013.393	1211.2
1013.561	664.4
1013.728	650.06
1013.895	1213.25
1014.063	1225.54
1014.23	754.51
1014.397	774.99
1014.565	1223.49
1014.732	1039.17
1014.899	760.65
1015.066	774.99
1015.233	1106.76
1015.401	1211.2
1015.568	856.9
1015.735	774.99
1015.902	1026.89
1016.069	1192.77
1016.236	766.79
1016.403	697.16
1016.57	785.23
1016.737	1317.7
1016.904	824.14
1017.071	705.35
1017.238	834.38
1017.405	1282.88
1017.572	797.51
1017.739	867.14
1017.906	1051.46
1018.073	1180.48
1018.24	537.42
1018.407	760.65
1018.573	1184.58
1018.74	994.12
1018.907	705.35
1019.074	537.42
1019.241	1110.85
1019.407	934.73
1019.574	648.01
1019.741	541.52
1019.907	1112.9
1020.074	1057.61
1020.241	455.5
1020.407	564.04
1020.574	1012.55
1020.74	1045.32
1020.907	695.11
1021.073	613.2
1021.24	1411.9
1021.406	1172.29
1021.573	588.62
1021.739	598.86
1021.906	1143.62
1022.072	846.66
1022.239	549.71
1022.405	580.43
1022.571	809.8
1022.738	721.74
1022.904	594.76
1023.07	588.62
1023.237	963.4
1023.403	1246.02
1023.569	621.39
1023.735	607.05
1023.902	875.34
1024.068	987.97
1024.234	514.89
1024.4	584.52
1024.566	947.01
1024.732	1047.37
1024.898	633.68
1025.065	461.65
1025.231	1080.13
1025.397	688.97
1025.563	633.68
1025.729	447.31
1025.895	514.89
1026.061	682.83
1026.227	449.36
1026.392	609.1
1026.558	1047.37
1026.724	994.12
1026.89	465.74
1027.056	553.8
1027.222	1028.93
1027.388	738.12
1027.553	492.37
1027.719	467.79
1027.885	1184.58
1028.051	961.35
1028.216	332.62
1028.382	443.21
1028.548	973.64
1028.713	592.72
1028.879	398.16
1029.045	555.85
1029.21	1180.48
1029.376	1020.74
1029.541	508.75
1029.707	469.84
1029.873	971.59
1030.038	951.11
1030.204	398.16
1030.369	521.04
1030.534	922.44
1030.7	648.01
1030.865	457.55
1031.031	502.61
1031.196	842.57
1031.361	832.33
1031.527	414.54
1031.692	445.26
1031.857	336.72
1032.023	856.9
1032.188	256.85
1032.353	475.98
1032.518	1133.38
1032.684	783.18
1032.849	324.43
1033.014	463.69
1033.179	1012.55
1033.344	877.38
1033.509	533.33
1033.674	396.11
1033.839	904.01
1034.004	871.24
1034.17	488.27
1034.335	346.96
1034.5	686.92
1034.664	578.38
1034.829	293.71
1034.994	371.54
1035.159	758.6
1035.324	791.37
1035.489	439.12
1035.654	404.3
1035.819	897.86
1035.984	791.37
1036.148	420.69
1036.313	371.54
1036.478	912.2
1036.643	617.29
1036.807	312.14
1036.972	318.29
1037.137	1108.8
1037.301	680.78
1037.466	209.75
1037.631	510.8
1037.795	944.97
1037.96	744.27
1038.124	518.99
1038.289	269.14
1038.454	766.79
1038.618	738.12
1038.783	334.67
1038.947	445.26
1039.111	691.02
1039.276	660.3
1039.44	361.3
1039.605	740.17
1039.769	514.89
1039.933	660.3
1040.098	410.45
1040.262	504.65
1040.426	916.3
1040.591	768.84
1040.755	334.67
1040.919	306
1041.083	805.71
1041.248	523.09
1041.412	183.12
1041.576	181.07
1041.74	545.61
1041.904	822.09
1042.068	258.9
1042.232	351.06
1042.397	820.04
1042.561	758.6
1042.725	107.35
1042.889	379.73
1043.053	820.04
1043.217	750.41
1043.381	402.26
1043.544	148.31
1043.708	938.82
1043.872	443.21
1044.036	-13.48
1044.2	193.36
1044.364	938.82
1044.528	944.97
1044.691	2837.29
1044.855	189.27
1045.019	858.95
1045.183	648.01
1045.346	277.33
1045.51	197.46
1045.674	691.02
1045.837	799.56
1046.001	281.43
1046.165	285.52
1046.328	1045.32
1046.492	697.16
1046.655	346.96
1046.819	262.99
1046.983	432.97
1047.146	648.01
1047.31	361.3
1047.473	-1.19
1047.636	496.46
1047.8	361.3
1047.963	336.72
1048.127	219.99
1048.29	322.38
