Data from Ink_Intensity_USB4F045381__13__00013.txt Node

Date: Mon Jul 17 09:35:49 EDT 2023
User: mmckonesweet
Spectrometer: USB4F04538
Trigger mode: 4
Integration Time (sec): 9.000000E-1
Scans to average: 1
Electric dark correction enabled: true
Nonlinearity correction enabled: false
Boxcar width: 0
XAxis mode: Wavelengths
Number of Pixels in Spectrum: 3648
>>>>>Begin Spectral Data<<<<<
345.52	-945.65
345.736	-945.65
345.952	-945.65
346.168	-908.79
346.384	-878.07
346.6	-62.98
346.816	-173.57
347.032	-189.95
347.248	248.32
347.464	-210.43
347.68	-81.41
347.896	109.05
348.112	338.43
348.328	-44.54
348.544	-91.65
348.76	-32.26
348.975	190.97
349.191	-222.72
349.407	-79.36
349.623	-15.87
349.839	-58.88
350.055	-97.79
350.27	59.9
350.486	188.93
350.702	377.34
350.918	256.51
351.133	-38.4
351.349	195.07
351.565	365.05
351.781	-165.37
351.996	45.57
352.212	309.76
352.428	-157.18
352.644	-114.17
352.859	-79.36
353.075	307.71
353.291	-24.06
353.506	-48.64
353.722	-214.52
353.938	-56.83
354.153	498.17
354.369	113.15
354.584	-232.96
354.8	289.28
355.016	-263.68
355.231	-136.7
355.447	-50.69
355.662	33.28
355.878	836.08
356.093	-210.43
356.309	-11.78
356.524	-259.58
356.74	182.78
356.955	-116.22
357.171	59.9
357.386	203.26
357.602	-255.48
357.817	-13.82
358.033	-124.41
358.248	338.43
358.464	133.63
358.679	-69.12
358.895	-288.25
359.11	-42.5
359.325	446.97
359.541	238.08
359.756	12.8
359.972	-269.82
360.187	14.85
360.402	-226.81
360.618	-93.69
360.833	1032.69
361.048	82.43
361.264	-204.28
361.479	-11.78
361.694	-42.5
361.909	143.87
362.125	-153.09
362.34	-118.27
362.555	254.46
362.77	16.9
362.986	-278.01
363.201	-97.79
363.416	227.84
363.631	29.18
363.847	-112.13
364.062	-183.81
364.277	94.72
364.492	86.53
364.707	-62.98
364.922	-318.97
365.138	289.28
365.353	453.11
365.568	-118.27
365.783	-34.3
365.998	82.43
366.213	604.66
366.428	-167.42
366.643	55.81
366.858	193.02
367.073	170.49
367.288	-124.41
367.503	-167.42
367.718	84.48
367.933	389.63
368.148	-210.43
368.363	-108.03
368.578	2.56
368.793	492.02
369.008	-142.85
369.223	-204.28
369.438	168.45
369.653	483.83
369.868	-142.85
370.083	-81.41
370.298	18.94
370.513	399.87
370.728	80.38
370.943	-110.08
371.157	-192
371.372	506.36
371.587	-177.66
371.802	-151.04
372.017	156.16
372.232	365.05
372.446	12.8
372.661	-269.82
372.876	203.26
373.091	166.4
373.306	-17.92
373.52	-187.9
373.735	-204.28
373.95	336.38
374.165	0.51
374.379	-19.97
374.594	-210.43
374.809	115.2
375.023	80.38
375.238	-153.09
375.453	252.41
375.667	-202.24
375.882	-93.69
376.097	-58.88
376.311	92.67
376.526	2.56
376.741	-208.38
376.955	186.88
377.17	578.04
377.384	514.55
377.599	-1.54
377.813	-148.99
378.028	563.7
378.242	180.73
378.457	-5.63
378.672	-290.3
378.886	145.92
379.101	25.09
379.315	-280.06
379.53	-89.6
379.744	160.25
379.958	229.88
380.173	-48.64
380.387	-99.84
380.602	188.93
380.816	-24.06
381.031	-93.69
381.245	-60.93
381.459	164.35
381.674	2523.61
381.888	-112.13
382.103	180.73
382.317	-155.13
382.531	528.89
382.746	-3.58
382.96	-46.59
383.174	-28.16
383.388	391.67
383.603	178.69
383.817	-198.14
384.031	256.51
384.246	459.26
384.46	43.52
384.674	250.36
384.888	98.81
385.103	90.62
385.317	-187.9
385.531	47.62
385.745	340.47
385.959	320
386.174	-50.69
386.388	-140.8
386.602	76.29
386.816	-69.12
387.03	-9.73
387.244	-30.21
387.458	145.92
387.672	324.09
387.887	-185.85
388.101	-214.52
388.315	440.83
388.529	162.3
388.743	0.51
388.957	-112.13
389.171	391.67
389.385	-136.7
389.599	-81.41
389.813	160.25
390.027	186.88
390.241	774.64
390.455	23.04
390.669	-97.79
390.883	4.61
391.097	489.98
391.311	111.1
391.525	12.8
391.738	254.46
391.952	188.93
392.166	88.57
392.38	-105.98
392.594	272.89
392.808	307.71
393.022	0.51
393.236	55.81
393.449	307.71
393.663	287.23
393.877	-126.46
394.091	80.38
394.305	-26.11
394.518	47.62
394.732	-103.93
394.946	-1.54
395.16	504.31
395.373	154.11
395.587	-9.73
395.801	-67.07
396.015	399.87
396.228	219.64
396.442	-95.74
396.656	-202.24
396.869	344.57
397.083	483.83
397.297	88.57
397.51	-42.5
397.724	526.84
397.938	186.88
398.151	-122.37
398.365	-185.85
398.578	297.47
398.792	498.17
399.005	84.48
399.219	39.42
399.433	164.35
399.646	256.51
399.86	152.06
400.073	74.24
400.287	326.14
400.5	35.33
400.714	170.49
400.927	88.57
401.141	289.28
401.354	1106.42
401.567	342.52
401.781	-153.09
401.994	444.92
402.208	737.78
402.421	16.9
402.635	2.56
402.848	150.01
403.061	371.19
403.275	102.91
403.488	-19.97
403.701	606.71
403.915	315.9
404.128	164.35
404.341	-11.78
404.555	311.8
404.768	88.57
404.981	145.92
405.195	18.94
405.408	629.24
405.621	305.66
405.834	199.16
406.048	-75.26
406.261	588.28
406.474	598.52
406.687	-40.45
406.9	182.78
407.114	209.4
407.327	233.98
407.54	-148.99
407.753	-120.32
407.966	-38.4
408.179	336.38
408.392	-24.06
408.605	-89.6
408.819	295.42
409.032	258.56
409.245	4.61
409.458	246.27
409.671	432.63
409.884	340.47
410.097	-140.8
410.31	156.16
410.523	297.47
410.736	125.44
410.949	158.21
411.162	141.82
411.375	530.94
411.588	545.27
411.801	281.08
412.014	0.51
412.227	137.73
412.44	53.76
412.653	-9.73
412.865	260.6
413.078	444.92
413.291	334.33
413.504	104.96
413.717	98.81
413.93	389.63
414.143	98.81
414.356	92.67
414.568	33.28
414.781	453.11
414.994	246.27
415.207	178.69
415.42	250.36
415.632	424.44
415.845	657.91
416.058	35.33
416.271	6.66
416.483	203.26
416.696	659.96
416.909	33.28
417.121	47.62
417.334	418.3
417.547	729.59
417.759	27.14
417.972	-13.82
418.185	141.82
418.397	477.69
418.61	27.14
418.823	113.15
419.035	596.47
419.248	244.22
419.46	176.64
419.673	250.36
419.885	524.79
420.098	172.54
420.311	158.21
420.523	-62.98
420.736	440.83
420.948	295.42
421.161	66.05
421.373	-126.46
421.586	363
421.798	141.82
422.01	-65.02
422.223	315.9
422.435	246.27
422.648	481.78
422.86	86.53
423.073	49.66
423.285	612.85
423.497	107.01
423.71	184.83
423.922	45.57
424.134	465.4
424.347	586.23
424.559	363
424.771	418.3
424.984	205.31
425.196	387.58
425.408	72.19
425.621	57.86
425.833	561.66
426.045	590.33
426.257	98.81
426.47	64
426.682	508.41
426.894	467.45
427.106	258.56
427.318	240.12
427.531	225.79
427.743	481.78
427.955	170.49
428.167	578.04
428.379	432.63
428.591	256.51
428.804	289.28
429.016	233.98
429.228	256.51
429.44	379.39
429.652	471.54
429.864	80.38
430.076	350.71
430.288	303.61
430.5	315.9
430.712	309.76
430.924	627.19
431.136	401.91
431.348	104.96
431.56	180.73
431.772	387.58
431.984	240.12
432.196	188.93
432.408	217.6
432.62	342.52
432.832	481.78
433.044	506.36
433.256	287.23
433.468	659.96
433.679	92.67
433.891	199.16
434.103	391.67
434.315	721.4
434.527	528.89
434.739	295.42
434.95	305.66
435.162	711.16
435.374	373.24
435.586	387.58
435.798	285.18
436.009	217.6
436.221	393.72
436.433	291.32
436.645	320
436.856	354.81
437.068	707.06
437.28	272.89
437.491	539.13
437.703	612.85
437.915	549.37
438.126	385.53
438.338	608.76
438.55	451.07
438.761	711.16
438.973	274.94
439.184	408.06
439.396	549.37
439.608	793.08
439.819	274.94
440.031	492.02
440.242	596.47
440.454	702.97
440.665	399.87
440.877	518.65
441.088	635.38
441.3	422.39
441.511	145.92
441.723	342.52
441.934	647.67
442.146	637.43
442.357	469.5
442.569	631.29
442.78	559.61
442.991	922.1
443.203	653.81
443.414	242.17
443.626	885.23
443.837	479.74
444.048	260.6
444.26	397.82
444.471	547.32
444.682	856.56
444.894	238.08
445.105	274.94
445.316	797.17
445.528	797.17
445.739	547.32
445.95	516.6
446.161	702.97
446.373	889.33
446.584	506.36
446.795	369.15
447.006	735.73
447.217	1079.79
447.429	182.78
447.64	408.06
447.851	936.43
448.062	682.49
448.273	178.69
448.484	475.64
448.695	719.35
448.907	545.27
449.118	594.42
449.329	633.33
449.54	526.84
449.751	424.44
449.962	555.51
450.173	424.44
450.384	893.43
450.595	1034.74
450.806	469.5
451.017	651.77
451.228	1022.45
451.439	993.78
451.65	657.91
451.861	313.85
452.072	475.64
452.283	731.64
452.494	705.01
452.705	600.57
452.915	1137.13
453.126	840.18
453.337	604.66
453.548	522.74
453.759	1042.93
453.97	1212.91
454.181	735.73
454.391	614.9
454.602	852.47
454.813	874.99
455.024	768.5
455.235	578.04
455.445	844.28
455.656	838.13
455.867	797.17
456.078	614.9
456.288	670.2
456.499	973.3
456.71	723.44
456.921	743.92
457.131	989.68
457.342	893.43
457.553	776.69
457.763	698.87
457.974	942.58
458.184	1030.64
458.395	666.1
458.606	592.37
458.816	1102.32
459.027	1335.79
459.237	782.84
459.448	498.17
459.659	1042.93
459.869	1546.73
460.08	578.04
460.29	762.36
460.501	1522.15
460.711	827.89
460.922	602.61
461.132	809.46
461.343	1610.22
461.553	776.69
461.764	739.83
461.974	856.56
462.184	1079.79
462.395	1190.38
462.605	948.72
462.816	823.8
463.026	1065.46
463.236	1356.27
463.447	850.42
463.657	868.85
463.867	1200.62
464.078	1012.21
464.288	985.58
464.498	956.91
464.709	1155.57
464.919	1118.7
465.129	1022.45
465.339	942.58
465.55	1180.14
465.76	1317.36
465.97	1010.16
466.18	1022.45
466.391	1475.05
466.601	1303.02
466.811	1180.14
467.021	1063.41
467.231	1411.56
467.441	1532.39
467.651	1186.29
467.862	838.13
468.072	1358.32
468.282	1681.89
468.492	1178.09
468.702	1116.65
468.912	1386.99
469.122	1835.49
469.332	1411.56
469.542	1112.56
469.752	1776.1
469.962	1520.1
470.172	1317.36
470.382	1237.49
470.592	1741.29
470.802	1950.18
471.012	1401.32
471.222	1391.08
471.432	1800.68
471.642	1722.85
471.852	1542.63
472.062	1370.6
472.272	1614.31
472.482	1481.19
472.691	1491.43
472.901	1368.56
473.111	1745.38
473.321	2132.45
473.531	1501.67
473.741	1655.27
473.95	1901.03
474.16	1874.4
474.37	1825.25
474.58	1489.39
474.79	2261.47
474.999	2052.58
475.209	1685.99
475.419	1776.1
475.628	1829.35
475.838	2320.86
476.048	1864.16
476.258	1700.33
476.467	2271.71
476.677	1948.13
476.886	2028
477.096	2073.06
477.306	2050.53
477.515	2449.88
477.725	1958.37
477.935	2015.71
478.144	2527.71
478.354	2032.1
478.563	2148.83
478.773	2148.83
478.982	2359.77
479.192	2724.31
479.401	2294.24
479.611	2163.17
479.82	2230.75
480.03	2480.6
480.239	2177.5
480.449	2163.17
480.658	2853.33
480.868	2429.4
481.077	2353.63
481.287	2357.72
481.496	2605.53
481.705	2988.5
481.915	2685.4
482.124	2662.87
482.333	2669.02
482.543	2961.87
482.752	2433.5
482.961	2615.77
483.171	2984.4
483.38	2841.04
483.589	2652.63
483.799	2695.64
484.008	2849.24
484.217	3230.16
484.426	2746.84
484.636	2611.67
484.845	3054.03
485.054	2820.56
485.263	3035.6
485.472	2963.92
485.682	3381.71
485.891	3138
486.1	2728.41
486.309	2789.85
486.518	3264.97
486.727	3545.55
486.936	2972.11
487.146	3078.61
487.355	3434.96
487.564	3109.33
487.773	3135.95
487.982	3205.58
488.191	3187.15
488.4	3383.76
488.609	3359.18
488.818	3183.06
489.027	4069.83
489.236	3817.93
489.445	3332.56
489.654	3301.84
489.863	3815.88
490.072	3725.77
490.281	3647.94
490.49	3410.38
490.698	3953.09
490.907	3842.5
491.116	3498.44
491.325	3277.26
491.534	4125.12
491.743	3801.54
491.952	3611.08
492.16	3793.35
492.369	3881.41
492.578	4028.87
492.787	3824.07
492.996	3649.99
493.204	3799.49
493.413	4284.86
493.622	3484.11
493.831	3693
494.039	4540.86
494.248	3805.64
494.457	3938.76
494.665	3781.06
494.874	4235.71
495.083	4569.53
495.291	4065.73
495.5	3928.52
495.709	4366.78
495.917	4245.95
496.126	4061.63
496.335	3989.96
496.543	4258.24
496.752	4323.77
496.96	4340.16
497.169	3930.56
497.377	4319.68
497.586	4501.95
497.794	4485.56
498.003	4061.63
498.211	4446.65
498.42	4596.15
498.628	4536.76
498.837	4180.42
499.045	4784.57
499.254	4557.24
499.462	4280.77
499.671	4481.47
499.879	5022.13
500.087	4895.16
500.296	4327.87
500.504	4549.05
500.713	4759.99
500.921	5497.26
501.129	4471.23
501.338	4401.6
501.546	4936.12
501.754	4987.32
501.962	4577.72
502.171	4598.2
502.379	4966.84
502.587	5202.35
502.795	4807.09
503.004	4856.25
503.212	4868.53
503.42	5253.55
503.628	4809.14
503.837	4858.29
504.045	5241.26
504.253	5431.73
504.461	4737.46
504.669	4639.16
504.877	5360.05
505.085	5487.02
505.294	4907.45
505.502	5151.15
505.71	5278.13
505.918	5327.28
506.126	4899.25
506.334	4995.51
506.542	5003.7
506.75	5286.32
506.958	5290.42
507.166	5104.05
507.374	5384.62
507.582	5700.01
507.79	5200.3
507.998	5224.88
508.206	5355.95
508.414	5450.16
508.622	5204.4
508.83	5081.52
509.037	5613.99
509.245	5464.49
509.453	5296.56
509.661	5212.59
509.869	5607.85
510.077	5482.92
510.285	5337.52
510.492	4964.79
510.7	6187.43
510.908	5554.6
511.116	5419.44
511.324	5337.52
511.531	5579.18
511.739	5826.98
511.947	5749.16
512.155	5837.22
512.362	5837.22
512.57	5618.09
512.778	5333.42
512.985	5579.18
513.193	6044.07
513.401	6148.51
513.608	5624.23
513.816	5710.25
514.024	6058.4
514.231	6123.94
514.439	5697.96
514.646	5667.24
514.854	6107.55
515.061	6287.78
515.269	5601.71
515.477	5800.36
515.684	5824.94
515.892	6252.96
516.099	5745.06
516.307	5675.43
516.514	6060.45
516.722	6502.81
516.929	5978.53
517.136	5736.87
517.344	6336.93
517.551	6263.2
517.759	5904.81
517.966	6095.27
518.173	6068.64
518.381	6195.62
518.588	6175.14
518.796	5974.44
519.003	6406.56
519.21	6424.99
519.418	6148.51
519.625	6437.28
519.832	6381.98
520.039	6603.16
520.247	6179.23
520.454	6181.28
520.661	6701.47
520.868	6441.37
521.076	6390.17
521.283	6357.41
521.49	7135.64
521.697	6642.07
521.904	6398.37
522.112	6291.87
522.319	6738.33
522.526	6902.17
522.733	6306.21
522.94	6404.51
523.147	6592.92
523.354	6871.45
523.561	6406.56
523.768	6627.74
523.975	7233.94
524.183	6869.4
524.39	6396.32
524.597	6658.46
524.804	6789.53
525.011	6758.81
525.218	6889.88
525.425	6764.95
525.632	7274.9
525.838	6789.53
526.045	6838.68
526.252	6756.76
526.459	8014.21
526.666	7690.63
526.873	6736.28
527.08	6873.5
527.287	7330.19
527.494	7049.62
527.701	6822.3
527.907	6844.82
528.114	7342.48
528.321	7049.62
528.528	7238.03
528.735	7121.3
528.941	7264.66
529.148	7117.2
529.355	7182.74
529.562	6994.33
529.768	7725.45
529.975	7358.86
530.182	7278.99
530.388	7121.3
530.595	7766.41
530.802	7166.35
531.008	7604.62
531.215	7338.38
531.422	8274.31
531.628	8165.76
531.835	7338.38
532.042	7518.61
532.248	7541.13
532.455	7561.61
532.661	7696.78
532.868	7534.99
533.074	7649.68
533.281	7815.56
533.487	7606.67
533.694	7530.89
533.9	7412.11
534.107	7946.63
534.313	7416.21
534.52	7506.32
534.726	8163.72
534.933	8415.62
535.139	7661.96
535.345	7508.37
535.552	7866.76
535.758	8247.68
535.965	7954.82
536.171	7803.27
536.377	8112.52
536.584	8341.89
536.79	7719.31
536.996	7963.01
537.203	8092.04
537.409	8274.31
537.615	7895.43
537.821	7954.82
538.028	8341.89
538.234	8376.7
538.44	8036.74
538.646	8307.07
538.853	8167.81
539.059	8046.98
539.265	8681.85
539.471	8042.89
539.677	8573.31
539.883	8403.33
540.09	8022.41
540.296	8407.42
540.502	8499.58
540.708	8462.72
540.914	8360.32
541.12	8286.59
541.326	8681.85
541.532	8583.55
541.738	8513.92
541.944	8470.91
542.15	8788.35
542.356	8595.84
542.562	8427.9
542.768	8681.85
542.974	9298.29
543.18	9210.23
543.386	8675.71
543.592	8434.05
543.798	9136.5
544.004	9101.69
544.21	8747.39
544.415	8612.22
544.621	9300.34
544.827	9099.64
545.033	8763.77
545.239	8960.38
545.445	8970.62
545.651	9113.97
545.856	8735.1
546.062	8872.31
546.268	8925.56
546.474	9058.68
546.679	9087.35
546.885	9015.67
547.091	8989.05
547.297	9585.01
547.502	9058.68
547.708	8722.81
547.914	9032.05
548.119	9525.61
548.325	8839.55
548.531	8886.65
548.736	9402.74
548.942	8855.93
549.147	9038.2
549.353	9234.8
549.559	9466.22
549.764	9304.43
549.97	9128.31
550.175	9138.55
550.381	9468.27
550.586	9300.34
550.792	9314.67
550.997	9120.12
551.203	9697.64
551.408	9552.24
551.614	9259.38
551.819	9286
552.025	10006.89
552.23	9978.22
552.435	9318.77
552.641	9781.61
552.846	9552.24
553.052	9945.45
553.257	9640.3
553.462	9673.07
553.668	9462.13
553.873	10221.92
554.078	9654.64
554.283	9664.88
554.489	10025.32
554.694	9908.58
554.899	9648.49
555.105	10086.76
555.31	10017.13
555.515	10244.45
555.72	9963.88
555.925	9460.08
556.131	10457.44
556.336	9988.46
556.541	9927.02
556.746	9849.19
556.951	10574.17
557.156	10563.93
557.361	10140.01
557.567	10264.93
557.772	10703.2
557.977	10312.03
558.182	9939.3
558.387	10023.27
558.592	10078.57
558.797	10574.17
559.002	10240.36
559.207	10326.37
559.412	10385.76
559.617	10869.08
559.822	10361.19
560.027	10158.44
560.232	10445.15
560.437	10572.13
560.642	9978.22
560.847	10207.59
561.051	10383.71
561.256	10590.56
561.461	10434.91
561.666	10514.78
561.871	10723.68
562.076	10795.36
562.281	10572.13
562.485	10137.96
562.69	10803.55
562.895	10885.47
563.1	10508.64
563.305	10459.49
563.509	11065.69
563.714	11141.46
563.919	10281.32
564.123	10627.42
564.328	10756.44
564.533	11008.34
564.737	10535.26
564.942	10625.37
565.147	11430.23
565.351	11282.77
565.556	10617.18
565.761	10922.33
565.965	10887.51
566.17	10682.72
566.374	10967.38
566.579	10713.44
566.784	11258.2
566.988	10834.27
567.193	10811.74
567.397	10885.47
567.602	10758.49
567.806	10879.32
568.011	10877.27
568.215	11112.79
568.42	10985.82
568.624	11342.16
568.828	10879.32
569.033	10961.24
569.237	11673.93
569.442	11401.55
569.646	10971.48
569.85	11198.81
570.055	11245.91
570.259	11317.59
570.463	11362.64
570.668	11090.26
570.872	11417.94
571.076	11422.03
571.281	11338.07
571.485	11426.13
571.689	11333.97
571.893	11450.71
572.098	11465.04
572.302	11354.45
572.506	11616.59
572.71	11653.45
572.914	11213.14
573.119	11532.62
573.323	11981.13
573.527	11934.03
573.731	11440.47
573.935	11395.41
574.139	11602.25
574.343	11536.72
574.547	11200.85
574.751	11600.21
574.955	12173.64
575.159	11872.59
575.364	11512.14
575.568	11383.12
575.772	11948.36
575.976	12108.1
576.18	11450.71
576.383	11665.74
576.587	12321.09
576.791	12362.05
576.995	11477.33
577.199	11440.47
577.403	12179.78
577.607	12185.93
577.811	11845.96
578.015	11845.96
578.219	12157.25
578.422	12470.59
578.626	11843.92
578.83	12077.38
579.034	12245.32
579.238	12355.91
579.442	12142.92
579.645	12378.44
579.849	12300.61
580.053	12384.58
580.257	12015.94
580.46	12091.72
580.664	12716.35
580.868	12329.28
581.071	12327.24
581.275	12265.8
581.479	12007.75
581.682	12601.66
581.886	12233.03
582.09	12335.43
582.293	12560.7
582.497	12699.97
582.7	12486.98
582.904	12290.37
583.107	12253.51
583.311	12271.94
583.515	12298.56
583.718	12462.4
583.922	12902.72
584.125	12945.72
584.329	12423.49
584.532	12353.86
584.735	12888.38
584.939	12861.76
585.142	12257.6
585.346	12572.99
585.549	13009.21
585.753	12726.59
585.956	12742.97
586.159	12937.53
586.363	13214.01
586.566	13330.74
586.769	12648.77
586.973	12427.59
587.176	12919.1
587.379	13218.1
587.582	13220.15
587.786	13154.62
587.989	13222.2
588.192	13672.75
588.395	12835.13
588.599	13291.83
588.802	13132.09
589.005	13402.42
589.208	12869.95
589.411	12929.34
589.615	13449.52
589.818	13672.75
590.021	13314.36
590.224	13080.89
590.427	13592.88
590.63	13396.28
590.833	12998.97
591.036	13336.88
591.239	13439.28
591.442	13064.5
591.645	13633.84
591.848	13142.33
592.051	13574.45
592.254	13607.22
592.457	13433.14
592.66	13476.15
592.863	13578.54
593.066	13500.72
593.269	13277.49
593.472	13621.55
593.675	13644.08
593.878	13855.02
594.081	13451.57
594.284	13226.29
594.486	13719.85
594.689	13734.19
594.892	13562.16
595.095	13562.16
595.298	13893.93
595.5	13838.64
595.703	13873.45
595.906	13701.42
596.109	14209.32
596.311	14311.72
596.514	13281.59
596.717	13826.35
596.92	14379.3
597.122	14246.18
597.325	13455.67
597.528	13726
597.73	14489.89
597.933	14311.72
598.136	14098.73
598.338	13852.97
598.541	14534.95
598.743	14520.61
598.946	13818.16
599.148	14106.92
599.351	14582.05
599.554	14625.06
599.756	14098.73
599.959	14467.36
600.161	14594.34
600.363	15233.3
600.566	14278.95
600.768	14078.25
600.971	14940.44
601.173	14434.6
601.376	14354.72
601.578	14379.3
601.78	14586.15
601.983	14932.25
602.185	14364.96
602.388	14614.82
602.59	14663.97
602.792	14414.12
602.995	14590.24
603.197	14301.48
603.399	14870.81
603.601	14401.83
603.804	14297.38
604.006	14801.18
604.208	14301.48
604.41	14221.61
604.613	14792.99
604.815	14407.97
605.017	15206.68
605.219	14532.9
605.421	14760.22
605.623	14471.46
605.826	15268.12
606.028	15216.92
606.23	14647.58
606.432	14336.29
606.634	15081.75
606.836	15372.57
607.038	14606.63
607.24	14803.23
607.442	14981.4
607.644	15100.19
607.846	14651.68
608.048	14520.61
608.25	15112.47
608.452	14768.41
608.654	14776.61
608.856	14389.54
609.058	14823.71
609.26	14856.48
609.462	14780.7
609.664	14813.47
609.866	15313.17
610.067	15444.24
610.269	14928.16
610.471	14694.69
610.673	15034.65
610.875	15206.68
611.077	14780.7
611.278	14907.68
611.48	15169.82
611.682	15456.53
611.884	15098.14
612.085	14862.62
612.287	15073.56
612.489	15364.37
612.69	14831.9
612.892	15196.44
613.094	15130.91
613.295	15366.42
613.497	14924.06
613.699	14856.48
613.9	15761.68
614.102	15100.19
614.304	15094.04
614.505	14987.55
614.707	15421.72
614.908	14997.79
615.11	14850.33
615.311	15229.21
615.513	15186.2
615.714	15579.41
615.916	14928.16
616.117	15229.21
616.319	15294.74
616.52	15876.37
616.722	15284.5
616.923	15458.58
617.124	15644.95
617.326	15569.17
617.527	15376.66
617.729	15460.63
617.93	15583.51
618.131	15606.03
618.333	15366.42
618.534	15190.3
618.735	15294.74
618.937	15915.28
619.138	15046.94
619.339	15106.33
619.54	15540.5
619.742	15450.39
619.943	15956.24
620.144	15558.93
620.345	15884.56
620.546	15806.73
620.748	15511.83
620.949	15454.48
621.15	15773.97
621.351	15720.72
621.552	15190.3
621.753	15350.04
621.954	15237.4
622.155	16081.16
622.356	15169.82
622.558	15894.8
622.759	15796.49
622.96	16009.48
623.161	15376.66
623.362	15415.57
623.563	15745.3
623.764	15776.02
623.965	15679.76
624.166	15827.21
624.366	15730.96
624.567	15708.43
624.768	15513.88
624.969	15591.7
625.17	15800.59
625.371	16126.22
625.572	15452.44
625.773	15757.58
625.973	15984.91
626.174	15851.79
626.375	15857.93
626.576	16048.4
626.777	16177.42
626.977	16331.01
627.178	15739.15
627.379	15843.6
627.58	16204.04
627.78	16019.72
627.981	15814.93
628.182	16214.28
628.382	16032.01
628.583	15599.89
628.784	15870.22
628.984	15954.19
629.185	16507.14
629.386	16201.99
629.586	16015.63
629.787	15755.54
629.987	16302.34
630.188	16097.55
630.388	15982.86
630.589	15841.55
630.79	16744.7
630.99	16308.49
631.191	16105.74
631.391	16269.58
631.591	16292.1
631.792	16791.81
631.992	16277.77
632.193	16359.69
632.393	16713.98
632.594	16488.71
632.794	16087.31
632.994	16501
633.195	16357.64
633.395	16425.22
633.595	16158.99
633.796	16398.6
633.996	16414.98
634.196	16742.66
634.397	16097.55
634.597	16390.41
634.797	16222.47
634.997	16752.9
635.198	16619.78
635.398	16187.66
635.598	16529.67
635.798	16926.97
635.998	16773.38
636.199	16341.25
636.399	16808.19
636.599	16290.06
636.799	16503.04
636.999	16509.19
637.199	17004.8
637.399	16908.54
637.599	16349.45
637.799	16560.39
637.999	16638.21
638.199	17064.19
638.399	16390.41
638.599	16558.34
638.799	16730.37
638.999	17211.64
639.199	16662.79
639.399	16556.29
639.599	17170.68
639.799	16333.06
639.999	16593.15
640.199	16756.99
640.399	16656.64
640.599	16609.54
640.799	16935.17
640.998	16828.67
641.198	17131.77
641.398	17160.44
641.598	16886.01
641.798	16756.99
641.997	17979.63
642.197	16898.3
642.397	16972.03
642.597	16873.73
642.796	17236.22
642.996	17496.31
643.196	16836.86
643.395	16408.84
643.595	17062.14
643.795	16443.65
643.994	16900.35
644.194	17045.76
644.394	17615.09
644.593	17012.99
644.793	16949.5
644.992	17012.99
645.192	17101.05
645.392	16832.77
645.591	16824.58
645.791	17498.36
645.99	17346.81
646.19	17129.72
646.389	17123.58
646.589	17105.15
646.788	17492.21
646.987	17334.52
647.187	17322.23
647.386	17334.52
647.586	17496.31
647.785	17522.93
647.984	17344.76
648.184	17490.17
648.383	17500.4
648.582	17414.39
648.782	17234.17
648.981	17156.35
649.18	16879.87
649.38	17430.77
649.579	17414.39
649.778	17275.13
649.977	17725.68
650.177	17426.68
650.376	17363.19
650.575	17336.57
650.774	17723.63
650.973	17322.23
651.173	16713.98
651.372	17412.34
651.571	17938.67
651.77	17950.96
651.969	17424.63
652.168	17684.72
652.367	17465.59
652.566	17639.67
652.765	17567.99
652.964	17719.54
653.163	18172.14
653.362	17541.36
653.561	17459.45
653.76	17099
653.959	17549.56
654.158	18153.71
654.357	18002.16
654.556	17275.13
654.755	17690.87
654.954	18020.59
655.153	17551.6
655.352	17752.31
655.551	18282.73
655.749	17864.94
655.948	17809.65
656.147	17922.29
656.346	18233.58
656.545	17940.72
656.743	17674.48
656.942	17897.71
657.141	17830.13
657.34	17721.59
657.538	17604.85
657.737	17735.92
657.936	17887.47
658.135	18053.36
658.333	17477.88
658.532	17979.63
658.731	18612.45
658.929	18270.44
659.128	17850.61
659.326	17946.86
659.525	18358.5
659.724	17826.03
659.922	17553.65
660.121	17713.39
660.319	18098.41
660.518	17772.78
660.716	17629.43
660.915	18010.35
661.113	18465
661.312	17969.39
661.51	17914.09
661.709	17860.85
661.907	18110.7
662.105	18497.77
662.304	17850.61
662.502	17996.01
662.701	18577.64
662.899	18010.35
663.097	18669.8
663.296	17432.82
663.494	18227.43
663.692	18436.33
663.891	18039.02
664.089	17936.62
664.287	18317.54
664.485	18594.02
664.684	17809.65
664.882	17838.32
665.08	18327.78
665.278	18307.3
665.476	17860.85
665.675	18764
665.873	18895.07
666.071	18680.03
666.269	18082.03
666.467	18456.81
666.665	18327.78
666.863	17987.82
667.061	18288.87
667.259	18237.67
667.457	18448.61
667.655	18274.54
667.853	18012.4
668.051	18108.65
668.249	17895.66
668.447	18391.27
668.645	18043.12
668.843	18436.33
669.041	18473.19
669.239	17971.44
669.437	18215.15
669.635	18122.99
669.833	18041.07
670.031	18411.75
670.229	18059.5
670.426	18129.13
670.624	17740.02
670.822	18161.9
671.02	18243.82
671.218	18127.08
671.415	17903.85
671.613	18262.25
671.811	18202.86
672.009	18432.23
672.206	18444.52
672.404	18147.56
672.602	18221.29
672.799	18223.34
672.997	18503.91
673.195	18577.64
673.392	18163.95
673.59	17930.48
673.788	18497.77
673.985	17778.93
674.183	18358.5
674.38	18100.46
674.578	18702.56
674.775	18223.34
674.973	18014.45
675.17	18049.26
675.368	18305.26
675.565	18118.89
675.763	18196.71
675.96	18004.21
676.158	18479.33
676.355	17938.67
676.553	18278.63
676.75	17987.82
676.947	18335.98
677.145	18131.18
677.342	17858.8
677.539	18165.99
677.737	18225.39
677.934	18729.19
678.131	18131.18
678.329	18057.45
678.526	18421.99
678.723	18299.11
678.92	18254.06
679.118	17899.76
679.315	18039.02
679.512	18448.61
679.709	18157.8
679.906	18430.18
680.104	18264.3
680.301	18303.21
680.498	18196.71
680.695	17944.81
680.892	18092.27
681.089	18008.3
681.286	18233.58
681.483	17809.65
681.68	18378.98
681.877	18499.81
682.075	18327.78
682.272	18421.99
682.469	18589.92
682.665	18049.26
682.862	17807.6
683.059	18116.84
683.256	18299.11
683.453	18407.66
683.65	18192.62
683.847	18186.47
684.044	18272.49
684.241	18014.45
684.438	18288.87
684.635	17725.68
684.831	18663.65
685.028	18704.61
685.225	17735.92
685.422	18000.11
685.619	18047.21
685.815	18200.81
686.012	17703.15
686.209	17785.07
686.405	17883.38
686.602	18381.03
686.799	17639.67
686.996	17746.16
687.192	17606.9
687.389	18372.84
687.586	17996.01
687.782	18122.99
687.979	18608.36
688.175	18252.01
688.372	18133.23
688.568	17957.1
688.765	18127.08
688.962	18176.23
689.158	18088.17
689.355	17729.78
689.551	17969.39
689.748	17670.39
689.944	17901.81
690.14	17905.9
690.337	18182.38
690.533	17914.09
690.73	17918.19
690.926	18047.21
691.123	17856.75
691.319	18088.17
691.515	17680.63
691.712	17758.45
691.908	18010.35
692.104	17527.03
692.301	18106.6
692.497	17664.24
692.693	17985.77
692.889	18342.12
693.086	17766.64
693.282	17625.33
693.478	17848.56
693.674	18323.69
693.87	17768.69
694.067	17572.08
694.263	17836.27
694.459	18012.4
694.655	18139.37
694.851	17819.89
695.047	18159.85
695.243	18290.92
695.439	18082.03
695.635	17760.5
695.831	18272.49
696.027	18006.25
696.224	17922.29
696.42	17996.01
696.615	18026.73
696.811	17885.42
697.007	17383.67
697.203	17555.7
697.399	17846.51
697.595	18102.51
697.791	17930.48
697.987	17541.36
698.183	17758.45
698.379	17410.29
698.575	17469.69
698.77	17479.93
698.966	17987.82
699.162	18102.51
699.358	17752.31
699.554	17803.5
699.749	18055.4
699.945	18221.29
700.141	17977.58
700.337	17883.38
700.532	17940.72
700.728	17600.76
700.924	17520.88
701.119	17318.14
701.315	17801.46
701.511	17594.61
701.706	17916.14
701.902	17254.65
702.097	17643.76
702.293	17891.57
702.489	17750.26
702.684	17608.95
702.88	17615.09
703.075	17756.4
703.271	17572.08
703.466	17340.66
703.662	17713.39
703.857	17907.95
704.053	17547.51
704.248	17672.43
704.443	18135.28
704.639	17713.39
704.834	17342.71
705.03	17635.57
705.225	17799.41
705.42	17963.25
705.616	17823.98
705.811	17373.43
706.006	17539.32
706.202	17494.26
706.397	17367.29
706.592	17447.16
706.787	17318.14
706.983	17555.7
707.178	17920.24
707.373	17602.8
707.568	17649.91
707.763	17932.53
707.959	17453.3
708.154	17246.46
708.349	17621.24
708.544	17856.75
708.739	17449.21
708.934	17047.8
709.129	17615.09
709.324	17914.09
709.519	17254.65
709.714	17402.1
709.909	17656.05
710.104	17674.48
710.299	17377.53
710.494	17404.15
710.689	17864.94
710.884	17551.6
711.079	17762.54
711.274	17502.45
711.469	17748.21
711.664	17694.96
711.859	17398.01
712.054	17475.83
712.249	17635.57
712.443	17955.05
712.638	17287.42
712.833	17142.01
713.028	17455.35
713.223	17725.68
713.417	17737.97
713.612	17271.03
713.807	18061.55
714.002	17823.98
714.196	17584.37
714.391	17357.05
714.586	17881.33
714.78	17492.21
714.975	17160.44
715.17	17195.26
715.364	17512.69
715.559	17740.02
715.754	16881.92
715.948	17203.45
716.143	17707.25
716.337	17195.26
716.532	17776.88
716.726	17119.48
716.921	17348.86
717.115	17805.55
717.31	16976.12
717.504	17418.49
717.699	17254.65
717.893	17309.94
718.088	16816.38
718.282	17256.7
718.476	17176.83
718.671	17103.1
718.865	17049.85
719.059	17080.57
719.254	16926.97
719.448	17168.63
719.642	17219.83
719.837	16566.53
720.031	17156.35
720.225	17309.94
720.419	16945.41
720.614	16738.56
720.808	17350.9
721.002	16826.62
721.196	16797.95
721.39	16840.96
721.585	17217.79
721.779	17252.6
721.973	16845.05
722.167	16425.22
722.361	17117.43
722.555	16963.84
722.749	16834.82
722.943	16865.53
723.137	16564.48
723.331	17025.28
723.525	16752.9
723.719	16851.2
723.913	17144.06
724.107	17084.67
724.301	16802.05
724.495	16673.03
724.689	17557.75
724.883	17187.07
725.077	16724.22
725.271	16853.25
725.465	17287.42
725.659	16976.12
725.853	16763.14
726.046	16480.52
726.24	16922.88
726.434	16982.27
726.628	16845.05
726.822	16716.03
727.015	17295.61
727.209	16967.93
727.403	16597.25
727.596	16683.27
727.79	17164.54
727.984	17420.53
728.177	16660.74
728.371	17025.28
728.565	17277.18
728.758	16662.79
728.952	16386.31
729.146	16793.86
729.339	16883.97
729.533	16597.25
729.726	16619.78
729.92	16587.01
730.113	17125.63
730.307	16969.98
730.5	16781.57
730.694	16582.91
730.887	16826.62
731.081	16896.25
731.274	17074.43
731.468	16599.3
731.661	16906.49
731.854	16599.3
732.048	16931.07
732.241	16804.1
732.435	16785.66
732.628	17064.19
732.821	16695.55
733.014	16627.97
733.208	16533.76
733.401	17021.18
733.594	16550.15
733.788	16486.66
733.981	17137.91
734.174	16709.89
734.367	16552.2
734.56	16603.39
734.754	16818.43
734.947	16775.42
735.14	16716.03
735.333	16640.26
735.526	17045.76
735.719	16490.76
735.912	16535.81
736.105	16464.13
736.298	16941.31
736.491	16515.33
736.684	16580.87
736.877	16560.39
737.07	16718.08
737.263	16894.21
737.456	16720.13
737.649	16386.31
737.842	16558.34
738.035	16777.47
738.228	16611.59
738.421	16843.01
738.614	17187.07
738.807	16877.82
739	16337.16
739.192	16181.51
739.385	16896.25
739.578	16783.62
739.771	16926.97
739.964	16503.04
740.156	16800
740.349	16627.97
740.542	16652.55
740.735	16427.27
740.927	16724.22
741.12	16685.31
741.313	16492.8
741.505	16926.97
741.698	16777.47
741.891	16867.58
742.083	16851.2
742.276	16650.5
742.468	16771.33
742.661	16605.44
742.854	16382.21
743.046	16554.24
743.239	17178.87
743.431	16800
743.624	16318.73
743.816	16531.72
744.009	16552.2
744.201	16750.85
744.393	16648.45
744.586	16781.57
744.778	16929.02
744.971	16501
745.163	16441.61
745.355	16474.37
745.548	16494.85
745.74	16482.56
745.932	16529.67
746.125	16556.29
746.317	16980.22
746.509	16810.24
746.702	16525.57
746.894	16355.59
747.086	16615.68
747.278	16834.82
747.471	16619.78
747.663	16369.93
747.855	16605.44
748.047	16834.82
748.239	16328.97
748.431	16460.04
748.623	17131.77
748.815	16900.35
749.008	16419.08
749.2	16322.82
749.392	16820.48
749.584	16615.68
749.776	16476.42
749.968	16343.3
750.16	17195.26
750.352	16425.22
750.544	16120.07
750.736	16175.37
750.928	16507.14
751.12	16230.66
751.311	16034.06
751.503	16322.82
751.695	16568.58
751.887	16294.15
752.079	15831.31
752.271	15956.24
752.463	17107.19
752.654	16419.08
752.846	16359.69
753.038	16050.44
753.23	16089.35
753.421	16443.65
753.613	15741.2
753.805	16228.62
753.997	16431.37
754.188	16541.96
754.38	15989
754.572	16062.73
754.763	16113.93
754.955	16226.57
755.146	16040.2
755.338	16038.16
755.53	16306.44
755.721	16236.81
755.913	16021.77
756.104	15698.19
756.296	16144.65
756.487	16298.25
756.679	15773.97
756.87	15845.65
757.062	16017.68
757.253	16251.14
757.445	15763.73
757.636	15954.19
757.827	16093.45
758.019	16580.87
758.21	15802.64
758.401	15886.61
758.593	16298.25
758.784	16324.87
758.975	15421.72
759.167	15661.33
759.358	15874.32
759.549	15868.17
759.74	15368.47
759.932	15690
760.123	16158.99
760.314	15591.7
760.505	15859.98
760.696	15581.46
760.888	16158.99
761.079	15603.99
761.27	15358.23
761.461	15280.41
761.652	15835.41
761.843	15644.95
762.034	15466.77
762.225	15773.97
762.416	15796.49
762.607	15548.69
762.798	15487.25
762.989	15427.86
763.18	16429.32
763.371	15499.54
763.562	15335.7
763.753	15352.09
763.944	15776.02
764.135	15698.19
764.326	15374.61
764.517	15313.17
764.708	15595.79
764.899	15548.69
765.089	15403.28
765.28	15218.97
765.471	15464.72
765.662	15376.66
765.853	15468.82
766.043	15231.26
766.234	15724.82
766.425	15474.96
766.615	15028.51
766.806	14993.69
766.997	15567.12
767.187	15155.48
767.378	14979.36
767.569	14833.95
767.759	15376.66
767.95	15391
768.141	15550.74
768.331	15001.88
768.522	14979.36
768.712	15350.04
768.903	14917.92
769.093	15059.23
769.284	15515.92
769.474	15005.98
769.665	14917.92
769.855	14915.87
770.046	15116.57
770.236	15051.03
770.426	15186.2
770.617	14686.5
770.807	15026.46
770.998	15087.9
771.188	14881.05
771.378	14598.43
771.569	15055.13
771.759	15206.68
771.949	14584.1
772.139	14668.06
772.33	15005.98
772.52	15325.46
772.71	14889.24
772.9	14469.41
773.09	15253.78
773.281	15157.53
773.471	14428.45
773.661	14526.75
773.851	14960.92
774.041	14643.49
774.231	14817.57
774.421	14410.02
774.611	15145.24
774.802	14903.58
774.992	14422.31
775.182	14512.42
775.372	14770.46
775.562	14889.24
775.752	14473.51
775.942	14448.93
776.131	15010.07
776.321	14663.97
776.511	14360.87
776.701	14459.17
776.891	14606.63
777.081	14260.52
777.271	14356.77
777.461	14166.31
777.651	14868.77
777.84	14809.37
778.03	14285.09
778.22	14074.15
778.41	14600.48
778.599	14424.36
778.789	14502.18
778.979	14446.88
779.169	14543.14
779.358	14471.46
779.548	14600.48
779.738	14090.54
779.927	14532.9
780.117	14324.01
780.307	13895.98
780.496	13885.74
780.686	14516.51
780.875	14565.67
781.065	13945.13
781.254	13875.5
781.444	14160.17
781.633	14151.98
781.823	14102.82
782.012	13926.7
782.202	13850.92
782.391	14010.67
782.581	13914.41
782.77	13852.97
782.96	14231.85
783.149	13885.74
783.338	13611.31
783.528	13672.75
783.717	14035.24
783.906	14287.14
784.096	13779.25
784.285	13687.09
784.474	13857.07
784.663	13760.81
784.853	13703.47
785.042	13852.97
785.231	13779.25
785.42	14227.75
785.61	14029.1
785.799	13578.54
785.988	13660.46
786.177	13615.41
786.366	13764.91
786.555	13895.98
786.744	14027.05
786.933	13943.08
787.122	13644.08
787.312	13375.8
787.501	13838.64
787.69	13994.28
787.879	13746.48
788.068	13506.87
788.257	13572.4
788.445	13441.33
788.634	13728.05
788.823	13463.86
789.012	14285.09
789.201	13836.59
789.39	13257.01
789.579	13332.79
789.768	13607.22
789.957	13889.84
790.145	13553.97
790.334	13369.65
790.523	13400.37
790.712	13517.11
790.9	13248.82
791.089	13332.79
791.278	13990.19
791.467	13484.34
791.655	13318.45
791.844	13875.5
792.033	13197.62
792.221	13431.09
792.41	13267.25
792.599	13195.57
792.787	13883.69
792.976	13658.42
793.164	13148.47
793.353	13394.23
793.541	13609.26
793.73	13621.55
793.918	13246.77
794.107	13218.1
794.295	13285.69
794.484	13173.05
794.672	13052.22
794.861	12771.65
795.049	13177.14
795.238	13463.86
795.426	12996.92
795.614	13009.21
795.803	13293.88
795.991	13699.37
796.179	13003.07
796.368	12990.78
796.556	13486.39
796.744	12988.73
796.932	13121.85
797.121	12933.43
797.309	12861.76
797.497	13388.08
797.685	13230.39
797.874	12982.59
798.062	13037.88
798.25	13097.27
798.438	13037.88
798.626	13009.21
798.814	13289.78
799.002	13846.83
799.19	13015.35
799.378	13091.13
799.566	13373.75
799.755	13404.47
799.943	13187.38
800.131	12972.35
800.318	13091.13
800.506	13191.48
800.694	12908.86
800.882	12998.97
801.07	13517.11
801.258	13082.94
801.446	13271.35
801.634	12980.54
801.822	13226.29
802.01	13326.64
802.197	12804.41
802.385	13115.7
802.573	13293.88
802.761	12804.41
802.949	13250.87
803.136	12837.18
803.324	13359.41
803.512	13285.69
803.699	13113.66
803.887	12763.45
804.075	13551.92
804.262	13166.9
804.45	12861.76
804.638	13203.77
804.825	13130.04
805.013	13039.93
805.201	12982.59
805.388	12687.68
805.576	13089.08
805.763	13682.99
805.951	13015.35
806.138	13203.77
806.326	13719.85
806.513	13586.74
806.701	13402.42
806.888	13306.16
807.075	13613.36
807.263	13996.33
807.45	13162.81
807.638	13302.07
807.825	14008.62
808.012	13566.26
808.2	13287.73
808.387	13279.54
808.574	13746.48
808.761	14035.24
808.949	13236.53
809.136	13476.15
809.323	13355.32
809.51	13582.64
809.698	13375.8
809.885	13259.06
810.072	13392.18
810.259	13627.7
810.446	13099.32
810.633	13259.06
810.82	14025
811.008	14098.73
811.195	13553.97
811.382	13476.15
811.569	13400.37
811.756	13410.61
811.943	13455.67
812.13	13539.63
812.317	13416.76
812.504	13619.5
812.691	13758.77
812.878	13769.01
813.064	13959.47
813.251	13588.78
813.438	13295.93
813.625	13601.07
813.812	13670.7
813.999	13658.42
814.186	13594.93
814.372	13476.15
814.559	13625.65
814.746	13812.01
814.933	13302.07
815.12	13713.71
815.306	13150.52
815.493	13226.29
815.68	13392.18
815.866	13431.09
816.053	14051.63
816.24	14139.69
816.426	13422.9
816.613	13613.36
816.799	13922.6
816.986	13715.76
817.173	13537.59
817.359	13500.72
817.546	13664.56
817.732	13283.64
817.919	13080.89
818.105	13594.93
818.292	13500.72
818.478	13838.64
818.665	13654.32
818.851	13607.22
819.037	13961.51
819.224	13762.86
819.41	13197.62
819.597	13490.48
819.783	13861.16
819.969	13570.35
820.156	13306.16
820.342	13381.94
820.528	14272.81
820.714	13390.13
820.901	13510.96
821.087	13187.38
821.273	13685.04
821.459	13408.56
821.646	12974.39
821.832	13027.64
822.018	13205.81
822.204	13418.8
822.39	13175.09
822.576	13226.29
822.762	13558.07
822.948	13252.92
823.134	13261.11
823.32	12826.94
823.507	13191.48
823.693	13248.82
823.879	13277.49
824.065	12841.28
824.25	13019.45
824.436	12960.06
824.622	13064.5
824.808	12689.73
824.994	12984.63
825.18	12884.28
825.366	12775.74
825.552	12669.25
825.738	12878.14
825.923	13359.41
826.109	12785.98
826.295	12626.24
826.481	12667.2
826.667	12884.28
826.852	12896.57
827.038	12669.25
827.224	13236.53
827.409	13510.96
827.595	12562.75
827.781	12808.51
827.966	13492.53
828.152	13334.84
828.338	12822.84
828.523	12443.97
828.709	12765.5
828.894	13181.24
829.08	12790.08
829.266	12644.67
829.451	12613.95
829.637	12949.82
829.822	12900.67
830.008	12616
830.193	12822.84
830.378	13138.23
830.564	12765.5
830.749	12536.13
830.935	12945.72
831.12	12779.84
831.305	12585.28
831.491	12634.43
831.676	12341.57
831.861	12783.93
832.047	12495.17
832.232	12392.77
832.417	12915
832.602	12718.4
832.788	12226.89
832.973	12132.68
833.158	12417.35
833.343	12466.5
833.528	12298.56
833.714	12273.99
833.899	12939.58
834.084	13054.26
834.269	12554.56
834.454	12403.01
834.639	12495.17
834.824	12470.59
835.009	12435.78
835.194	12593.47
835.379	12439.87
835.564	12679.49
835.749	12595.52
835.934	12155.21
836.119	12597.57
836.304	12591.42
836.489	12226.89
836.674	12357.96
836.859	12089.67
837.044	12790.08
837.228	12208.45
837.413	12120.39
837.598	12480.83
837.783	12519.74
837.968	12177.73
838.152	11858.25
838.337	12020.04
838.522	12439.87
838.707	12552.51
838.891	12030.28
839.076	12378.44
839.261	12351.81
839.445	11901.26
839.63	12153.16
839.815	12509.51
839.999	12288.32
840.184	11950.41
840.368	11809.1
840.553	12267.84
840.737	12605.76
840.922	11589.97
841.106	11856.2
841.291	11968.84
841.475	12218.69
841.66	11872.59
841.844	11774.28
842.029	12679.49
842.213	11714.89
842.397	11856.2
842.582	11528.53
842.766	12233.03
842.951	12009.8
843.135	11747.66
843.319	11702.61
843.504	11714.89
843.688	11981.13
843.872	11389.27
844.056	11518.29
844.241	11995.46
844.425	11827.53
844.609	11702.61
844.793	11213.14
844.977	11823.44
845.161	11684.17
845.346	11407.7
845.53	11645.26
845.714	11733.32
845.898	11942.22
846.082	11299.16
846.266	11426.13
846.45	11592.02
846.634	11690.32
846.818	11202.9
847.002	11628.88
847.186	11905.35
847.37	11338.07
847.554	11229.52
847.738	11475.28
847.922	11610.45
848.106	11778.38
848.29	11237.72
848.473	11442.51
848.657	11489.62
848.841	11405.65
849.025	11290.96
849.209	11086.17
849.392	11712.85
849.576	11538.77
849.76	10879.32
849.944	11217.24
850.127	12054.86
850.311	11151.7
850.495	10846.55
850.678	10897.75
850.862	11682.13
851.046	11624.78
851.229	11104.6
851.413	11188.57
851.596	11090.26
851.78	11254.1
851.964	11440.47
852.147	10940.76
852.331	11723.09
852.514	11579.73
852.698	11073.88
852.881	10707.29
853.065	11184.47
853.248	11159.89
853.431	11106.65
853.615	11127.13
853.798	11798.86
853.982	11290.96
854.165	11008.34
854.348	10764.64
854.532	10826.07
854.715	11098.45
854.898	10953.05
855.081	10821.98
855.265	11270.48
855.448	11542.86
855.631	10754.4
855.814	10838.36
855.997	11319.64
856.181	10821.98
856.364	10885.47
856.547	10649.95
856.73	10725.72
856.913	11002.2
857.096	10557.79
857.279	10697.05
857.462	10832.22
857.645	11229.52
857.828	10707.29
858.011	10752.35
858.194	10598.75
858.377	10881.37
858.56	10467.68
858.743	10799.45
858.926	10430.82
859.109	10897.75
859.292	10324.32
859.475	10369.38
859.658	10770.78
859.841	10647.9
860.023	10158.44
860.206	10189.16
860.389	10768.73
860.572	10828.12
860.755	10387.81
860.937	10187.11
861.12	10314.08
861.303	10772.83
861.486	10504.54
861.668	10309.99
861.851	10797.4
862.034	10502.5
862.216	10574.17
862.399	10045.8
862.581	10492.26
862.764	10819.93
862.947	10322.27
863.129	10203.49
863.312	10111.33
863.494	10985.82
863.677	10418.53
863.859	10094.95
864.042	10361.19
864.224	10590.56
864.406	10111.33
864.589	9789.8
864.771	10334.56
864.954	9949.54
865.136	9830.76
865.318	9609.58
865.501	10260.84
865.683	9664.88
865.865	9804.14
866.048	10129.77
866.23	9826.67
866.412	9972.07
866.594	9562.48
866.777	9890.15
866.959	10373.47
867.141	9886.06
867.323	10266.98
867.505	9943.4
867.687	10205.54
867.869	10066.28
868.052	9826.67
868.234	9963.88
868.416	9998.7
868.598	10236.26
868.78	9757.04
868.962	9795.95
869.144	10277.22
869.326	10217.83
869.508	9724.27
869.69	9730.41
869.872	9886.06
870.054	10226.02
870.236	9886.06
870.417	9605.49
870.599	9841
870.781	10291.55
870.963	9920.87
871.145	9783.66
871.327	9718.12
871.508	10211.68
871.69	9648.49
871.872	9628.01
872.054	10002.79
872.235	10125.67
872.417	9634.16
872.599	9449.84
872.78	10242.4
872.962	9695.6
873.144	9476.46
873.325	9677.16
873.507	10158.44
873.689	9789.8
873.87	9388.4
874.052	9800.04
874.233	9795.95
874.415	10006.89
874.596	9625.97
874.778	9511.28
874.959	9718.12
875.141	10076.52
875.322	9613.68
875.503	9767.27
875.685	10064.23
875.866	9554.29
876.048	9550.19
876.229	9294.19
876.41	9871.72
876.592	9961.83
876.773	9558.38
876.954	9384.3
877.136	10404.19
877.317	9957.74
877.498	9523.57
877.679	9660.78
877.86	9972.07
878.042	9990.5
878.223	9714.03
878.404	9961.83
878.585	10121.57
878.766	10434.91
878.947	9933.16
879.128	10164.58
879.309	10256.74
879.49	10074.47
879.672	9802.09
879.853	9914.73
880.034	9515.37
880.215	9980.26
880.396	9869.67
880.576	9730.41
880.757	9754.99
880.938	10174.82
881.119	9535.85
881.3	9750.89
881.481	9951.59
881.662	11077.97
881.843	9851.24
882.023	9818.47
882.204	9951.59
882.385	10207.59
882.566	9922.92
882.747	10029.41
882.927	9982.31
883.108	10277.22
883.289	9939.3
883.469	10060.13
883.65	10140.01
883.831	10140.01
884.011	10049.89
884.192	10109.29
884.373	10486.11
884.553	10656.09
884.734	10486.11
884.914	10565.98
885.095	10864.99
885.275	10887.51
885.456	10498.4
885.636	10207.59
885.817	10348.9
885.997	10529.12
886.178	10545.5
886.358	10322.27
886.538	10604.89
886.719	11237.72
886.899	10209.64
887.08	10326.37
887.26	10828.12
887.44	10404.19
887.621	10385.76
887.801	10424.67
887.981	11075.93
888.161	10842.46
888.342	10590.56
888.522	10488.16
888.702	10676.57
888.882	10912.09
889.062	10557.79
889.242	10363.23
889.423	10998.1
889.603	10781.02
889.783	10641.76
889.963	10344.8
890.143	10684.76
890.323	11012.44
890.503	10385.76
890.683	10387.81
890.863	10672.48
891.043	10703.2
891.223	10570.08
891.403	10635.61
891.583	10856.79
891.763	10733.92
891.943	10213.73
892.122	10447.2
892.302	10725.72
892.482	10744.16
892.662	10746.2
892.842	10443.1
893.022	10733.92
893.201	10453.34
893.381	10662.24
893.561	10815.83
893.741	10996.06
893.92	10887.51
894.1	10787.16
894.28	10688.86
894.459	11102.55
894.639	10883.42
894.819	10584.41
894.998	10662.24
895.178	10946.9
895.357	10910.04
895.537	10312.03
895.716	10254.69
895.896	10774.88
896.075	10985.82
896.255	10514.78
896.434	10166.63
896.614	11086.17
896.793	10873.18
896.973	10717.53
897.152	10563.93
897.331	10834.27
897.511	10934.62
897.69	10234.21
897.87	10518.88
898.049	10727.77
898.228	10735.96
898.407	10627.42
898.587	10684.76
898.766	10580.32
898.945	10729.82
899.124	10340.71
899.304	10430.82
899.483	10557.79
899.662	11002.2
899.841	10318.18
900.02	10307.94
900.199	10766.68
900.378	10588.51
900.557	10250.6
900.737	10223.97
900.916	10723.68
901.095	10608.99
901.274	10375.52
901.453	10166.63
901.632	10332.51
901.811	10207.59
901.989	9937.26
902.168	10060.13
902.347	10621.28
902.526	10303.84
902.705	10074.47
902.884	10072.42
903.063	10627.42
903.242	10754.4
903.42	10029.41
903.599	10166.63
903.778	10498.4
903.957	10301.79
904.135	10195.3
904.314	10238.31
904.493	10352.99
904.672	10377.57
904.85	10086.76
905.029	9998.7
905.207	10238.31
905.386	11039.06
905.565	9752.94
905.743	9945.45
905.922	9970.02
906.1	10219.88
906.279	9855.34
906.457	10076.52
906.636	10088.81
906.814	10035.56
906.993	9804.14
907.171	9877.87
907.35	10121.57
907.528	10232.16
907.707	10170.72
907.885	9525.61
908.063	10277.22
908.242	9951.59
908.42	9795.95
908.598	9337.2
908.777	9888.11
908.955	9726.32
909.133	9732.46
909.311	9361.78
909.49	9779.56
909.668	9623.92
909.846	9685.36
910.024	9462.13
910.202	9691.5
910.38	9767.27
910.559	9312.63
910.737	9392.5
910.915	9591.15
911.093	9816.43
911.271	9431.41
911.449	9630.06
911.627	9853.29
911.805	10068.33
911.983	9275.76
912.161	9437.55
912.339	9642.35
912.517	9759.08
912.695	9402.74
912.872	9130.36
913.05	9429.36
913.228	9427.31
913.406	8972.66
913.584	9142.64
913.762	9369.97
913.939	9189.75
914.117	8882.55
914.295	8849.78
914.473	9523.57
914.65	9359.73
914.828	9034.1
915.006	9019.77
915.184	8831.35
915.361	9144.69
915.539	9140.6
915.716	9275.76
915.894	9150.84
916.072	9339.25
916.249	9159.03
916.427	9034.1
916.604	8763.77
916.782	9130.36
916.959	8851.83
917.137	8827.26
917.314	9103.73
917.492	8913.27
917.669	8700.28
917.847	8882.55
918.024	9046.39
918.201	8827.26
918.379	8857.98
918.556	8571.26
918.733	8905.08
918.911	8558.97
919.088	8849.78
919.265	8518.01
919.442	8903.03
919.62	8485.25
919.797	8524.16
919.974	8524.16
920.151	8644.99
920.328	8739.19
920.506	8466.81
920.683	8434.05
920.86	8286.59
921.037	8317.31
921.214	8386.94
921.391	8094.08
921.568	8538.49
921.745	8286.59
921.922	8225.15
922.099	8282.5
922.276	8630.65
922.453	8335.74
922.63	8147.33
922.807	8343.94
922.984	8225.15
923.161	7977.35
923.338	7848.33
923.514	8163.72
923.691	8286.59
923.868	7985.54
924.045	7639.44
924.222	7903.62
924.399	8104.32
924.575	8255.87
924.752	7848.33
924.929	7848.33
925.105	8204.67
925.282	7823.75
925.459	7840.14
925.635	7682.44
925.812	7838.09
925.989	7770.51
926.165	7713.16
926.342	7342.48
926.518	7387.54
926.695	7659.92
926.871	7502.22
927.048	7289.23
927.224	7741.83
927.401	7352.72
927.577	7414.16
927.754	7190.93
927.93	7881.1
928.107	7682.44
928.283	7412.11
928.459	7496.08
928.636	7534.99
928.812	7346.58
928.988	7131.54
929.165	7045.52
929.341	7145.87
929.517	7373.2
929.693	7459.21
929.87	6885.78
930.046	7397.78
930.222	7049.62
930.398	6695.32
930.574	6988.18
930.751	7070.1
930.927	6810.01
931.103	6885.78
931.279	6834.58
931.455	6629.79
931.631	6891.93
931.807	6584.73
931.983	6599.07
932.159	6533.53
932.335	6836.63
932.511	6707.61
932.687	6379.93
932.863	6498.72
933.039	6723.99
933.215	6316.45
933.391	6177.19
933.566	6375.84
933.742	6386.08
933.918	6111.65
934.094	5935.53
934.27	6230.43
934.445	6410.65
934.621	6089.12
934.797	5810.6
934.973	6277.54
935.148	6128.03
935.324	5564.84
935.5	5466.54
935.675	6099.36
935.851	5734.82
936.027	5243.31
936.202	5423.53
936.378	5620.14
936.553	5405.1
936.729	5638.57
936.904	5007.8
937.08	5067.19
937.255	4995.51
937.431	4764.09
937.606	4577.72
937.782	4794.81
937.957	4987.32
938.133	4807.09
938.308	4446.65
938.483	4833.72
938.659	4448.7
938.834	4340.16
939.009	4221.38
939.185	4174.27
939.36	4188.61
939.535	3766.73
939.71	4225.47
939.886	4358.59
940.061	4321.73
940.236	4096.45
940.411	4004.29
940.586	4110.79
940.761	4133.31
940.937	3860.93
941.112	3668.42
941.287	3869.12
941.462	3846.6
941.637	3488.2
941.812	3484.11
941.987	3776.97
942.162	3713.48
942.337	3670.47
942.512	3473.87
942.687	3668.42
942.862	3801.54
943.037	3340.75
943.212	3125.71
943.386	3461.58
943.561	3568.07
943.736	3537.35
943.911	3649.99
944.086	3553.74
944.26	3506.63
944.435	3246.54
944.61	3299.79
944.785	3670.47
944.959	3926.47
945.134	3297.74
945.309	3283.41
945.483	3178.96
945.658	3611.08
945.833	3019.22
946.007	3047.89
946.182	3846.6
946.357	3150.29
946.531	3226.06
946.706	3117.52
946.88	2884.05
947.055	3469.77
947.229	3092.94
947.404	3166.67
947.578	3707.34
947.752	3332.56
947.927	3047.89
948.101	2976.21
948.276	3494.35
948.45	3402.19
948.624	3322.32
948.799	3103.18
948.973	3445.2
949.147	3066.32
949.321	3201.49
949.496	3113.42
949.67	3549.64
949.844	3267.02
950.018	3172.82
950.193	3256.78
950.367	3725.77
950.541	3314.13
950.715	3350.99
950.889	3518.92
951.063	3387.85
951.237	3492.3
951.411	3000.79
951.585	3029.46
951.759	3443.15
951.933	3391.95
952.107	3119.57
952.281	3361.23
952.455	3686.86
952.629	3615.18
952.803	3094.99
952.977	3082.7
953.151	3506.63
953.325	3359.18
953.499	3254.73
953.672	3049.94
953.846	3113.42
954.02	3176.91
954.194	3324.37
954.368	3181.01
954.541	3512.78
954.715	3344.84
954.889	3295.69
955.062	3039.7
955.236	3267.02
955.41	3246.54
955.583	3285.45
955.757	3131.86
955.93	3242.45
956.104	3047.89
956.278	3078.61
956.451	3228.11
956.625	3334.61
956.798	3619.27
956.972	3332.56
957.145	3013.07
957.319	3232.21
957.492	3162.58
957.665	3111.38
957.839	3017.17
958.012	3383.76
958.185	3183.06
958.359	3062.23
958.532	3252.69
958.705	3439.05
958.879	3373.52
959.052	3162.58
959.225	2937.3
959.398	3156.43
959.572	3291.6
959.745	3144.14
959.918	3035.6
960.091	3168.72
960.264	3307.98
960.438	2900.44
960.611	2820.56
960.784	3316.17
960.957	3051.99
961.13	3357.13
961.303	2884.05
961.476	3097.04
961.649	3283.41
961.822	3086.8
961.995	3060.18
962.168	3361.23
962.341	3092.94
962.514	2974.16
962.686	2937.3
962.859	3189.2
963.032	3326.41
963.205	3056.08
963.378	2820.56
963.551	3285.45
963.723	3131.86
963.896	3183.06
964.069	3152.34
964.242	3074.51
964.414	3248.59
964.587	3054.03
964.76	2925.01
964.932	3197.39
965.105	3008.98
965.278	2916.82
965.45	2898.39
965.623	3101.14
965.795	3262.93
965.968	2826.71
966.14	2812.37
966.313	3047.89
966.485	3058.13
966.658	2836.95
966.83	2941.4
967.003	3207.63
967.175	3195.34
967.348	2742.74
967.52	2929.11
967.692	3437
967.865	3013.07
968.037	2916.82
968.209	3168.72
968.382	3031.51
968.554	3240.4
968.726	2894.29
968.898	2882
969.071	3021.27
969.243	3082.7
969.415	2812.37
969.587	2857.43
969.759	3738.05
969.932	3117.52
970.104	2816.47
970.276	2539.99
970.448	2818.52
970.62	2767.32
970.792	2920.92
970.964	2709.97
971.136	3385.8
971.308	3039.7
971.48	2781.65
971.652	2736.6
971.824	3275.21
971.996	2779.61
972.168	2906.58
972.339	2863.57
972.511	3117.52
972.683	2836.95
972.855	2916.82
973.027	2605.53
973.199	2750.93
973.37	2972.11
973.542	2800.09
973.714	2761.17
973.886	2976.21
974.057	3023.31
974.229	2437.59
974.401	2523.61
974.572	2539.99
974.744	2245.09
974.915	2705.88
975.087	2597.34
975.259	3201.49
975.43	2632.15
975.602	2609.62
975.773	2445.79
975.945	2468.31
976.116	2945.49
976.288	2535.9
976.459	2765.27
976.63	2750.93
976.802	2853.33
976.973	2533.85
977.145	2707.93
977.316	3131.86
977.487	2744.79
977.659	2707.93
977.83	2519.51
978.001	3125.71
978.172	2763.22
978.344	2537.95
978.515	2533.85
978.686	2626.01
978.857	2900.44
979.028	2609.62
979.2	2357.72
979.371	2933.2
979.542	2669.02
979.713	2652.63
979.884	2206.17
980.055	2413.02
980.226	2722.26
980.397	2537.95
980.568	2261.47
980.739	2910.68
980.91	2656.73
981.081	2548.19
981.252	2451.93
981.423	2959.83
981.594	2787.8
981.765	2247.13
981.936	2482.65
982.106	2539.99
982.277	2906.58
982.448	2521.56
982.619	2527.71
982.79	2435.55
982.96	2808.28
983.131	2367.96
983.302	2191.84
983.472	2507.23
983.643	2609.62
983.814	2507.23
983.984	2337.24
984.155	2378.2
984.326	2669.02
984.496	2449.88
984.667	2408.92
984.837	2390.49
985.008	2677.21
985.178	2290.14
985.349	2417.12
985.519	2370.01
985.69	2245.09
985.86	2349.53
986.031	2249.18
986.201	2523.61
986.371	2517.47
986.542	2218.46
986.712	2101.73
986.882	2490.84
987.053	2447.83
987.223	2144.74
987.393	2200.03
987.563	2220.51
987.734	2562.52
987.904	2638.3
988.074	2165.21
988.244	2447.83
988.414	2257.37
988.585	2140.64
988.755	2335.2
988.925	2392.54
989.095	2804.18
989.265	2169.31
989.435	2288.09
989.605	2433.5
989.775	2458.07
989.945	2509.27
990.115	2085.34
990.285	2298.33
990.455	2298.33
990.625	2189.79
990.795	2234.85
990.965	2650.58
991.134	2019.81
991.304	1984.99
991.474	2013.67
991.644	2320.86
991.814	2566.62
991.984	1946.08
992.153	1898.98
992.323	2171.36
992.493	2197.98
992.662	1743.33
992.832	2189.79
993.002	2271.71
993.171	2206.17
993.341	1858.02
993.511	2218.46
993.68	2071.01
993.85	2347.48
994.019	1784.29
994.189	1843.68
994.358	2140.64
994.528	1984.99
994.697	1817.06
994.867	1796.58
995.036	2288.09
995.206	1968.61
995.375	1845.73
995.544	1976.8
995.714	2154.98
995.883	2017.76
996.052	2019.81
996.222	1712.61
996.391	2435.55
996.56	1966.56
996.73	1774.05
996.899	1827.3
997.068	2335.2
997.237	1968.61
997.406	1718.76
997.576	1696.23
997.745	2073.06
997.914	2021.86
998.083	1722.85
998.252	1835.49
998.421	2056.67
998.59	1737.19
998.759	1716.71
998.928	1751.53
999.097	2273.76
999.266	2064.86
999.435	1925.6
999.604	1688.04
999.773	2523.61
999.942	1939.94
1000.111	1538.54
1000.28	1602.02
1000.448	1659.37
1000.617	1739.24
1000.786	1941.99
1000.955	1667.56
1001.124	2028
1001.292	2607.58
1001.461	1581.54
1001.63	1671.65
1001.798	2265.57
1001.967	2087.39
1002.136	1464.81
1002.304	1649.13
1002.473	1925.6
1002.642	1917.41
1002.81	1645.03
1002.979	1442.28
1003.147	2042.34
1003.316	2288.09
1003.484	1638.89
1003.653	1518.06
1003.821	2144.74
1003.99	1724.9
1004.158	1802.72
1004.327	1481.19
1004.495	1890.79
1004.663	1622.5
1004.832	1657.32
1005	1343.98
1005.168	1960.42
1005.337	1855.97
1005.505	1358.32
1005.673	1620.46
1005.842	1974.75
1006.01	1849.83
1006.178	1376.75
1006.346	1524.2
1006.514	1925.6
1006.683	2013.67
1006.851	1530.34
1007.019	1366.51
1007.187	1522.15
1007.355	1272.3
1007.523	1317.36
1007.691	1352.17
1007.859	1391.08
1008.027	1960.42
1008.195	1479.15
1008.363	1284.59
1008.531	1874.4
1008.699	1536.49
1008.867	1231.34
1009.035	1335.79
1009.203	1872.36
1009.37	1618.41
1009.538	1317.36
1009.706	1630.7
1009.874	1628.65
1010.042	1610.22
1010.209	1262.06
1010.377	1249.77
1010.545	1831.4
1010.713	1571.3
1010.88	1303.02
1011.048	1272.3
1011.216	1546.73
1011.383	1812.96
1011.551	1141.23
1011.718	1219.05
1011.886	1720.81
1012.054	1575.4
1012.221	1165.81
1012.389	1227.25
1012.556	1526.25
1012.724	1792.48
1012.891	1450.47
1013.058	1032.69
1013.226	1556.97
1013.393	1628.65
1013.561	1124.85
1013.728	1157.61
1013.895	1706.47
1014.063	1632.74
1014.23	1130.99
1014.397	1090.03
1014.565	1720.81
1014.732	1401.32
1014.899	1180.14
1015.066	950.77
1015.233	1516.01
1015.401	1487.34
1015.568	1192.43
1015.735	1239.53
1015.902	1378.79
1016.069	1559.02
1016.236	1137.13
1016.403	1047.02
1016.57	1294.83
1016.737	1552.87
1016.904	1208.81
1017.071	1053.17
1017.238	1366.51
1017.405	1509.86
1017.572	1104.37
1017.739	1229.29
1017.906	1466.86
1018.073	1538.54
1018.24	989.68
1018.407	1063.41
1018.573	1493.48
1018.74	1296.88
1018.907	1139.18
1019.074	1024.5
1019.241	1427.95
1019.407	1325.55
1019.574	1206.77
1019.741	809.46
1019.907	1327.6
1020.074	1290.73
1020.241	866.8
1020.407	938.48
1020.574	1366.51
1020.74	1339.88
1020.907	938.48
1021.073	924.15
1021.24	1649.13
1021.406	1677.8
1021.573	891.38
1021.739	907.76
1021.906	1513.96
1022.072	1221.1
1022.239	934.39
1022.405	864.75
1022.571	1165.81
1022.738	1104.37
1022.904	905.71
1023.07	997.87
1023.237	1243.63
1023.403	1423.85
1023.569	938.48
1023.735	973.3
1023.902	1272.3
1024.068	1241.58
1024.234	780.79
1024.4	844.28
1024.566	1341.93
1024.732	1348.08
1024.898	879.09
1025.065	786.93
1025.231	1399.27
1025.397	1120.75
1025.563	846.32
1025.729	780.79
1025.895	702.97
1026.061	977.39
1026.227	709.11
1026.392	823.8
1026.558	1358.32
1026.724	1194.48
1026.89	678.39
1027.056	807.41
1027.222	1237.49
1027.388	950.77
1027.553	774.64
1027.719	803.32
1027.885	1458.67
1028.051	1268.2
1028.216	573.94
1028.382	776.69
1028.548	1311.21
1028.713	1022.45
1028.879	651.77
1029.045	946.67
1029.21	1356.27
1029.376	1374.7
1029.541	788.98
1029.707	866.8
1029.873	1262.06
1030.038	1294.83
1030.204	799.22
1030.369	829.94
1030.534	1122.8
1030.7	942.58
1030.865	700.92
1031.031	606.71
1031.196	1085.94
1031.361	1055.22
1031.527	698.87
1031.692	627.19
1031.857	659.96
1032.023	1165.81
1032.188	608.76
1032.353	731.64
1032.518	1382.89
1032.684	1047.02
1032.849	539.13
1033.014	696.82
1033.179	1090.03
1033.344	926.19
1033.509	717.3
1033.674	750.07
1033.839	1100.27
1034.004	1114.61
1034.17	657.91
1034.335	547.32
1034.5	846.32
1034.664	731.64
1034.829	670.2
1034.994	563.7
1035.159	1104.37
1035.324	877.04
1035.489	537.08
1035.654	606.71
1035.819	1239.53
1035.984	975.35
1036.148	631.29
1036.313	612.85
1036.478	1178.09
1036.643	881.14
1036.807	594.42
1036.972	500.22
1037.137	1194.48
1037.301	907.76
1037.466	412.15
1037.631	680.44
1037.795	1165.81
1037.96	973.3
1038.124	715.25
1038.289	528.89
1038.454	985.58
1038.618	965.11
1038.783	524.79
1038.947	612.85
1039.111	940.53
1039.276	709.11
1039.44	530.94
1039.605	918
1039.769	657.91
1039.933	848.37
1040.098	582.14
1040.262	786.93
1040.426	1032.69
1040.591	952.82
1040.755	518.65
1040.919	506.36
1041.083	858.61
1041.248	750.07
1041.412	268.8
1041.576	416.25
1041.74	737.78
1041.904	1014.26
1042.068	397.82
1042.232	596.47
1042.397	997.87
1042.561	881.14
1042.725	279.04
1042.889	606.71
1043.053	903.67
1043.217	885.23
1043.381	631.29
1043.544	313.85
1043.708	993.78
1043.872	543.22
1044.036	131.58
1044.2	311.8
1044.364	1098.22
1044.528	1104.37
1044.691	2963.92
1044.855	207.36
1045.019	1001.97
1045.183	870.9
1045.346	442.87
1045.51	408.06
1045.674	930.29
1045.837	877.04
1046.001	442.87
1046.165	514.55
1046.328	1253.87
1046.492	885.23
1046.655	639.48
1046.819	524.79
1046.983	612.85
1047.146	868.85
1047.31	487.93
1047.473	260.6
1047.636	680.44
1047.8	547.32
1047.963	395.77
1048.127	274.94
1048.29	510.46
