Data from Ink_Intensity_USB4F045381__180__00180.txt Node

Date: Mon Jul 17 11:41:58 EDT 2023
User: mmckonesweet
Spectrometer: USB4F04538
Trigger mode: 4
Integration Time (sec): 9.000000E-1
Scans to average: 1
Electric dark correction enabled: true
Nonlinearity correction enabled: false
Boxcar width: 0
XAxis mode: Wavelengths
Number of Pixels in Spectrum: 3648
>>>>>Begin Spectral Data<<<<<
345.52	-1046
345.736	-1046
345.952	-1046
346.168	-1035.76
346.384	-1017.33
346.6	-142.85
346.816	-228.86
347.032	-165.37
347.248	381.43
347.464	-282.11
347.68	-91.65
347.896	78.33
348.112	330.23
348.328	-97.79
348.544	-153.09
348.76	45.57
348.975	326.14
349.191	-192
349.407	-210.43
349.623	-13.82
349.839	-19.97
350.055	-138.75
350.27	27.14
350.486	258.56
350.702	311.8
350.918	174.59
351.133	-118.27
351.349	176.64
351.565	459.26
351.781	-280.06
351.996	16.9
352.212	289.28
352.428	-114.17
352.644	-237.05
352.859	-181.76
353.075	285.18
353.291	109.05
353.506	-112.13
353.722	-275.96
353.938	-132.61
354.153	469.5
354.369	180.73
354.584	-177.66
354.8	246.27
355.016	-316.92
355.231	-349.69
355.447	-140.8
355.662	119.29
355.878	842.23
356.093	-306.68
356.309	39.42
356.524	-210.43
356.74	244.22
356.955	-239.1
357.171	-50.69
357.386	137.73
357.602	-239.1
357.817	-91.65
358.033	-214.52
358.248	367.1
358.464	166.4
358.679	-169.47
358.895	-394.75
359.11	100.86
359.325	295.42
359.541	53.76
359.756	2.56
359.972	-259.58
360.187	133.63
360.402	-142.85
360.618	-132.61
360.833	981.49
361.048	141.82
361.264	-204.28
361.479	-89.6
361.694	10.75
361.909	154.11
362.125	-198.14
362.34	-159.23
362.555	219.64
362.77	154.11
362.986	-259.58
363.201	-210.43
363.416	170.49
363.631	-11.78
363.847	-222.72
364.062	-198.14
364.277	158.21
364.492	27.14
364.707	-177.66
364.922	-396.79
365.138	209.4
365.353	363
365.568	-208.38
365.783	-210.43
365.998	111.1
366.213	553.46
366.428	-318.97
366.643	0.51
366.858	180.73
367.073	242.17
367.288	-108.03
367.503	-200.19
367.718	113.15
367.933	231.93
368.148	-325.12
368.363	-130.56
368.578	-52.74
368.793	504.31
369.008	-198.14
369.223	-222.72
369.438	207.36
369.653	383.48
369.868	-323.07
370.083	-216.57
370.298	111.1
370.513	328.19
370.728	51.71
370.943	-196.09
371.157	-148.99
371.372	453.11
371.587	-261.63
371.802	-257.53
372.017	68.09
372.232	369.15
372.446	-34.3
372.661	-255.48
372.876	225.79
373.091	215.55
373.306	-103.93
373.52	-243.2
373.735	-192
373.95	352.76
374.165	-89.6
374.379	-177.66
374.594	-116.22
374.809	90.62
375.023	59.9
375.238	-280.06
375.453	236.03
375.667	-226.81
375.882	-112.13
376.097	-148.99
376.311	25.09
376.526	-50.69
376.741	-189.95
376.955	84.48
377.17	547.32
377.384	516.6
377.599	-130.56
377.813	-273.92
378.028	608.76
378.242	244.22
378.457	-110.08
378.672	-314.88
378.886	49.66
379.101	-48.64
379.315	-386.55
379.53	-159.23
379.744	139.77
379.958	182.78
380.173	-187.9
380.387	-177.66
380.602	199.16
380.816	-103.93
381.031	-177.66
381.245	-284.16
381.459	227.84
381.674	2623.96
381.888	-275.96
382.103	104.96
382.317	-163.33
382.531	418.3
382.746	-144.89
382.96	-263.68
383.174	-177.66
383.388	467.45
383.603	16.9
383.817	-284.16
384.031	160.25
384.246	477.69
384.46	-50.69
384.674	223.74
384.888	96.77
385.103	37.38
385.317	-230.91
385.531	-46.59
385.745	354.81
385.959	313.85
386.174	-169.47
386.388	-341.5
386.602	53.76
386.816	-54.78
387.03	-114.17
387.244	-126.46
387.458	2.56
387.672	358.91
387.887	-390.65
388.101	-267.77
388.315	354.81
388.529	109.05
388.743	-112.13
388.957	-286.2
389.171	254.46
389.385	-153.09
389.599	-169.47
389.813	27.14
390.027	143.87
390.241	606.71
390.455	-151.04
390.669	-181.76
390.883	-144.89
391.097	397.82
391.311	-13.82
391.525	-210.43
391.738	133.63
391.952	166.4
392.166	-81.41
392.38	-351.74
392.594	285.18
392.808	274.94
393.022	-122.37
393.236	-144.89
393.449	158.21
393.663	111.1
393.877	-222.72
394.091	-165.37
394.305	-108.03
394.518	-124.41
394.732	-275.96
394.946	-95.74
395.16	481.78
395.373	88.57
395.587	-249.34
395.801	-230.91
396.015	270.84
396.228	244.22
396.442	-269.82
396.656	-392.7
396.869	324.09
397.083	440.83
397.297	-128.51
397.51	-161.28
397.724	330.23
397.938	55.81
398.151	-308.73
398.365	-323.07
398.578	199.16
398.792	322.04
399.005	-22.02
399.219	-235
399.433	215.55
399.646	154.11
399.86	-22.02
400.073	-71.17
400.287	190.97
400.5	-67.07
400.714	39.42
400.927	-181.76
401.141	203.26
401.354	965.11
401.567	170.49
401.781	-292.35
401.994	348.67
402.208	606.71
402.421	-177.66
402.635	-183.81
402.848	59.9
403.061	182.78
403.275	-5.63
403.488	-282.11
403.701	406.01
403.915	264.7
404.128	4.61
404.341	-169.47
404.555	174.59
404.768	-38.4
404.981	-54.78
405.195	-161.28
405.408	518.65
405.621	197.12
405.834	8.7
406.048	-292.35
406.261	444.92
406.474	408.06
406.687	-228.86
406.9	-7.68
407.114	-34.3
407.327	174.59
407.54	-255.48
407.753	-280.06
407.966	-128.51
408.179	281.08
408.392	-284.16
408.605	-361.98
408.819	176.64
409.032	176.64
409.245	-177.66
409.458	8.7
409.671	264.7
409.884	270.84
410.097	-325.12
410.31	23.04
410.523	143.87
410.736	-15.87
410.949	-87.55
411.162	-161.28
411.375	358.91
411.588	254.46
411.801	6.66
412.014	-282.11
412.227	33.28
412.44	-81.41
412.653	-136.7
412.865	-116.22
413.078	248.32
413.291	199.16
413.504	-67.07
413.717	-163.33
413.93	272.89
414.143	-126.46
414.356	-144.89
414.568	-357.88
414.781	272.89
414.994	127.49
415.207	-114.17
415.42	-32.26
415.632	207.36
415.845	481.78
416.058	-286.2
416.271	-273.92
416.483	51.71
416.696	459.26
416.909	-206.33
417.121	-257.53
417.334	188.93
417.547	453.11
417.759	-257.53
417.972	-230.91
418.185	-38.4
418.397	170.49
418.61	-253.44
418.823	-206.33
419.035	369.15
419.248	23.04
419.46	-108.03
419.673	-58.88
419.885	174.59
420.098	18.94
420.311	-183.81
420.523	-407.03
420.736	272.89
420.948	72.19
421.161	-194.05
421.373	-349.69
421.586	162.3
421.798	-185.85
422.01	-388.6
422.223	-22.02
422.435	-46.59
422.648	197.12
422.86	-257.53
423.073	-275.96
423.285	338.43
423.497	-308.73
423.71	-204.28
423.922	-230.91
424.134	182.78
424.347	334.33
424.559	-5.63
424.771	90.62
424.984	-62.98
425.196	98.81
425.408	-298.49
425.621	-380.41
425.833	246.27
426.045	387.58
426.257	-306.68
426.47	-239.1
426.682	59.9
426.894	166.4
427.106	-214.52
427.318	-173.57
427.531	-75.26
427.743	190.97
427.955	-200.19
428.167	256.51
428.379	92.67
428.591	4.61
428.804	12.8
429.016	-288.25
429.228	-28.16
429.44	96.77
429.652	47.62
429.864	-323.07
430.076	-46.59
430.288	-65.02
430.5	-212.48
430.712	-116.22
430.924	217.6
431.136	31.23
431.348	-374.27
431.56	-282.11
431.772	-28.16
431.984	-17.92
432.196	-288.25
432.408	-251.39
432.62	-85.5
432.832	238.08
433.044	72.19
433.256	-130.56
433.468	178.69
433.679	-259.58
433.891	-329.21
434.103	-38.4
434.315	340.47
434.527	223.74
434.739	-151.04
434.95	-194.05
435.162	201.21
435.374	-101.89
435.586	-214.52
435.798	-194.05
436.009	-271.87
436.221	-38.4
436.433	-171.52
436.645	-169.47
436.856	-112.13
437.068	305.66
437.28	-282.11
437.491	76.29
437.703	150.01
437.915	78.33
438.126	-179.71
438.338	51.71
438.55	12.8
438.761	186.88
438.973	-165.37
439.184	-224.76
439.396	-124.41
439.608	160.25
439.819	-318.97
440.031	-81.41
440.242	150.01
440.454	219.64
440.665	-200.19
440.877	-95.74
441.088	168.45
441.3	-54.78
441.511	-335.35
441.723	-241.15
441.934	154.11
442.146	27.14
442.357	-42.5
442.569	61.95
442.78	-5.63
442.991	526.84
443.203	215.55
443.414	-372.22
443.626	354.81
443.837	-159.23
444.048	-255.48
444.26	-404.99
444.471	43.52
444.682	262.65
444.894	-386.55
445.105	-359.93
445.316	225.79
445.528	121.34
445.739	-52.74
445.95	-169.47
446.161	137.73
446.373	281.08
446.584	-226.81
446.795	-167.42
447.006	166.4
447.217	422.39
447.429	-378.36
447.64	-349.69
447.851	328.19
448.062	-11.78
448.273	-396.79
448.484	-280.06
448.695	178.69
448.907	-54.78
449.118	-26.11
449.329	18.94
449.54	-91.65
449.751	-159.23
449.962	-146.94
450.173	-235
450.384	315.9
450.595	231.93
450.806	-230.91
451.017	-226.81
451.228	352.76
451.439	199.16
451.65	-169.47
451.861	-374.27
452.072	-126.46
452.283	12.8
452.494	-7.68
452.705	-216.57
452.915	479.74
453.126	160.25
453.337	-204.28
453.548	-261.63
453.759	322.04
453.97	610.81
454.181	-7.68
454.391	-265.72
454.602	104.96
454.813	147.97
455.024	-103.93
455.235	-237.05
455.445	72.19
455.656	178.69
455.867	-105.98
456.078	-218.62
456.288	4.61
456.499	127.49
456.71	-308.73
456.921	27.14
457.131	166.4
457.342	123.39
457.553	-71.17
457.763	-153.09
457.974	154.11
458.184	281.08
458.395	-235
458.606	-296.44
458.816	231.93
459.027	508.41
459.237	-116.22
459.448	-384.51
459.659	297.47
459.869	561.66
460.08	-384.51
460.29	-132.61
460.501	358.91
460.711	-75.26
460.922	-376.31
461.132	-255.48
461.343	795.12
461.553	-230.91
461.764	-257.53
461.974	-220.67
462.184	264.7
462.395	170.49
462.605	-192
462.816	-329.21
463.026	80.38
463.236	358.91
463.447	-224.76
463.657	-239.1
463.867	217.6
464.078	-34.3
464.288	-263.68
464.498	-284.16
464.709	55.81
464.919	-9.73
465.129	-224.76
465.339	-218.62
465.55	141.82
465.76	303.61
465.97	-218.62
466.18	-316.92
466.391	240.12
466.601	150.01
466.811	-181.76
467.021	-382.46
467.231	115.2
467.441	342.52
467.651	-159.23
467.862	-409.08
468.072	18.94
468.282	358.91
468.492	-284.16
468.702	-95.74
468.912	-42.5
469.122	641.53
469.332	16.9
469.542	-312.83
469.752	213.5
469.962	51.71
470.172	-339.45
470.382	-339.45
470.592	143.87
470.802	381.43
471.012	-142.85
471.222	-189.95
471.432	297.47
471.642	162.3
471.852	-120.32
472.062	-286.2
472.272	-58.88
472.482	-243.2
472.691	-300.54
472.901	-308.73
473.111	94.72
473.321	551.42
473.531	-376.31
473.741	-163.33
473.95	137.73
474.16	225.79
474.37	-183.81
474.58	-333.31
474.79	410.11
474.999	332.28
475.209	-288.25
475.419	-247.29
475.628	-17.92
475.838	311.8
476.048	-192
476.258	-263.68
476.467	289.28
476.677	-77.31
476.886	-30.21
477.096	-116.22
477.306	-192
477.515	356.86
477.725	-108.03
477.935	-128.51
478.144	367.1
478.354	-214.52
478.563	-165.37
478.773	-286.2
478.982	135.68
479.192	330.23
479.401	-126.46
479.611	-353.79
479.82	-134.65
480.03	78.33
480.239	-241.15
480.449	-415.23
480.658	494.07
480.868	-192
481.077	-132.61
481.287	-251.39
481.496	172.54
481.705	375.29
481.915	27.14
482.124	-91.65
482.333	111.1
482.543	371.19
482.752	-128.51
482.961	-249.34
483.171	199.16
483.38	-13.82
483.589	-169.47
483.799	-267.77
484.008	55.81
484.217	272.89
484.426	-159.23
484.636	-382.46
484.845	47.62
485.054	-271.87
485.263	-1.54
485.472	-220.67
485.682	408.06
485.891	135.68
486.1	-374.27
486.309	-282.11
486.518	160.25
486.727	371.19
486.936	-327.16
487.146	-87.55
487.355	358.91
487.564	-194.05
487.773	-210.43
487.982	-220.67
488.191	-136.7
488.4	49.66
488.609	-194.05
488.818	-216.57
489.027	616.95
489.236	371.19
489.445	-177.66
489.654	-316.92
489.863	293.37
490.072	84.48
490.281	125.44
490.49	-218.62
490.698	332.28
490.907	420.35
491.116	-255.48
491.325	-374.27
491.534	358.91
491.743	150.01
491.952	-95.74
492.16	-124.41
492.369	137.73
492.578	297.47
492.787	-144.89
492.996	-370.17
493.204	-120.32
493.413	465.4
493.622	-517.62
493.831	-478.71
494.039	406.01
494.248	-194.05
494.457	-280.06
494.665	-341.5
494.874	190.97
495.083	524.79
495.291	-204.28
495.5	-337.4
495.709	160.25
495.917	53.76
496.126	-157.18
496.335	-302.59
496.543	-5.63
496.752	92.67
496.96	51.71
497.169	-355.83
497.377	59.9
497.586	256.51
497.794	-122.37
498.003	-351.74
498.211	-30.21
498.42	363
498.628	-187.9
498.837	-325.12
499.045	199.16
499.254	102.91
499.462	-325.12
499.671	-333.31
499.879	406.01
500.087	330.23
500.296	-286.2
500.504	-259.58
500.713	76.29
500.921	592.37
501.129	-294.4
501.338	-202.24
501.546	86.53
501.754	78.33
501.962	-265.72
502.171	-257.53
502.379	211.45
502.587	422.39
502.795	-177.66
503.004	-265.72
503.212	-13.82
503.42	219.64
503.628	-189.95
503.837	-105.98
504.045	127.49
504.253	393.72
504.461	-294.4
504.669	-392.7
504.877	176.64
505.085	408.06
505.294	-361.98
505.502	-83.45
505.71	-5.63
505.918	297.47
506.126	-288.25
506.334	-341.5
506.542	-26.11
506.75	131.58
506.958	-161.28
507.166	-194.05
507.374	-42.5
507.582	502.26
507.79	-124.41
507.998	-290.3
508.206	154.11
508.414	4.61
508.622	-259.58
508.83	-251.39
509.037	444.92
509.245	-38.4
509.453	-339.45
509.661	-325.12
509.869	246.27
510.077	6.66
510.285	-71.17
510.492	-556.54
510.7	604.66
510.908	-91.65
511.116	-286.2
511.324	-239.1
511.531	-99.84
511.739	-19.97
511.947	-138.75
512.155	6.66
512.362	143.87
512.57	-218.62
512.778	-282.11
512.985	-372.22
513.193	242.17
513.401	414.2
513.608	-235
513.816	-235
514.024	190.97
514.231	285.18
514.439	-292.35
514.646	-275.96
514.854	197.12
515.061	305.66
515.269	-237.05
515.477	-271.87
515.684	-210.43
515.892	254.46
516.099	-390.65
516.307	-439.8
516.514	176.64
516.722	436.73
516.929	-267.77
517.136	-366.07
517.344	330.23
517.551	18.94
517.759	-304.64
517.966	-267.77
518.173	-46.59
518.381	43.52
518.588	-204.28
518.796	-331.26
519.003	209.4
519.21	27.14
519.418	-380.41
519.625	-3.58
519.832	18.94
520.039	104.96
520.247	-450.04
520.454	-292.35
520.661	268.8
520.868	166.4
521.076	-239.1
521.283	-251.39
521.49	608.76
521.697	84.48
521.904	-257.53
522.112	-251.39
522.319	246.27
522.526	123.39
522.733	-316.92
522.94	-366.07
523.147	84.48
523.354	229.88
523.561	-400.89
523.768	-202.24
523.975	322.04
524.183	41.47
524.39	-169.47
524.597	-382.46
524.804	25.09
525.011	-122.37
525.218	-323.07
525.425	-341.5
525.632	379.39
525.838	-128.51
526.045	-296.44
526.252	-347.64
526.459	1182.19
526.666	956.91
526.873	-394.75
527.08	-284.16
527.287	309.76
527.494	238.08
527.701	-384.51
527.907	-374.27
528.114	109.05
528.321	-71.17
528.528	-321.02
528.735	-261.63
528.941	-50.69
529.148	-95.74
529.355	-148.99
529.562	-296.44
529.768	381.43
529.975	-73.21
530.182	-181.76
530.388	-226.81
530.595	354.81
530.802	-230.91
531.008	-120.32
531.215	-314.88
531.422	414.2
531.628	741.88
531.835	-146.94
532.042	-198.14
532.248	-110.08
532.455	-9.73
532.661	-216.57
532.868	-288.25
533.074	147.97
533.281	248.32
533.487	-173.57
533.694	-392.7
533.9	-194.05
534.107	121.34
534.313	-343.55
534.52	-394.75
534.726	231.93
534.933	578.04
535.139	-398.84
535.345	-396.79
535.552	64
535.758	78.33
535.965	-144.89
536.171	-202.24
536.377	178.69
536.584	426.49
536.79	-275.96
536.996	-198.14
537.203	37.38
537.409	133.63
537.615	-140.8
537.821	-114.17
538.028	143.87
538.234	223.74
538.44	-249.34
538.646	-224.76
538.853	217.6
539.059	49.66
539.265	96.77
539.471	-460.28
539.677	289.28
539.883	-81.41
540.09	-339.45
540.296	178.69
540.502	-22.02
540.708	-140.8
540.914	-44.54
541.12	-202.24
541.326	207.36
541.532	-81.41
541.738	-189.95
541.944	-253.44
542.15	199.16
542.356	-81.41
542.562	-423.42
542.768	-259.58
542.974	619
543.18	518.65
543.386	-275.96
543.592	-429.56
543.798	436.73
544.004	363
544.21	-372.22
544.415	-171.52
544.621	102.91
544.827	250.36
545.033	-468.47
545.239	-52.74
545.445	-208.38
545.651	59.9
545.856	-259.58
546.062	-284.16
546.268	-132.61
546.474	-34.3
546.679	-210.43
546.885	-218.62
547.091	-116.22
547.297	559.61
547.502	-267.77
547.708	-382.46
547.914	-165.37
548.119	90.62
548.325	-366.07
548.531	-431.61
548.736	428.54
548.942	-130.56
549.147	-253.44
549.353	-48.64
549.559	287.23
549.764	158.21
549.97	-226.81
550.175	-288.25
550.381	203.26
550.586	-67.07
550.792	-192
550.997	-271.87
551.203	170.49
551.408	174.59
551.614	-407.03
551.819	-308.73
552.025	457.21
552.23	526.84
552.435	-351.74
552.641	-128.51
552.846	-167.42
553.052	248.32
553.257	-83.45
553.462	-214.52
553.668	-202.24
553.873	205.31
554.078	-271.87
554.283	-267.77
554.489	125.44
554.694	12.8
554.899	-296.44
555.105	-144.89
555.31	295.42
555.515	256.51
555.72	-202.24
555.925	-359.93
556.131	174.59
556.336	-87.55
556.541	-374.27
556.746	-329.21
556.951	328.19
557.156	481.78
557.361	-157.18
557.567	-224.76
557.772	487.93
557.977	170.49
558.182	-267.77
558.387	-290.3
558.592	-148.99
558.797	350.71
559.002	-134.65
559.207	-87.55
559.412	61.95
559.617	545.27
559.822	-278.01
560.027	-341.5
560.232	156.16
560.437	313.85
560.642	-368.12
560.847	-333.31
561.051	107.01
561.256	82.43
561.461	-239.1
561.666	-421.37
561.871	25.09
562.076	180.73
562.281	-282.11
562.485	-280.06
562.69	174.59
562.895	297.47
563.1	-290.3
563.305	-394.75
563.509	338.43
563.714	608.76
563.919	-247.29
564.123	-237.05
564.328	-71.17
564.533	436.73
564.737	-210.43
564.942	-263.68
565.147	444.92
565.351	575.99
565.556	-75.26
565.761	-136.7
565.965	98.81
566.17	-128.51
566.374	-208.38
566.579	-380.41
566.784	92.67
566.988	-19.97
567.193	-308.73
567.397	-314.88
567.602	-269.82
567.806	61.95
568.011	-226.81
568.215	-171.52
568.42	-91.65
568.624	70.14
568.828	-312.83
569.033	-65.02
569.237	217.6
569.442	193.02
569.646	-298.49
569.85	-259.58
570.055	-17.92
570.259	76.29
570.463	-108.03
570.668	-208.38
570.872	-32.26
571.076	-79.36
571.281	-110.08
571.485	-146.94
571.689	90.62
571.893	266.75
572.098	-163.33
572.302	-251.39
572.506	119.29
572.71	-42.5
572.914	-218.62
573.119	-259.58
573.323	428.54
573.527	317.95
573.731	-298.49
573.935	-398.84
574.139	86.53
574.343	-179.71
574.547	-402.94
574.751	-153.09
574.955	336.38
575.159	305.66
575.364	-251.39
575.568	-337.4
575.772	41.47
575.976	330.23
576.18	-310.78
576.383	-353.79
576.587	320
576.791	217.6
576.995	-437.75
577.199	-425.47
577.403	254.46
577.607	291.32
577.811	-398.84
578.015	-161.28
578.219	35.33
578.422	225.79
578.626	-222.72
578.83	-196.09
579.034	264.7
579.238	119.29
579.442	-314.88
579.645	88.57
579.849	-105.98
580.053	78.33
580.257	-275.96
580.46	-202.24
580.664	317.95
580.868	213.5
581.071	-58.88
581.275	-108.03
581.479	-173.57
581.682	215.55
581.886	-267.77
582.09	-101.89
582.293	154.11
582.497	358.91
582.7	0.51
582.904	-300.54
583.107	2.56
583.311	-103.93
583.515	-185.85
583.718	-202.24
583.922	145.92
584.125	604.66
584.329	-280.06
584.532	-22.02
584.735	346.62
584.939	109.05
585.142	-380.41
585.346	-251.39
585.549	78.33
585.753	-54.78
585.956	-220.67
586.159	-140.8
586.363	428.54
586.566	176.64
586.769	-321.02
586.973	-273.92
587.176	170.49
587.379	266.75
587.582	2.56
587.786	-36.35
587.989	-42.5
588.192	662.01
588.395	-124.41
588.599	25.09
588.802	162.3
589.005	223.74
589.208	-192
589.411	-239.1
589.615	272.89
589.818	401.91
590.021	-50.69
590.224	-83.45
590.427	199.16
590.63	254.46
590.833	-402.94
591.036	-259.58
591.239	-13.82
591.442	-87.55
591.645	-42.5
591.848	-314.88
592.051	82.43
592.254	207.36
592.457	-249.34
592.66	-146.94
592.863	57.86
593.066	102.91
593.269	-212.48
593.472	-58.88
593.675	-89.6
593.878	170.49
594.081	-148.99
594.284	-292.35
594.486	164.35
594.689	-7.68
594.892	-60.93
595.095	-214.52
595.298	184.83
595.5	-32.26
595.703	-134.65
595.906	-71.17
596.109	387.58
596.311	313.85
596.514	-409.08
596.717	-159.23
596.92	389.63
597.122	176.64
597.325	-476.66
597.528	-210.43
597.73	416.25
597.933	64
598.136	-218.62
598.338	-507.38
598.541	154.11
598.743	391.67
598.946	-183.81
599.148	-130.56
599.351	297.47
599.554	178.69
599.756	-48.64
599.959	-194.05
600.161	356.86
600.363	700.92
600.566	84.48
600.768	-288.25
600.971	430.59
601.173	354.81
601.376	-273.92
601.578	-163.33
601.78	190.97
601.983	606.71
602.185	-312.83
602.388	-52.74
602.59	127.49
602.792	-9.73
602.995	-22.02
603.197	-202.24
603.399	313.85
603.601	133.63
603.804	-83.45
604.006	-257.53
604.208	-38.4
604.41	-337.4
604.613	23.04
604.815	-232.96
605.017	530.94
605.219	-130.56
605.421	289.28
605.623	-183.81
605.826	387.58
606.028	475.64
606.23	-181.76
606.432	-140.8
606.634	508.41
606.836	377.34
607.038	-271.87
607.24	-71.17
607.442	109.05
607.644	100.86
607.846	-148.99
608.048	-292.35
608.25	385.53
608.452	-44.54
608.654	-89.6
608.856	-452.09
609.058	23.04
609.26	209.4
609.462	-69.12
609.664	-110.08
609.866	528.89
610.067	266.75
610.269	-44.54
610.471	-132.61
610.673	-26.11
610.875	231.93
611.077	-327.16
611.278	-60.93
611.48	113.15
611.682	592.37
611.884	-157.18
612.085	-179.71
612.287	-116.22
612.489	242.17
612.69	-318.97
612.892	-103.93
613.094	301.56
613.295	141.82
613.497	-325.12
613.699	-99.84
613.9	461.3
614.102	307.71
614.304	-93.69
614.505	-251.39
614.707	64
614.908	16.9
615.11	-312.83
615.311	-73.21
615.513	281.08
615.714	358.91
615.916	-288.25
616.117	-206.33
616.319	27.14
616.52	367.1
616.722	-187.9
616.923	-175.61
617.124	371.19
617.326	227.84
617.527	-62.98
617.729	88.57
617.93	242.17
618.131	274.94
618.333	-187.9
618.534	-134.65
618.735	-126.46
618.937	520.7
619.138	-222.72
619.339	-271.87
619.54	242.17
619.742	35.33
619.943	-17.92
620.144	-169.47
620.345	336.38
620.546	408.06
620.748	-259.58
620.949	-97.79
621.15	180.73
621.351	117.25
621.552	-151.04
621.753	-335.35
621.954	-286.2
622.155	682.49
622.356	-241.15
622.558	80.38
622.759	92.67
622.96	567.8
623.161	-194.05
623.362	-79.36
623.563	88.57
623.764	152.06
623.965	-62.98
624.166	64
624.366	43.52
624.567	252.41
624.768	-462.33
624.969	-189.95
625.17	86.53
625.371	367.1
625.572	-87.55
625.773	-179.71
625.973	285.18
626.174	272.89
626.375	-79.36
626.576	-54.78
626.777	180.73
626.977	651.77
627.178	-183.81
627.379	-67.07
627.58	68.09
627.78	51.71
627.981	-124.41
628.182	-34.3
628.382	330.23
628.583	-273.92
628.784	-296.44
628.984	-7.68
629.185	283.13
629.386	315.9
629.586	-38.4
629.787	-284.16
629.987	303.61
630.188	113.15
630.388	-151.04
630.589	-67.07
630.79	737.78
630.99	152.06
631.191	-97.79
631.391	-44.54
631.591	342.52
631.792	487.93
631.992	-54.78
632.193	-124.41
632.393	592.37
632.594	215.55
632.794	-177.66
632.994	-69.12
633.195	205.31
633.395	166.4
633.595	-132.61
633.796	59.9
633.996	-97.79
634.196	446.97
634.397	-261.63
634.597	-30.21
634.797	-24.06
634.997	504.31
635.198	27.14
635.398	-198.14
635.598	246.27
635.798	428.54
635.998	350.71
636.199	-83.45
636.399	-26.11
636.599	-93.69
636.799	-126.46
636.999	158.21
637.199	246.27
637.399	406.01
637.599	-237.05
637.799	-11.78
637.999	-9.73
638.199	510.46
638.399	-214.52
638.599	-83.45
638.799	340.47
638.999	621.05
639.199	-42.5
639.399	51.71
639.599	518.65
639.799	31.23
639.999	-196.09
640.199	-222.72
640.399	258.56
640.599	293.37
640.799	-11.78
640.998	88.57
641.198	496.12
641.398	266.75
641.598	-48.64
641.798	-58.88
641.997	1114.61
642.197	150.01
642.397	-1.54
642.597	-79.36
642.796	338.43
642.996	543.22
643.196	-5.63
643.395	-222.72
643.595	291.32
643.795	-181.76
643.994	-140.8
644.194	-9.73
644.394	287.23
644.593	170.49
644.793	-269.82
644.992	72.19
645.192	264.7
645.392	-216.57
645.591	12.8
645.791	-46.59
645.99	231.93
646.19	98.81
646.389	-69.12
646.589	-19.97
646.788	348.67
646.987	264.7
647.187	176.64
647.386	123.39
647.586	205.31
647.785	268.8
647.984	-22.02
648.184	-71.17
648.383	141.82
648.582	72.19
648.782	-58.88
648.981	102.91
649.18	-95.74
649.38	199.16
649.579	-103.93
649.778	-77.31
649.977	207.36
650.177	264.7
650.376	-185.85
650.575	-38.4
650.774	469.5
650.973	0.51
651.173	-286.2
651.372	18.94
651.571	250.36
651.77	403.96
651.969	-85.5
652.168	-85.5
652.367	-112.13
652.566	147.97
652.765	-89.6
652.964	190.97
653.163	682.49
653.362	125.44
653.561	-50.69
653.76	-120.32
653.959	47.62
654.158	301.56
654.357	141.82
654.556	37.38
654.755	428.54
654.954	358.91
655.153	-44.54
655.352	-42.5
655.551	397.82
655.749	-15.87
655.948	47.62
656.147	49.66
656.346	264.7
656.545	152.06
656.743	64
656.942	2.56
657.141	141.82
657.34	-22.02
657.538	-30.21
657.737	-112.13
657.936	27.14
658.135	322.04
658.333	-30.21
658.532	96.77
658.731	686.58
658.929	477.69
659.128	301.56
659.326	-67.07
659.525	479.74
659.724	193.02
659.922	-263.68
660.121	-216.57
660.319	393.72
660.518	29.18
660.716	-181.76
660.915	-142.85
661.113	627.19
661.312	-19.97
661.51	121.34
661.709	-93.69
661.907	385.53
662.105	535.03
662.304	-56.83
662.502	-26.11
662.701	502.26
662.899	147.97
663.097	297.47
663.296	-210.43
663.494	436.73
663.692	553.46
663.891	-38.4
664.089	-124.41
664.287	285.18
664.485	532.98
664.684	-161.28
664.882	57.86
665.08	199.16
665.278	305.66
665.476	-179.71
665.675	328.19
665.873	735.73
666.071	406.01
666.269	-28.16
666.467	201.21
666.665	307.71
666.863	242.17
667.061	111.1
667.259	-11.78
667.457	207.36
667.655	324.09
667.853	-138.75
668.051	51.71
668.249	78.33
668.447	412.15
668.645	-140.8
668.843	190.97
669.041	406.01
669.239	184.83
669.437	43.52
669.635	131.58
669.833	117.25
670.031	332.28
670.229	100.86
670.426	96.77
670.624	186.88
670.822	76.29
671.02	-3.58
671.218	125.44
671.415	-56.83
671.613	240.12
671.811	137.73
672.009	23.04
672.206	440.83
672.404	260.6
672.602	248.32
672.799	100.86
672.997	334.33
673.195	524.79
673.392	143.87
673.59	-9.73
673.788	463.35
673.985	-192
674.183	117.25
674.38	59.9
674.578	514.55
674.775	82.43
674.973	-36.35
675.17	14.85
675.368	530.94
675.565	326.14
675.763	-46.59
675.96	-24.06
676.158	530.94
676.355	229.88
676.553	-36.35
676.75	-46.59
676.947	330.23
677.145	252.41
677.342	199.16
677.539	133.63
677.737	281.08
677.934	772.6
678.131	143.87
678.329	6.66
678.526	700.92
678.723	416.25
678.92	90.62
679.118	55.81
679.315	14.85
679.512	612.85
679.709	35.33
679.906	137.73
680.104	512.5
680.301	272.89
680.498	-87.55
680.695	-103.93
680.892	96.77
681.089	221.69
681.286	84.48
681.483	-122.37
681.68	430.59
681.877	440.83
682.075	25.09
682.272	391.67
682.469	363
682.665	190.97
682.862	-65.02
683.059	-114.17
683.256	332.28
683.453	330.23
683.65	137.73
683.847	64
684.044	301.56
684.241	64
684.438	186.88
684.635	-52.74
684.831	713.21
685.028	739.83
685.225	82.43
685.422	225.79
685.619	305.66
685.815	262.65
686.012	104.96
686.209	119.29
686.405	29.18
686.602	461.3
686.799	-24.06
686.996	-5.63
687.192	-30.21
687.389	715.25
687.586	-48.64
687.782	37.38
687.979	686.58
688.175	567.8
688.372	70.14
688.568	29.18
688.765	72.19
688.962	582.14
689.158	170.49
689.355	-30.21
689.551	453.11
689.748	111.1
689.944	160.25
690.14	4.61
690.337	487.93
690.533	211.45
690.73	334.33
690.926	133.63
691.123	440.83
691.319	352.76
691.515	-60.93
691.712	315.9
691.908	428.54
692.104	354.81
692.301	213.5
692.497	0.51
692.693	543.22
692.889	494.07
693.086	334.33
693.282	-32.26
693.478	367.1
693.674	731.64
693.87	68.09
694.067	-46.59
694.263	408.06
694.459	334.33
694.655	260.6
694.851	217.6
695.047	465.4
695.243	543.22
695.439	272.89
695.635	78.33
695.831	502.26
696.027	430.59
696.224	82.43
696.42	358.91
696.615	651.77
696.811	432.63
697.007	-42.5
697.203	53.76
697.399	354.81
697.595	598.52
697.791	59.9
697.987	178.69
698.183	66.05
698.379	154.11
698.575	166.4
698.77	172.54
698.966	575.99
699.162	643.57
699.358	174.59
699.554	199.16
699.749	455.16
699.945	547.32
700.141	215.55
700.337	227.84
700.532	297.47
700.728	188.93
700.924	100.86
701.119	10.75
701.315	592.37
701.511	248.32
701.706	240.12
701.902	-5.63
702.097	332.28
702.293	453.11
702.489	227.84
702.684	135.68
702.88	209.4
703.075	201.21
703.271	231.93
703.466	-42.5
703.662	342.52
703.857	578.04
704.053	117.25
704.248	66.05
704.443	457.21
704.639	475.64
704.834	270.84
705.03	12.8
705.225	635.38
705.42	639.48
705.616	272.89
705.811	-62.98
706.006	274.94
706.202	217.6
706.397	244.22
706.592	27.14
706.787	453.11
706.983	438.78
707.178	399.87
707.373	203.26
707.568	567.8
707.763	625.14
707.959	150.01
708.154	150.01
708.349	424.44
708.544	465.4
708.739	381.43
708.934	27.14
709.129	674.29
709.324	723.44
709.519	61.95
709.714	80.38
709.909	645.62
710.104	412.15
710.299	150.01
710.494	160.25
710.689	571.9
710.884	434.68
711.079	297.47
711.274	420.35
711.469	438.78
711.664	479.74
711.859	125.44
712.054	344.57
712.249	559.61
712.443	676.34
712.638	18.94
712.833	72.19
713.028	428.54
713.223	274.94
713.417	406.01
713.612	170.49
713.807	647.67
714.002	1024.5
714.196	358.91
714.391	186.88
714.586	571.9
714.78	326.14
714.975	162.3
715.17	199.16
715.364	330.23
715.559	684.53
715.754	-73.21
715.948	156.16
716.143	809.46
716.337	332.28
716.532	461.3
716.726	152.06
716.921	567.8
717.115	844.28
717.31	31.23
717.504	682.49
717.699	215.55
717.893	614.9
718.088	64
718.282	39.42
718.476	494.07
718.671	582.14
718.865	162.3
719.059	64
719.254	393.72
719.448	774.64
719.642	1479.15
719.837	35.33
720.031	735.73
720.225	715.25
720.419	309.76
720.614	133.63
720.808	629.24
721.002	363
721.196	119.29
721.39	174.59
721.585	662.01
721.779	553.46
721.973	252.41
722.167	31.23
722.361	494.07
722.555	721.4
722.749	152.06
722.943	121.34
723.137	221.69
723.331	522.74
723.525	174.59
723.719	223.74
723.913	547.32
724.107	774.64
724.301	104.96
724.495	313.85
724.689	827.89
724.883	786.93
725.077	125.44
725.271	193.02
725.465	674.29
725.659	498.17
725.853	252.41
726.046	139.77
726.24	317.95
726.434	743.92
726.628	166.4
726.822	260.6
727.015	725.49
727.209	709.11
727.403	221.69
727.596	66.05
727.79	586.23
727.984	559.61
728.177	168.45
728.371	203.26
728.565	639.48
728.758	158.21
728.952	158.21
729.146	223.74
729.339	633.33
729.533	420.35
729.726	209.4
729.92	174.59
730.113	809.46
730.307	444.92
730.5	317.95
730.694	129.53
730.887	449.02
731.081	639.48
731.274	168.45
731.468	291.32
731.661	453.11
731.854	262.65
732.048	207.36
732.241	64
732.435	352.76
732.628	518.65
732.821	285.18
733.014	176.64
733.208	231.93
733.401	641.53
733.594	215.55
733.788	143.87
733.981	731.64
734.174	530.94
734.367	315.9
734.56	397.82
734.754	700.92
734.947	465.4
735.14	199.16
735.333	166.4
735.526	627.19
735.719	311.8
735.912	152.06
736.105	174.59
736.298	547.32
736.491	354.81
736.684	170.49
736.877	166.4
737.07	537.08
737.263	831.99
737.456	127.49
737.649	119.29
737.842	371.19
738.035	571.9
738.228	297.47
738.421	406.01
738.614	731.64
738.807	637.43
739	117.25
739.192	154.11
739.385	694.77
739.578	670.2
739.771	504.31
739.964	272.89
740.156	596.47
740.349	518.65
740.542	375.29
740.735	137.73
740.927	227.84
741.12	231.93
741.313	195.07
741.505	371.19
741.698	532.98
741.891	522.74
742.083	436.73
742.276	285.18
742.468	526.84
742.661	485.88
742.854	287.23
743.046	291.32
743.239	895.47
743.431	446.97
743.624	244.22
743.816	115.2
744.009	440.83
744.201	651.77
744.393	444.92
744.586	100.86
744.778	748.02
744.971	475.64
745.163	356.86
745.355	401.91
745.548	514.55
745.74	446.97
745.932	315.9
746.125	315.9
746.317	1028.59
746.509	594.42
746.702	371.19
746.894	471.54
747.086	649.72
747.278	791.03
747.471	424.44
747.663	342.52
747.855	504.31
748.047	952.82
748.239	233.98
748.431	203.26
748.623	905.71
748.815	928.24
749.008	180.73
749.2	197.12
749.392	698.87
749.584	653.81
749.776	334.33
749.968	352.76
750.16	995.82
750.352	575.99
750.544	354.81
750.736	221.69
750.928	694.77
751.12	616.95
751.311	356.86
751.503	475.64
751.695	647.67
751.887	530.94
752.079	27.14
752.271	309.76
752.463	1333.74
752.654	731.64
752.846	371.19
753.038	252.41
753.23	471.54
753.421	715.25
753.613	424.44
753.805	586.23
753.997	795.12
754.188	782.84
754.38	182.78
754.572	274.94
754.763	412.15
754.955	733.68
755.146	375.29
755.338	377.34
755.53	725.49
755.721	567.8
755.913	252.41
756.104	211.45
756.296	578.04
756.487	748.02
756.679	139.77
756.87	356.86
757.062	498.17
757.253	682.49
757.445	301.56
757.636	434.68
757.827	551.42
758.019	1149.42
758.21	270.84
758.401	231.93
758.593	1118.7
758.784	874.99
758.975	94.72
759.167	199.16
759.358	637.43
759.549	891.38
759.74	338.43
759.932	227.84
760.123	961.01
760.314	489.98
760.505	516.6
760.696	356.86
760.888	1008.11
761.079	584.18
761.27	215.55
761.461	111.1
761.652	973.3
761.843	506.36
762.034	358.91
762.225	606.71
762.416	555.51
762.607	602.61
762.798	379.39
762.989	256.51
763.18	1327.6
763.371	563.7
763.562	297.47
763.753	410.11
763.944	801.27
764.135	877.04
764.326	494.07
764.517	424.44
764.708	578.04
764.899	711.16
765.089	330.23
765.28	182.78
765.471	616.95
765.662	698.87
765.853	352.76
766.043	184.83
766.234	772.6
766.425	805.36
766.615	418.3
766.806	154.11
766.997	975.35
767.187	686.58
767.378	240.12
767.569	172.54
767.759	731.64
767.95	651.77
768.141	485.88
768.331	248.32
768.522	530.94
768.712	659.96
768.903	307.71
769.093	320
769.284	981.49
769.474	621.05
769.665	268.8
769.855	137.73
770.046	719.35
770.236	438.78
770.426	625.14
770.617	238.08
770.807	739.83
770.998	621.05
771.188	487.93
771.378	340.47
771.569	799.22
771.759	713.21
771.949	248.32
772.139	123.39
772.33	653.81
772.52	946.67
772.71	352.76
772.9	152.06
773.09	1026.54
773.281	934.39
773.471	354.81
773.661	225.79
773.851	801.27
774.041	485.88
774.231	313.85
774.421	489.98
774.611	1038.83
774.802	666.1
774.992	428.54
775.182	248.32
775.372	608.76
775.562	870.9
775.752	272.89
775.942	328.19
776.131	903.67
776.321	813.56
776.511	381.43
776.701	223.74
776.891	862.71
777.081	446.97
777.271	451.07
777.461	338.43
777.651	895.47
777.84	834.04
778.03	444.92
778.22	346.62
778.41	981.49
778.599	430.59
778.789	410.11
778.979	266.75
779.169	823.8
779.358	643.57
779.548	711.16
779.738	154.11
779.927	623.09
780.117	449.02
780.307	305.66
780.496	135.68
780.686	733.68
780.875	1100.27
781.065	340.47
781.254	385.53
781.444	602.61
781.633	616.95
781.823	283.13
782.012	375.29
782.202	498.17
782.391	578.04
782.581	309.76
782.77	535.03
782.96	858.61
783.149	672.25
783.338	387.58
783.528	215.55
783.717	911.86
783.906	956.91
784.096	479.74
784.285	199.16
784.474	567.8
784.663	506.36
784.853	541.18
785.042	457.21
785.231	516.6
785.42	850.42
785.61	459.26
785.799	225.79
785.988	518.65
786.177	594.42
786.366	293.37
786.555	555.51
786.744	973.3
786.933	600.57
787.122	240.12
787.312	195.07
787.501	498.17
787.69	752.12
787.879	307.71
788.068	299.52
788.257	399.87
788.445	449.02
788.634	424.44
788.823	291.32
789.012	1362.41
789.201	1004.02
789.39	410.11
789.579	340.47
789.768	692.73
789.957	739.83
790.145	481.78
790.334	43.52
790.523	653.81
790.712	510.46
790.9	465.4
791.089	225.79
791.278	911.86
791.467	754.16
791.655	598.52
791.844	903.67
792.033	512.5
792.221	559.61
792.41	465.4
792.599	242.17
792.787	879.09
792.976	903.67
793.164	346.62
793.353	330.23
793.541	846.32
793.73	844.28
793.918	496.12
794.107	446.97
794.295	713.21
794.484	805.36
794.672	365.05
794.861	453.11
795.049	829.94
795.238	1124.85
795.426	246.27
795.614	510.46
795.803	778.74
795.991	1006.06
796.179	473.59
796.368	352.76
796.556	981.49
796.744	578.04
796.932	348.67
797.121	289.28
797.309	659.96
797.497	862.71
797.685	457.21
797.874	403.96
798.062	600.57
798.25	993.78
798.438	260.6
798.626	346.62
798.814	893.43
799.002	1176.05
799.19	586.23
799.378	432.63
799.566	930.29
799.755	1130.99
799.943	629.24
800.131	397.82
800.318	737.78
800.506	774.64
800.694	432.63
800.882	594.42
801.07	889.33
801.258	676.34
801.446	424.44
801.634	358.91
801.822	764.4
802.01	604.66
802.197	358.91
802.385	549.37
802.573	805.36
802.761	510.46
802.949	535.03
803.136	227.84
803.324	936.43
803.512	670.2
803.699	588.28
803.887	250.36
804.075	969.2
804.262	627.19
804.45	242.17
804.638	498.17
804.825	551.42
805.013	575.99
805.201	463.35
805.388	330.23
805.576	719.35
805.763	1034.74
805.951	360.95
806.138	616.95
806.326	1159.66
806.513	911.86
806.701	578.04
806.888	334.33
807.075	799.22
807.263	1223.15
807.45	301.56
807.638	672.25
807.825	1290.73
808.012	948.72
808.2	578.04
808.387	719.35
808.574	823.8
808.761	1075.7
808.949	313.85
809.136	600.57
809.323	680.44
809.51	678.39
809.698	723.44
809.885	608.76
810.072	846.32
810.259	1053.17
810.446	596.47
810.633	469.5
810.82	993.78
811.008	1087.98
811.195	682.49
811.382	590.33
811.569	690.68
811.756	481.78
811.943	569.85
812.13	367.1
812.317	684.53
812.504	678.39
812.691	602.61
812.878	668.15
813.064	1169.9
813.251	756.21
813.438	365.05
813.625	686.58
813.812	637.43
813.999	807.41
814.186	563.7
814.372	588.28
814.559	793.08
814.746	1239.53
814.933	526.84
815.12	752.12
815.306	711.16
815.493	614.9
815.68	532.98
815.866	518.65
816.053	1081.84
816.24	1317.36
816.426	647.67
816.613	401.91
816.799	1006.06
816.986	1116.65
817.173	539.13
817.359	481.78
817.546	768.5
817.732	416.25
817.919	287.23
818.105	567.8
818.292	702.97
818.478	973.3
818.665	662.01
818.851	494.07
819.037	1452.52
819.224	938.48
819.41	489.98
819.597	467.45
819.783	1255.92
819.969	1026.54
820.156	682.49
820.342	518.65
820.528	1505.77
820.714	666.1
820.901	733.68
821.087	619
821.273	1141.23
821.459	834.04
821.646	543.22
821.832	356.86
822.018	823.8
822.204	842.23
822.39	532.98
822.576	469.5
822.762	971.25
822.948	786.93
823.134	823.8
823.32	610.81
823.507	619
823.693	920.05
823.879	965.11
824.065	614.9
824.25	961.01
824.436	526.84
824.622	643.57
824.808	455.16
824.994	694.77
825.18	649.72
825.366	518.65
825.552	535.03
825.738	776.69
825.923	1016.3
826.109	823.8
826.295	492.02
826.481	676.34
826.667	723.44
826.852	788.98
827.038	504.31
827.224	1098.22
827.409	1339.88
827.595	406.01
827.781	682.49
827.966	1038.83
828.152	1122.8
828.338	649.72
828.523	406.01
828.709	731.64
828.894	1194.48
829.08	625.14
829.266	575.99
829.451	741.88
829.637	969.2
829.822	664.05
830.008	479.74
830.193	1030.64
830.378	1212.91
830.564	694.77
830.749	506.36
830.935	1092.08
831.12	999.92
831.305	612.85
831.491	739.83
831.676	530.94
831.861	954.87
832.047	559.61
832.232	483.83
832.417	1034.74
832.602	840.18
832.788	575.99
832.973	567.8
833.158	864.75
833.343	850.42
833.528	756.21
833.714	584.18
833.899	971.25
834.084	1333.74
834.269	758.26
834.454	616.95
834.639	1067.5
834.824	829.94
835.009	645.62
835.194	735.73
835.379	981.49
835.564	1178.09
835.749	731.64
835.934	395.77
836.119	1073.65
836.304	803.32
836.489	559.61
836.674	913.91
836.859	709.11
837.044	1249.77
837.228	530.94
837.413	481.78
837.598	979.44
837.783	1174
837.968	641.53
838.152	537.08
838.337	555.51
838.522	1194.48
838.707	1124.85
838.891	809.46
839.076	993.78
839.261	1135.09
839.445	645.62
839.63	723.44
839.815	1337.84
839.999	801.27
840.184	616.95
840.368	664.05
840.553	1120.75
840.737	1153.52
840.922	530.94
841.106	535.03
841.291	588.28
841.475	913.91
841.66	711.16
841.844	692.73
842.029	1612.26
842.213	711.16
842.397	612.85
842.582	563.7
842.766	1208.81
842.951	1174
843.135	619
843.319	610.81
843.504	967.15
843.688	1257.96
843.872	516.6
844.056	535.03
844.241	999.92
844.425	825.84
844.609	780.79
844.793	403.96
844.977	1157.61
845.161	938.48
845.346	530.94
845.53	725.49
845.714	1004.02
845.898	1280.49
846.082	434.68
846.266	662.01
846.45	883.19
846.634	918
846.818	633.33
847.002	696.82
847.186	1020.4
847.37	604.66
847.554	522.74
847.738	772.6
847.922	985.58
848.106	973.3
848.29	461.3
848.473	731.64
848.657	1083.89
848.841	864.75
849.025	580.09
849.209	453.11
849.392	981.49
849.576	840.18
849.76	434.68
849.944	815.6
850.127	1270.25
850.311	575.99
850.495	438.78
850.678	367.1
850.862	1249.77
851.046	1231.34
851.229	879.09
851.413	575.99
851.596	877.04
851.78	862.71
851.964	834.04
852.147	582.14
852.331	1645.03
852.514	1276.4
852.698	645.62
852.881	555.51
853.065	1106.42
853.248	817.65
853.431	788.98
853.615	782.84
853.798	1520.1
853.982	1059.31
854.165	930.29
854.348	584.18
854.532	758.26
854.715	750.07
854.898	717.3
855.081	645.62
855.265	1323.5
855.448	1282.54
855.631	700.92
855.814	543.22
855.997	1151.47
856.181	836.08
856.364	758.26
856.547	539.13
856.73	991.73
856.913	981.49
857.096	584.18
857.279	758.26
857.462	844.28
857.645	1143.28
857.828	684.53
858.011	772.6
858.194	725.49
858.377	1055.22
858.56	555.51
858.743	621.05
858.926	786.93
859.109	1167.85
859.292	612.85
859.475	573.94
859.658	1194.48
859.841	1149.42
860.023	606.71
860.206	537.08
860.389	887.28
860.572	1290.73
860.755	739.83
860.937	565.75
861.12	909.81
861.303	954.87
861.486	705.01
861.668	477.69
861.851	1141.23
862.034	1042.93
862.216	698.87
862.399	440.83
862.581	1010.16
862.764	1337.84
862.947	721.4
863.129	588.28
863.312	594.42
863.494	1325.55
863.677	981.49
863.859	436.73
864.042	1135.09
864.224	1272.3
864.406	735.73
864.589	512.5
864.771	1026.54
864.954	758.26
865.136	643.57
865.318	436.73
865.501	1161.71
865.683	481.78
865.865	608.76
866.048	588.28
866.23	950.77
866.412	911.86
866.594	449.02
866.777	772.6
866.959	1122.8
867.141	788.98
867.323	891.38
867.505	735.73
867.687	961.01
867.869	862.71
868.052	567.8
868.234	590.33
868.416	831.99
868.598	1135.09
868.78	696.82
868.962	569.85
869.144	1206.77
869.326	1198.57
869.508	676.34
869.69	590.33
869.872	819.7
870.054	1231.34
870.236	530.94
870.417	662.01
870.599	905.71
870.781	1282.54
870.963	780.79
871.145	641.53
871.327	653.81
871.508	1067.5
871.69	614.9
871.872	666.1
872.054	940.53
872.235	1036.78
872.417	748.02
872.599	557.56
872.78	1165.81
872.962	995.82
873.144	463.35
873.325	647.67
873.507	1225.2
873.689	987.63
873.87	530.94
874.052	719.35
874.233	817.65
874.415	1133.04
874.596	729.59
874.778	516.6
874.959	1040.88
875.141	1223.15
875.322	745.97
875.503	676.34
875.685	1106.42
875.866	553.46
876.048	608.76
876.229	522.74
876.41	915.95
876.592	946.67
876.773	680.44
876.954	477.69
877.136	1270.25
877.317	741.88
877.498	440.83
877.679	817.65
877.86	1044.98
878.042	924.15
878.223	641.53
878.404	965.11
878.585	1106.42
878.766	1362.41
878.947	969.2
879.128	903.67
879.309	1108.46
879.49	1202.67
879.672	793.08
879.853	760.31
880.034	670.2
880.215	930.29
880.396	666.1
880.576	725.49
880.757	807.41
880.938	1280.49
881.119	653.81
881.3	637.43
881.481	756.21
881.662	1729
881.843	596.47
882.023	510.46
882.204	993.78
882.385	1001.97
882.566	707.06
882.747	621.05
882.927	930.29
883.108	1110.51
883.289	643.57
883.469	836.08
883.65	854.51
883.831	973.3
884.011	840.18
884.192	741.88
884.373	1245.68
884.553	1169.9
884.734	895.47
884.914	1036.78
885.095	1589.74
885.275	1481.19
885.456	1042.93
885.636	588.28
885.817	952.82
885.997	1001.97
886.178	748.02
886.358	856.56
886.538	1118.7
886.719	2021.86
886.899	668.15
887.08	823.8
887.26	1268.2
887.44	825.84
887.621	692.73
887.801	899.57
887.981	1669.61
888.161	1247.72
888.342	815.6
888.522	782.84
888.702	1194.48
888.882	1335.79
889.062	952.82
889.242	563.7
889.423	1493.48
889.603	1188.33
889.783	911.86
889.963	788.98
890.143	1300.97
890.323	1331.69
890.503	764.4
890.683	881.14
890.863	1137.13
891.043	1155.57
891.223	821.75
891.403	1032.69
891.583	1135.09
891.763	1116.65
891.943	817.65
892.122	705.01
892.302	1110.51
892.482	1004.02
892.662	907.76
892.842	784.88
893.022	1227.25
893.201	985.58
893.381	967.15
893.561	741.88
893.741	1255.92
893.92	1239.53
894.1	944.63
894.28	958.96
894.459	1225.2
894.639	1151.47
894.819	911.86
894.998	989.68
895.178	1090.03
895.357	1206.77
895.537	836.08
895.716	637.43
895.896	1087.98
896.075	1446.38
896.255	840.18
896.434	760.31
896.614	1337.84
896.793	1421.8
896.973	1034.74
897.152	963.06
897.331	1245.68
897.511	1341.93
897.69	702.97
897.87	1018.35
898.049	1245.68
898.228	1147.37
898.407	1034.74
898.587	1036.78
898.766	885.23
898.945	1212.91
899.124	1126.89
899.304	1012.21
899.483	1391.08
899.662	1681.89
899.841	782.84
900.02	840.18
900.199	1395.18
900.378	1219.05
900.557	809.46
900.737	674.29
900.916	1092.08
901.095	1386.99
901.274	1075.7
901.453	752.12
901.632	1001.97
901.811	1006.06
901.989	874.99
902.168	840.18
902.347	1358.32
902.526	993.78
902.705	934.39
902.884	991.73
903.063	1540.58
903.242	1405.42
903.42	852.47
903.599	969.2
903.778	1436.14
903.957	1429.99
904.135	971.25
904.314	944.63
904.493	1264.11
904.672	1346.03
904.85	870.9
905.029	862.71
905.207	1223.15
905.386	1833.44
905.565	731.64
905.743	872.95
905.922	1118.7
906.1	1327.6
906.279	745.97
906.457	838.13
906.636	1040.88
906.814	973.3
906.993	934.39
907.171	881.14
907.35	1350.12
907.528	1464.81
907.707	1096.18
907.885	887.28
908.063	1616.36
908.242	922.1
908.42	946.67
908.598	731.64
908.777	1253.87
908.955	1087.98
909.133	1081.84
909.311	821.75
909.49	1077.74
909.668	1081.84
909.846	920.05
910.024	680.44
910.202	1178.09
910.38	1128.94
910.559	819.7
910.737	870.9
910.915	1210.86
911.093	1280.49
911.271	936.43
911.449	1061.36
911.627	1284.59
911.805	1550.82
911.983	903.67
912.161	809.46
912.339	1282.54
912.517	1460.71
912.695	985.58
912.872	831.99
913.05	907.76
913.228	1200.62
913.406	797.17
913.584	803.32
913.762	1352.17
913.939	928.24
914.117	799.22
914.295	801.27
914.473	1202.67
914.65	1206.77
914.828	799.22
915.006	748.02
915.184	797.17
915.361	1182.19
915.539	1024.5
915.716	987.63
915.894	1190.38
916.072	1370.6
916.249	1059.31
916.427	1001.97
916.604	887.28
916.782	1214.96
916.959	664.05
917.137	930.29
917.314	1243.63
917.492	1237.49
917.669	1032.69
917.847	965.11
918.024	1075.7
918.201	944.63
918.379	915.95
918.556	891.38
918.733	1260.01
918.911	1098.22
919.088	1098.22
919.265	813.56
919.442	1255.92
919.62	1059.31
919.797	743.92
919.974	762.36
920.151	1067.5
920.328	1130.99
920.506	729.59
920.683	1092.08
920.86	907.76
921.037	944.63
921.214	817.65
921.391	705.01
921.568	1284.59
921.745	932.34
921.922	858.61
922.099	698.87
922.276	1298.92
922.453	1178.09
922.63	764.4
922.807	1174
922.984	1143.28
923.161	936.43
923.338	782.84
923.514	672.25
923.691	1141.23
923.868	1206.77
924.045	772.6
924.222	719.35
924.399	1118.7
924.575	1335.79
924.752	850.42
924.929	797.17
925.105	1128.94
925.282	868.85
925.459	854.51
925.635	854.51
925.812	1147.37
925.989	997.87
926.165	891.38
926.342	539.13
926.518	780.79
926.695	1182.19
926.871	809.46
927.048	739.83
927.224	1251.82
927.401	860.66
927.577	829.94
927.754	657.91
927.93	1198.57
928.107	1147.37
928.283	811.51
928.459	915.95
928.636	1020.4
928.812	907.76
928.988	647.67
929.165	612.85
929.341	944.63
929.517	1063.41
929.693	1122.8
929.87	563.7
930.046	1092.08
930.222	924.15
930.398	645.62
930.574	883.19
930.751	944.63
930.927	883.19
931.103	831.99
931.279	770.55
931.455	692.73
931.631	1094.13
931.807	592.37
931.983	588.28
932.159	655.86
932.335	997.87
932.511	715.25
932.687	688.63
932.863	1055.22
933.039	977.39
933.215	584.18
933.391	551.42
933.566	879.09
933.742	893.43
933.918	666.1
934.094	485.88
934.27	915.95
934.445	920.05
934.621	748.02
934.797	578.04
934.973	1042.93
935.148	913.91
935.324	541.18
935.5	422.39
935.675	1116.65
935.851	963.06
936.027	594.42
936.202	608.76
936.378	963.06
936.553	698.87
936.729	1108.46
936.904	479.74
937.08	453.11
937.255	649.72
937.431	506.36
937.606	367.1
937.782	602.61
937.957	723.44
938.133	575.99
938.308	428.54
938.483	662.01
938.659	506.36
938.834	610.81
939.009	399.87
939.185	625.14
939.36	516.6
939.535	70.14
939.71	608.76
939.886	829.94
940.061	838.13
940.236	625.14
940.411	358.91
940.586	670.2
940.761	838.13
940.937	416.25
941.112	332.28
941.287	635.38
941.462	649.72
941.637	276.99
941.812	389.63
941.987	682.49
942.162	649.72
942.337	408.06
942.512	248.32
942.687	852.47
942.862	649.72
943.037	289.28
943.212	178.69
943.386	514.55
943.561	573.94
943.736	461.3
943.911	641.53
944.086	629.24
944.26	649.72
944.435	334.33
944.61	420.35
944.785	926.19
944.959	963.06
945.134	391.67
945.309	197.12
945.483	363
945.658	848.37
945.833	150.01
946.007	233.98
946.182	940.53
946.357	297.47
946.531	231.93
946.706	166.4
946.88	178.69
947.055	571.9
947.229	254.46
947.404	301.56
947.578	766.45
947.752	455.16
947.927	205.31
948.101	186.88
948.276	580.09
948.45	553.46
948.624	414.2
948.799	285.18
948.973	707.06
949.147	219.64
949.321	229.88
949.496	260.6
949.67	793.08
949.844	434.68
950.018	367.1
950.193	346.62
950.367	1094.13
950.541	438.78
950.715	465.4
950.889	508.41
951.063	354.81
951.237	621.05
951.411	121.34
951.585	143.87
951.759	610.81
951.933	432.63
952.107	242.17
952.281	432.63
952.455	963.06
952.629	715.25
952.803	274.94
952.977	186.88
953.151	705.01
953.325	578.04
953.499	424.44
953.672	88.57
953.846	303.61
954.02	422.39
954.194	219.64
954.368	240.12
954.541	678.39
954.715	381.43
954.889	313.85
955.062	236.03
955.236	526.84
955.41	389.63
955.583	387.58
955.757	107.01
955.93	395.77
956.104	150.01
956.278	313.85
956.451	268.8
956.625	684.53
956.798	924.15
956.972	532.98
957.145	184.83
957.319	584.18
957.492	449.02
957.665	461.3
957.839	225.79
958.012	664.05
958.185	313.85
958.359	377.34
958.532	485.88
958.705	772.6
958.879	600.57
959.052	231.93
959.225	84.48
959.398	432.63
959.572	567.8
959.745	289.28
959.918	313.85
960.091	492.02
960.264	680.44
960.438	27.14
960.611	231.93
960.784	743.92
960.957	342.52
961.13	690.68
961.303	119.29
961.476	526.84
961.649	686.58
961.822	195.07
961.995	391.67
962.168	627.19
962.341	659.96
962.514	170.49
962.686	199.16
962.859	580.09
963.032	588.28
963.205	254.46
963.378	90.62
963.551	602.61
963.723	559.61
963.896	330.23
964.069	403.96
964.242	666.1
964.414	659.96
964.587	334.33
964.76	371.19
964.932	582.14
965.105	479.74
965.278	317.95
965.45	264.7
965.623	571.9
965.795	602.61
965.968	260.6
966.14	285.18
966.313	406.01
966.485	514.55
966.658	289.28
966.83	266.75
967.003	846.32
967.175	725.49
967.348	240.12
967.52	203.26
967.692	897.52
967.865	643.57
968.037	289.28
968.209	627.19
968.382	522.74
968.554	682.49
968.726	240.12
968.898	356.86
969.071	559.61
969.243	629.24
969.415	344.57
969.587	313.85
969.759	958.96
969.932	733.68
970.104	330.23
970.276	96.77
970.448	420.35
970.62	332.28
970.792	377.34
970.964	389.63
971.136	1001.97
971.308	633.33
971.48	141.82
971.652	240.12
971.824	932.34
971.996	479.74
972.168	317.95
972.339	346.62
972.511	793.08
972.683	518.65
972.855	496.12
973.027	389.63
973.199	539.13
973.37	672.25
973.542	496.12
973.714	469.5
973.886	530.94
974.057	670.2
974.229	168.45
974.401	184.83
974.572	217.6
974.744	139.77
974.915	270.84
975.087	201.21
975.259	811.51
975.43	367.1
975.602	219.64
975.773	133.63
975.945	315.9
976.116	719.35
976.288	238.08
976.459	432.63
976.63	389.63
976.802	668.15
976.973	254.46
977.145	334.33
977.316	971.25
977.487	592.37
977.659	391.67
977.83	264.7
978.001	905.71
978.172	518.65
978.344	199.16
978.515	297.47
978.686	399.87
978.857	764.4
979.028	248.32
979.2	166.4
979.371	709.11
979.542	561.66
979.713	406.01
979.884	-128.51
980.055	354.81
980.226	451.07
980.397	143.87
980.568	154.11
980.739	727.54
980.91	422.39
981.081	399.87
981.252	64
981.423	616.95
981.594	623.09
981.765	143.87
981.936	338.43
982.106	483.83
982.277	723.44
982.448	203.26
982.619	506.36
982.79	424.44
982.96	668.15
983.131	305.66
983.302	92.67
983.472	471.54
983.643	543.22
983.814	403.96
983.984	211.45
984.155	434.68
984.326	659.96
984.496	444.92
984.667	283.13
984.837	332.28
985.008	774.64
985.178	393.72
985.349	246.27
985.519	449.02
985.69	301.56
985.86	297.47
986.031	94.72
986.201	563.7
986.371	696.82
986.542	150.01
986.712	6.66
986.882	684.53
987.053	592.37
987.223	168.45
987.393	342.52
987.563	324.09
987.734	621.05
987.904	530.94
988.074	197.12
988.244	543.22
988.414	371.19
988.585	199.16
988.755	352.76
988.925	524.79
989.095	854.51
989.265	152.06
989.435	260.6
989.605	584.18
989.775	639.48
989.945	440.83
990.115	70.14
990.285	395.77
990.455	498.17
990.625	270.84
990.795	190.97
990.965	805.36
991.134	119.29
991.304	145.92
991.474	188.93
991.644	575.99
991.814	889.33
991.984	61.95
992.153	129.53
992.323	367.1
992.493	475.64
992.662	-46.59
992.832	291.32
993.002	420.35
993.171	465.4
993.341	-38.4
993.511	264.7
993.68	270.84
993.85	543.22
994.019	55.81
994.189	23.04
994.358	498.17
994.528	238.08
994.697	-118.27
994.867	31.23
995.036	651.77
995.206	330.23
995.375	78.33
995.544	236.03
995.714	510.46
995.883	414.2
996.052	281.08
996.222	-81.41
996.391	836.08
996.56	532.98
996.73	37.38
996.899	-1.54
997.068	819.7
997.237	395.77
997.406	0.51
997.576	12.8
997.745	463.35
997.914	414.2
998.083	-112.13
998.252	31.23
998.421	350.71
998.59	293.37
998.759	8.7
998.928	-54.78
999.097	715.25
999.266	418.3
999.435	289.28
999.604	-67.07
999.773	809.46
999.942	309.76
1000.111	-71.17
1000.28	-38.4
1000.448	45.57
1000.617	166.4
1000.786	248.32
1000.955	8.7
1001.124	424.44
1001.292	997.87
1001.461	53.76
1001.63	14.85
1001.798	723.44
1001.967	600.57
1002.136	-85.5
1002.304	70.14
1002.473	422.39
1002.642	418.3
1002.81	139.77
1002.979	59.9
1003.147	606.71
1003.316	895.47
1003.484	64
1003.653	-3.58
1003.821	545.27
1003.99	346.62
1004.158	184.83
1004.327	125.44
1004.495	406.01
1004.663	190.97
1004.832	125.44
1005	-116.22
1005.168	438.78
1005.337	348.67
1005.505	-52.74
1005.673	199.16
1005.842	420.35
1006.01	537.08
1006.178	-77.31
1006.346	45.57
1006.514	459.26
1006.683	590.33
1006.851	-60.93
1007.019	-124.41
1007.187	158.21
1007.355	-19.97
1007.523	-132.61
1007.691	-114.17
1007.859	80.38
1008.027	643.57
1008.195	88.57
1008.363	-87.55
1008.531	457.21
1008.699	184.83
1008.867	-157.18
1009.035	-7.68
1009.203	643.57
1009.37	303.61
1009.538	90.62
1009.706	426.49
1009.874	358.91
1010.042	283.13
1010.209	-22.02
1010.377	-77.31
1010.545	477.69
1010.713	414.2
1010.88	-75.26
1011.048	27.14
1011.216	193.02
1011.383	643.57
1011.551	-46.59
1011.718	-103.93
1011.886	537.08
1012.054	285.18
1012.221	-75.26
1012.389	-60.93
1012.556	309.76
1012.724	737.78
1012.891	70.14
1013.058	-183.81
1013.226	436.73
1013.393	545.27
1013.561	-163.33
1013.728	-200.19
1013.895	541.18
1014.063	301.56
1014.23	-103.93
1014.397	-40.45
1014.565	502.26
1014.732	223.74
1014.899	10.75
1015.066	-38.4
1015.233	363
1015.401	545.27
1015.568	-42.5
1015.735	139.77
1015.902	328.19
1016.069	463.35
1016.236	-79.36
1016.403	-112.13
1016.57	145.92
1016.737	512.5
1016.904	31.23
1017.071	-161.28
1017.238	84.48
1017.405	535.03
1017.572	-34.3
1017.739	174.59
1017.906	346.62
1018.073	522.74
1018.24	-216.57
1018.407	14.85
1018.573	492.02
1018.74	240.12
1018.907	59.9
1019.074	-196.09
1019.241	592.37
1019.407	291.32
1019.574	-56.83
1019.741	-142.85
1019.907	444.92
1020.074	428.54
1020.241	-181.76
1020.407	-206.33
1020.574	367.1
1020.74	444.92
1020.907	10.75
1021.073	-169.47
1021.24	838.13
1021.406	653.81
1021.573	-192
1021.739	-132.61
1021.906	621.05
1022.072	180.73
1022.239	-11.78
1022.405	-54.78
1022.571	383.48
1022.738	88.57
1022.904	-114.17
1023.07	55.81
1023.237	287.23
1023.403	461.3
1023.569	-13.82
1023.735	14.85
1023.902	315.9
1024.068	428.54
1024.234	-177.66
1024.4	-105.98
1024.566	350.71
1024.732	483.83
1024.898	-138.75
1025.065	-284.16
1025.231	541.18
1025.397	252.41
1025.563	4.61
1025.729	-181.76
1025.895	-126.46
1026.061	12.8
1026.227	-165.37
1026.392	-116.22
1026.558	516.6
1026.724	391.67
1026.89	-128.51
1027.056	-30.21
1027.222	317.95
1027.388	231.93
1027.553	-56.83
1027.719	-134.65
1027.885	758.26
1028.051	414.2
1028.216	-316.92
1028.382	-22.02
1028.548	436.73
1028.713	201.21
1028.879	-216.57
1029.045	51.71
1029.21	580.09
1029.376	526.84
1029.541	-13.82
1029.707	-38.4
1029.873	467.45
1030.038	465.4
1030.204	-116.22
1030.369	-30.21
1030.534	514.55
1030.7	186.88
1030.865	-67.07
1031.031	-165.37
1031.196	354.81
1031.361	317.95
1031.527	-130.56
1031.692	-108.03
1031.857	-146.94
1032.023	334.33
1032.188	-216.57
1032.353	-79.36
1032.518	678.39
1032.684	360.95
1032.849	-329.21
1033.014	-34.3
1033.179	444.92
1033.344	346.62
1033.509	-22.02
1033.674	-120.32
1033.839	315.9
1034.004	414.2
1034.17	-155.13
1034.335	-214.52
1034.5	125.44
1034.664	139.77
1034.829	-185.85
1034.994	-177.66
1035.159	340.47
1035.324	352.76
1035.489	-116.22
1035.654	-214.52
1035.819	483.83
1035.984	356.86
1036.148	-73.21
1036.313	-79.36
1036.478	477.69
1036.643	193.02
1036.807	-142.85
1036.972	-69.12
1037.137	557.56
1037.301	315.9
1037.466	-267.77
1037.631	-79.36
1037.795	518.65
1037.96	338.43
1038.124	53.76
1038.289	-120.32
1038.454	403.96
1038.618	340.47
1038.783	-62.98
1038.947	-46.59
1039.111	293.37
1039.276	188.93
1039.44	-163.33
1039.605	395.77
1039.769	174.59
1039.933	203.26
1040.098	-99.84
1040.262	178.69
1040.426	500.22
1040.591	500.22
1040.755	-183.81
1040.919	-128.51
1041.083	461.3
1041.248	203.26
1041.412	-290.3
1041.576	-218.62
1041.74	260.6
1041.904	547.32
1042.068	-208.38
1042.232	-17.92
1042.397	449.02
1042.561	363
1042.725	-286.2
1042.889	-60.93
1043.053	416.25
1043.217	508.41
1043.381	-34.3
1043.544	-200.19
1043.708	524.79
1043.872	55.81
1044.036	-290.3
1044.2	-226.81
1044.364	612.85
1044.528	582.14
1044.691	4862.39
1044.855	-263.68
1045.019	483.83
1045.183	485.88
1045.346	14.85
1045.51	-235
1045.674	350.71
1045.837	416.25
1046.001	-97.79
1046.165	-69.12
1046.328	868.85
1046.492	383.48
1046.655	78.33
1046.819	6.66
1046.983	158.21
1047.146	416.25
1047.31	-19.97
1047.473	-218.62
1047.636	358.91
1047.8	57.86
1047.963	-46.59
1048.127	-136.7
1048.29	127.49
