Data from Ink_Intensity_USB4F045381__21__00021.txt Node

Date: Mon Jul 17 09:43:29 EDT 2023
User: mmckonesweet
Spectrometer: USB4F04538
Trigger mode: 4
Integration Time (sec): 9.000000E-1
Scans to average: 1
Electric dark correction enabled: true
Nonlinearity correction enabled: false
Boxcar width: 0
XAxis mode: Wavelengths
Number of Pixels in Spectrum: 3648
>>>>>Begin Spectral Data<<<<<
345.52	-960.67
345.736	-960.67
345.952	-960.67
346.168	-1018.01
346.384	-954.52
346.6	-84.14
346.816	-245.93
347.032	-219.3
347.248	229.2
347.464	-168.1
347.68	-37.03
347.896	132.95
348.112	409.42
348.328	-92.33
348.544	-71.85
348.76	-57.51
348.975	204.63
349.191	-217.26
349.407	-159.91
349.623	-30.89
349.839	-45.23
350.055	-114.86
350.27	-49.32
350.486	143.19
350.702	360.27
350.918	278.35
351.133	-198.82
351.349	114.52
351.565	376.66
351.781	-135.34
351.996	-39.08
352.212	364.37
352.428	-168.1
352.644	-258.21
352.859	-276.65
353.075	329.55
353.291	-57.51
353.506	-145.58
353.722	-182.44
353.938	-71.85
354.153	358.22
354.369	44.88
354.584	-237.74
354.8	225.11
355.016	-270.5
355.231	-194.73
355.447	-61.61
355.662	63.32
355.878	837.45
356.093	-286.89
356.309	-65.71
356.524	-221.35
356.74	202.58
356.955	-194.73
357.171	8.02
357.386	16.21
357.602	-356.52
357.817	-86.19
358.033	-121
358.248	304.98
358.464	145.24
358.679	-108.71
358.895	-362.66
359.11	-12.46
359.325	384.85
359.541	309.07
359.756	1.88
359.972	-323.75
360.187	151.38
360.402	-159.91
360.618	-166.06
360.833	958.28
361.048	178
361.264	-213.16
361.479	-16.55
361.694	-88.23
361.909	139.09
362.125	-202.92
362.34	-69.8
362.555	268.11
362.77	-8.36
362.986	-274.6
363.201	-233.64
363.416	112.47
363.631	-65.71
363.847	-118.95
364.062	-211.11
364.277	190.29
364.492	106.32
364.707	-161.96
364.922	-354.47
365.138	204.63
365.353	343.89
365.568	-207.02
365.783	-116.9
365.998	14.17
366.213	468.81
366.428	-358.57
366.643	28.5
366.858	288.59
367.073	147.28
367.288	-161.96
367.503	-194.73
367.718	153.43
367.933	257.87
368.148	-204.97
368.363	-104.62
368.578	-94.38
368.793	479.05
369.008	-180.39
369.223	-278.69
369.438	141.14
369.653	374.61
369.868	-229.54
370.083	-186.54
370.298	98.13
370.513	339.79
370.728	71.51
370.943	-213.16
371.157	-176.3
371.372	466.77
371.587	-194.73
371.802	-295.08
372.017	-0.17
372.232	456.53
372.446	1.88
372.661	-147.62
372.876	171.86
373.091	104.28
373.306	-141.48
373.52	-270.5
373.735	-174.25
373.95	337.74
374.165	-73.9
374.379	-22.7
374.594	-151.72
374.809	85.84
375.023	100.18
375.238	-229.54
375.453	196.43
375.667	-338.09
375.882	-82.09
376.097	-157.86
376.311	-26.79
376.526	57.17
376.741	-235.69
376.955	98.13
377.17	579.4
377.384	601.93
377.599	-65.71
377.813	-192.68
378.028	542.54
378.242	143.19
378.457	-82.09
378.672	-282.79
378.886	155.47
379.101	-55.47
379.315	-293.03
379.53	-147.62
379.744	163.67
379.958	173.91
380.173	-94.38
380.387	-247.97
380.602	206.67
380.816	-145.58
381.031	-73.9
381.245	-194.73
381.459	122.71
381.674	2438.96
381.888	-297.13
382.103	120.66
382.317	-135.34
382.531	511.82
382.746	-47.27
382.96	-157.86
383.174	-155.82
383.388	350.03
383.603	98.13
383.817	-282.79
384.031	147.28
384.246	448.33
384.46	-6.31
384.674	253.78
384.888	10.07
385.103	32.6
385.317	-225.45
385.531	3.93
385.745	249.68
385.959	251.73
386.174	-155.82
386.388	-241.83
386.602	-8.36
386.816	-151.72
387.03	-73.9
387.244	-53.42
387.458	-10.41
387.672	388.94
387.887	-192.68
388.101	-266.41
388.315	356.18
388.529	73.56
388.743	-164.01
388.957	-198.82
389.171	354.13
389.385	-301.22
389.599	-118.95
389.813	57.17
390.027	53.08
390.241	626.51
390.455	-166.06
390.669	-71.85
390.883	-63.66
391.097	319.31
391.311	51.03
391.525	-127.14
391.738	128.85
391.952	186.19
392.166	40.79
392.38	-188.58
392.594	239.44
392.808	304.98
393.022	-39.08
393.236	-77.99
393.449	206.67
393.663	114.52
393.877	-329.89
394.091	-65.71
394.305	-137.38
394.518	-172.2
394.732	-241.83
394.946	-67.75
395.16	421.71
395.373	87.89
395.587	-239.78
395.801	-143.53
396.015	362.32
396.228	149.33
396.442	-231.59
396.656	-256.17
396.869	276.31
397.083	520.01
397.297	-20.65
397.51	-188.58
397.724	390.99
397.938	212.82
398.151	-282.79
398.365	-260.26
398.578	243.54
398.792	319.31
399.005	22.36
399.219	-100.52
399.433	141.14
399.646	241.49
399.86	42.84
400.073	61.27
400.287	171.86
400.5	-92.33
400.714	22.36
400.927	-80.04
401.141	216.91
401.354	1003.33
401.567	147.28
401.781	-221.35
401.994	282.45
402.208	622.41
402.421	-84.14
402.635	-51.37
402.848	55.12
403.061	315.22
403.275	-16.55
403.488	-151.72
403.701	431.95
403.915	214.87
404.128	69.46
404.341	-159.91
404.555	243.54
404.768	63.32
404.981	71.51
405.195	-106.67
405.408	491.34
405.621	145.24
405.834	104.28
406.048	-149.67
406.261	466.77
406.474	411.47
406.687	-198.82
406.9	65.36
407.114	67.41
407.327	175.95
407.54	-301.22
407.753	-256.17
407.966	-114.86
408.179	237.39
408.392	-147.62
408.605	-233.64
408.819	223.06
409.032	214.87
409.245	-106.67
409.458	89.94
409.671	249.68
409.884	315.22
410.097	-299.17
410.31	106.32
410.523	178
410.736	20.31
410.949	-41.13
411.162	-53.42
411.375	466.77
411.588	325.46
411.801	32.6
412.014	-69.8
412.227	91.99
412.44	-57.51
412.653	-92.33
412.865	89.94
413.078	319.31
413.291	190.29
413.504	-8.36
413.717	-110.76
413.93	335.7
414.143	-73.9
414.356	-80.04
414.568	-139.43
414.781	266.07
414.994	151.38
415.207	-67.75
415.42	-14.51
415.632	335.7
415.845	552.78
416.058	-159.91
416.271	-219.3
416.483	173.91
416.696	554.83
416.909	-104.62
417.121	-77.99
417.334	255.83
417.547	657.23
417.759	-108.71
417.972	-161.96
418.185	-67.75
418.397	307.02
418.61	-104.62
418.823	-121
419.035	499.53
419.248	34.64
419.46	53.08
419.673	42.84
419.885	311.12
420.098	147.28
420.311	-24.75
420.523	-252.07
420.736	243.54
420.948	139.09
421.161	-57.51
421.373	-196.78
421.586	221.01
421.798	1.88
422.01	-231.59
422.223	-4.27
422.435	-22.7
422.648	268.11
422.86	-57.51
423.073	-161.96
423.285	407.38
423.497	-118.95
423.71	-12.46
423.922	-151.72
424.134	317.26
424.347	446.29
424.559	46.93
424.771	270.16
424.984	48.98
425.196	239.44
425.408	-141.48
425.621	-166.06
425.833	386.9
426.045	370.51
426.257	-98.47
426.47	-71.85
426.682	210.77
426.894	294.74
427.106	-24.75
427.318	-6.31
427.531	8.02
427.743	270.16
427.955	-129.19
428.167	380.75
428.379	200.53
428.591	42.84
428.804	53.08
429.016	-102.57
429.228	81.75
429.44	161.62
429.652	26.45
429.864	-204.97
430.076	3.93
430.288	40.79
430.5	-20.65
430.712	79.7
430.924	442.19
431.136	212.82
431.348	-211.11
431.56	-73.9
431.772	63.32
431.984	34.64
432.196	-96.43
432.408	-94.38
432.62	-12.46
432.832	233.3
433.044	307.02
433.256	69.46
433.468	300.88
433.679	-207.02
433.891	-65.71
434.103	143.19
434.315	458.57
434.527	278.35
434.739	114.52
434.95	20.31
435.162	397.14
435.374	-0.17
435.586	-6.31
435.798	-43.18
436.009	-166.06
436.221	122.71
436.433	-102.57
436.645	22.36
436.856	98.13
437.068	419.66
437.28	-112.81
437.491	257.87
437.703	302.93
437.915	280.4
438.126	57.17
438.338	204.63
438.55	169.81
438.761	325.46
438.973	-4.27
439.184	32.6
439.396	194.39
439.608	409.42
439.819	-125.1
440.031	73.56
440.242	405.33
440.454	241.49
440.665	26.45
440.877	98.13
441.088	370.51
441.3	57.17
441.511	-207.02
441.723	48.98
441.934	358.22
442.146	214.87
442.357	110.42
442.569	241.49
442.78	202.58
442.991	491.34
443.203	300.88
443.414	-84.14
443.626	517.97
443.837	-51.37
444.048	-67.75
444.26	-170.15
444.471	145.24
444.682	401.23
444.894	-231.59
445.105	-63.66
445.316	393.04
445.528	280.4
445.739	132.95
445.95	132.95
446.161	253.78
446.373	450.38
446.584	81.75
446.795	5.97
447.006	360.27
447.217	704.33
447.429	-69.8
447.64	-0.17
447.851	499.53
448.062	223.06
448.273	-92.33
448.484	34.64
448.695	403.28
448.907	253.78
449.118	63.32
449.329	300.88
449.54	173.91
449.751	28.5
449.962	46.93
450.173	36.69
450.384	581.45
450.595	603.98
450.806	65.36
451.017	120.66
451.228	563.02
451.439	434
451.65	-26.79
451.861	-211.11
452.072	24.4
452.283	229.2
452.494	302.93
452.705	55.12
452.915	622.41
453.126	368.46
453.337	106.32
453.548	-14.51
453.759	460.62
453.97	864.07
454.181	372.56
454.391	151.38
454.602	446.29
454.813	298.83
455.024	155.47
455.235	137.04
455.445	313.17
455.656	450.38
455.867	210.77
456.078	67.41
456.288	221.01
456.499	425.81
456.71	85.84
456.921	304.98
457.131	401.23
457.342	405.33
457.553	253.78
457.763	112.47
457.974	606.03
458.184	497.49
458.395	24.4
458.606	102.23
458.816	622.41
459.027	722.76
459.237	280.4
459.448	-37.03
459.659	593.74
459.869	790.35
460.08	38.74
460.29	278.35
460.501	859.98
460.711	317.26
460.922	44.88
461.132	202.58
461.343	1009.48
461.553	157.52
461.764	186.19
461.974	173.91
462.184	603.98
462.395	464.72
462.605	264.02
462.816	128.85
463.026	409.42
463.236	618.32
463.447	261.97
463.657	237.39
463.867	522.06
464.078	368.46
464.288	294.74
464.498	237.39
464.709	401.23
464.919	427.85
465.129	311.12
465.339	202.58
465.55	540.49
465.76	636.75
465.97	313.17
466.18	151.38
466.391	747.34
466.601	495.44
466.811	362.32
467.021	135
467.231	477.01
467.441	757.58
467.651	378.7
467.862	1.88
468.072	534.35
468.282	898.89
468.492	266.07
468.702	331.6
468.912	520.01
469.122	1111.88
469.332	733
469.542	298.83
469.752	687.95
469.962	597.84
470.172	274.26
470.382	390.99
470.592	790.35
470.802	835.4
471.012	569.16
471.222	362.32
471.432	831.3
471.642	767.82
471.852	507.73
472.062	409.42
472.272	534.35
472.482	360.27
472.691	343.89
472.901	368.46
473.111	692.04
473.321	1199.94
473.531	368.46
473.741	520.01
473.95	757.58
474.16	790.35
474.37	548.68
474.58	446.29
474.79	1107.78
474.999	831.3
475.209	491.34
475.419	503.63
475.628	724.81
475.838	1013.57
476.048	587.6
476.258	407.38
476.467	1032.01
476.677	593.74
476.886	792.39
477.096	712.52
477.306	689.99
477.515	1132.36
477.725	724.81
477.935	653.13
478.144	1103.68
478.354	704.33
478.563	753.48
478.773	601.93
478.982	993.09
479.192	1175.36
479.401	841.54
479.611	642.89
479.82	825.16
480.03	1017.67
480.239	720.71
480.449	603.98
480.658	1283.91
480.868	823.11
481.077	884.55
481.287	786.25
481.496	1107.78
481.705	1292.1
481.915	1140.55
482.124	1091.4
482.333	1093.44
482.543	1349.44
482.752	821.06
482.961	843.59
483.171	1279.81
483.38	1062.73
483.589	876.36
483.799	950.09
484.008	999.24
484.217	1331.01
484.426	921.42
484.636	788.3
484.845	1265.47
485.054	941.89
485.263	1292.1
485.472	945.99
485.682	1619.77
485.891	1224.51
486.1	823.11
486.309	931.66
486.518	1324.87
486.727	1564.48
486.936	952.13
487.146	1228.61
487.355	1627.96
487.564	1070.92
487.773	1107.78
487.982	1040.2
488.191	1130.31
488.4	1322.82
488.609	1124.16
488.818	1122.12
489.027	1920.82
489.236	1675.07
489.445	1093.44
489.654	1052.49
489.863	1662.78
490.072	1404.74
490.281	1369.92
490.49	1175.36
490.698	1677.12
490.907	1691.45
491.116	1222.47
491.325	1081.16
491.534	1771.32
491.743	1507.13
491.952	1333.06
492.16	1308.48
492.369	1648.44
492.578	1589.05
492.787	1398.59
492.996	1371.97
493.204	1386.3
493.413	1863.48
493.622	1029.96
493.831	1038.15
494.039	1998.65
494.248	1380.16
494.457	1300.29
494.665	1142.6
494.874	1781.56
495.083	2137.91
495.291	1441.6
495.5	1382.21
495.709	1959.74
495.917	1820.47
496.126	1496.89
496.335	1439.55
496.543	1548.09
496.752	1826.62
496.96	1648.44
497.169	1230.66
497.377	1662.78
497.586	1914.68
497.794	1648.44
498.003	1337.15
498.211	1613.63
498.42	2193.2
498.628	1595.2
498.837	1343.3
499.045	1845.05
499.254	1877.82
499.462	1505.09
499.671	1599.29
499.879	2254.64
500.087	2000.69
500.296	1525.57
500.504	1713.98
500.713	1992.5
500.921	2354.99
501.129	1720.12
501.338	1654.59
501.546	1892.15
501.754	1976.12
501.962	1568.57
502.171	1566.53
502.379	1965.88
502.587	2354.99
502.795	1832.76
503.004	1646.4
503.212	1920.82
503.42	2117.43
503.628	1695.55
503.837	1787.71
504.045	2156.34
504.253	2193.2
504.461	1673.02
504.669	1638.2
504.877	2084.66
505.085	2420.53
505.294	1754.94
505.502	1818.43
505.71	2107.19
505.918	2244.4
506.126	1900.34
506.334	1779.51
506.542	1939.26
506.75	2180.92
506.958	1955.64
507.166	1963.83
507.374	1986.36
507.582	2477.87
507.79	1976.12
507.998	1759.03
508.206	2193.2
508.414	2174.77
508.622	1912.63
508.83	1785.66
509.037	2453.3
509.245	2015.03
509.453	1781.56
509.661	1847.1
509.869	2309.94
510.077	2012.98
510.285	2019.13
510.492	1638.2
510.7	2758.44
510.908	2082.61
511.116	1961.78
511.324	1961.78
511.531	2354.99
511.739	2254.64
511.947	2275.12
512.155	2309.94
512.362	2414.38
512.57	1957.69
512.778	1972.02
512.985	1826.62
513.193	2541.36
513.401	2651.95
513.608	2123.57
513.816	2109.24
514.024	2492.21
514.231	2545.45
514.439	2058.04
514.646	2107.19
514.854	2402.1
515.061	2449.2
515.269	2062.13
515.477	2072.37
515.684	2199.35
515.892	2563.89
516.099	1972.02
516.307	2055.99
516.514	2469.68
516.722	2834.22
516.929	2142
517.136	2037.56
517.344	2737.96
517.551	2479.92
517.759	2236.21
517.966	2090.81
518.173	2260.79
518.381	2539.31
518.588	2414.38
518.796	2223.92
519.003	2787.11
519.21	2547.5
519.418	2228.02
519.625	2529.07
519.832	2420.53
520.039	2635.57
520.247	1996.6
520.454	2297.65
520.661	2821.93
520.868	2651.95
521.076	2203.44
521.283	2389.81
521.49	3217.19
521.697	2719.53
521.904	2453.3
522.112	2457.39
522.319	2801.45
522.526	2570.03
522.733	2365.23
522.94	2348.85
523.147	2672.43
523.354	2879.27
523.561	2307.89
523.768	2492.21
523.975	3049.25
524.183	2651.95
524.39	2551.6
524.597	2373.43
524.804	2742.06
525.011	2567.98
525.218	2559.79
525.425	2404.14
525.632	2955.05
525.838	2570.03
526.045	2420.53
526.252	2481.97
526.459	3841.82
526.666	3508
526.873	2524.97
527.08	2588.46
527.287	3082.02
527.494	2918.18
527.701	2512.69
527.907	2481.97
528.114	3022.63
528.321	2805.55
528.528	2658.09
528.735	2676.52
528.941	2731.82
529.148	2570.03
529.355	2694.96
529.562	2672.43
529.768	3182.37
529.975	2731.82
530.182	2668.33
530.388	2608.94
530.595	2932.52
530.802	2686.76
531.008	2957.1
531.215	2893.61
531.422	3645.21
531.628	3890.97
531.835	3010.34
532.042	2770.73
532.248	2977.58
532.455	3024.68
532.661	2789.16
532.868	2805.55
533.074	3188.52
533.281	3270.44
533.487	2965.29
533.694	2670.38
533.9	2916.14
534.107	3096.36
534.313	2916.14
534.52	2932.52
534.726	3417.89
534.933	3493.66
535.139	2826.03
535.345	2854.7
535.552	3270.44
535.758	3239.72
535.965	2979.62
536.171	2920.23
536.377	3372.83
536.584	3528.48
536.79	3030.82
536.996	3131.17
537.203	3274.53
537.409	3362.59
537.615	3028.78
537.821	3268.39
538.028	3491.62
538.234	3299.11
538.44	2965.29
538.646	3258.15
538.853	3489.57
539.059	3290.92
539.265	3481.38
539.471	2909.99
539.677	3462.94
539.883	3350.31
540.09	3127.08
540.296	3520.29
540.502	3358.5
540.708	3387.17
540.914	3180.32
541.12	3200.8
541.326	3596.06
541.532	3350.31
541.738	3428.13
541.944	3270.44
542.15	3616.54
542.356	3233.57
542.562	3327.78
542.768	3198.76
542.974	4118.29
543.18	4007.7
543.386	3196.71
543.592	3073.83
543.798	3866.39
544.004	3770.14
544.21	3338.02
544.415	3481.38
544.621	3620.64
544.827	3800.86
545.033	3227.43
545.239	3770.14
545.445	3415.84
545.651	3749.66
545.856	3249.96
546.062	3366.69
546.268	3585.82
546.474	3632.93
546.679	3309.35
546.885	3518.24
547.091	3585.82
547.297	4071.19
547.502	3413.79
547.708	3426.08
547.914	3661.6
548.119	3686.17
548.325	3612.45
548.531	3428.13
548.736	4017.94
548.942	3647.26
549.147	3385.12
549.353	3698.46
549.559	4040.47
549.764	3759.9
549.97	3499.81
550.175	3538.72
550.381	4005.66
550.586	3673.89
550.792	3669.79
550.997	3471.14
551.203	3823.39
551.408	3911.45
551.614	3460.9
551.819	3575.58
552.025	4235.03
552.23	4452.11
552.435	3575.58
552.641	3940.12
552.846	3694.36
553.052	4126.49
553.257	3813.15
553.462	3976.98
553.668	3819.29
553.873	4204.31
554.078	3622.69
554.283	3825.43
554.489	3938.07
554.694	4060.95
554.899	3659.55
555.105	3886.87
555.31	4183.83
555.515	4316.95
555.72	4022.04
555.925	3661.6
556.131	4103.96
556.336	3866.39
556.541	3952.41
556.746	3776.28
556.951	4468.5
557.156	4394.77
557.361	4110.1
557.567	4106.01
557.772	4654.86
557.977	4235.03
558.182	3911.45
558.387	3923.74
558.592	4063
558.797	4525.84
559.002	4032.28
559.207	4128.53
559.412	4181.78
559.617	4724.49
559.822	4019.99
560.027	3931.93
560.232	4431.63
560.437	4394.77
560.642	3995.42
560.847	4118.29
561.051	4353.81
561.256	4206.36
561.461	4067.1
561.666	3981.08
561.871	4316.95
562.076	4556.56
562.281	4063
562.485	4024.09
562.69	4497.17
562.895	4433.68
563.1	4202.26
563.305	3989.27
563.509	4665.1
563.714	4845.32
563.919	4087.57
564.123	4181.78
564.328	4394.77
564.533	4708.11
564.737	4144.92
564.942	4286.23
565.147	4732.69
565.351	4978.44
565.556	4263.7
565.761	4439.83
565.965	4466.45
566.17	4249.36
566.374	4294.42
566.579	4089.62
566.784	4544.27
566.988	4382.48
567.193	4271.89
567.397	4187.93
567.602	4343.57
567.806	4505.36
568.011	4208.41
568.215	4319
568.42	4509.46
568.624	4405.01
568.828	4351.76
569.033	4482.83
569.237	4615.95
569.442	4626.19
569.646	4144.92
569.85	4241.17
570.055	4613.9
570.259	4751.12
570.463	4552.46
570.668	4319
570.872	4777.74
571.076	4527.89
571.281	4486.93
571.485	4671.25
571.689	4562.7
571.893	4843.28
572.098	4613.9
572.302	4464.4
572.506	4706.06
572.71	4718.35
572.914	4570.9
573.119	4443.92
573.323	4941.58
573.527	5021.45
573.731	4716.3
573.935	4415.25
574.139	4816.65
574.343	4734.73
574.547	4591.38
574.751	4486.93
574.955	5056.26
575.159	5197.57
575.364	4505.36
575.568	4349.71
575.772	4773.64
575.976	4964.11
576.18	4677.39
576.383	4464.4
576.587	5117.7
576.791	4855.56
576.995	4341.52
577.199	4464.4
577.403	5170.95
577.607	5224.2
577.811	4523.79
578.015	4943.63
578.219	5140.23
578.422	5121.8
578.626	4863.76
578.83	4871.95
579.034	5193.48
579.238	4996.87
579.442	4708.11
579.645	5021.45
579.849	5060.36
580.053	5066.5
580.257	4663.05
580.46	4886.28
580.664	5148.42
580.868	5226.25
581.071	5019.4
581.275	4917
581.479	4763.4
581.682	5162.76
581.886	5005.06
582.09	5066.5
582.293	5285.64
582.497	5201.67
582.7	5164.81
582.904	4822.8
583.107	5340.93
583.311	5041.93
583.515	4988.68
583.718	5068.55
583.922	5308.16
584.125	5529.34
584.329	4917
584.532	5289.73
584.735	5678.85
584.939	5271.3
585.142	4994.83
585.346	5080.84
585.549	5476.1
585.753	4968.2
585.956	5041.93
586.159	5256.97
586.363	5656.32
586.566	5535.49
586.769	5144.33
586.973	4927.24
587.176	5443.33
587.379	5639.94
587.582	5469.95
587.786	5312.26
587.989	5316.36
588.192	5975.8
588.395	5302.02
588.599	5351.17
588.802	5603.07
589.005	5529.34
589.208	5238.53
589.411	5252.87
589.615	5680.89
589.818	5846.78
590.021	5465.86
590.224	5435.14
590.427	5615.36
590.63	5654.27
590.833	5062.41
591.036	5295.88
591.239	5420.8
591.442	5474.05
591.645	5504.77
591.848	5414.66
592.051	5699.33
592.254	5676.8
592.457	5355.27
592.66	5396.23
592.863	5496.58
593.066	5650.18
593.269	5484.29
593.472	5533.44
593.675	5476.1
593.878	5719.81
594.081	5555.97
594.284	5457.67
594.486	5889.79
594.689	5713.66
594.892	5609.22
595.095	5578.5
595.298	5867.26
595.5	5678.85
595.703	5652.22
595.906	5682.94
596.109	6199.03
596.311	6065.91
596.514	5326.6
596.717	5521.15
596.92	6153.98
597.122	5932.79
597.325	5445.38
597.528	5488.39
597.73	6252.28
597.933	5885.69
598.136	5594.88
598.338	5570.3
598.541	6090.49
598.743	6182.65
598.946	5621.5
599.148	5859.07
599.351	6207.22
599.554	6223.61
599.756	5762.81
599.959	5738.24
600.161	6285.05
600.363	6627.06
600.566	6043.39
600.768	5682.94
600.971	6270.71
601.173	6180.6
601.376	5863.16
601.578	5648.13
601.78	6090.49
601.983	6647.54
602.185	5707.52
602.388	5943.03
602.59	6319.86
602.792	6063.86
602.995	6008.57
603.197	5863.16
603.399	6352.63
603.601	6108.92
603.804	5850.88
604.006	5900.03
604.208	6086.39
604.41	5631.74
604.613	6039.29
604.815	5834.49
605.017	6838
605.219	6047.48
605.421	6160.12
605.623	5900.03
605.826	6536.95
606.028	6512.37
606.23	5963.51
606.432	5850.88
606.634	6698.74
606.836	6467.31
607.038	5990.14
607.24	6160.12
607.442	6242.04
607.644	6299.38
607.846	6168.31
608.048	6006.52
608.25	6682.35
608.452	6170.36
608.654	6125.3
608.856	5910.27
609.058	6215.41
609.26	6375.16
609.462	6248.18
609.664	6172.41
609.866	6751.98
610.067	6569.71
610.269	6237.94
610.471	6072.06
610.673	6303.48
610.875	6567.67
611.077	5883.64
611.278	6244.09
611.48	6350.58
611.682	6831.85
611.884	6303.48
612.085	6098.68
612.287	6293.24
612.489	6543.09
612.69	6094.58
612.892	6336.24
613.094	6659.82
613.295	6559.47
613.497	6098.68
613.699	6125.3
613.9	6903.53
614.102	6784.75
614.304	6356.72
614.505	6043.39
614.707	6455.03
614.908	6315.76
615.11	5988.09
615.311	6194.93
615.513	6708.97
615.714	6717.17
615.916	6053.62
616.117	6328.05
616.319	6471.41
616.52	6674.16
616.722	6323.96
616.923	6303.48
617.124	6604.53
617.326	6678.26
617.527	6457.07
617.729	6565.62
617.93	6627.06
618.131	6792.94
618.333	6227.7
618.534	6506.23
618.735	6317.81
618.937	6993.64
619.138	6205.17
619.339	6205.17
619.54	6670.06
619.742	6491.89
619.943	6457.07
620.144	6459.12
620.345	6751.98
620.546	6774.51
620.748	6260.47
620.949	6438.64
621.15	6747.89
621.351	6459.12
621.552	6340.34
621.753	6221.56
621.954	6158.07
622.155	7003.88
622.356	6268.66
622.558	6579.95
622.759	6700.78
622.96	6940.4
623.161	6366.96
623.362	6371.06
623.563	6571.76
623.764	6645.49
623.965	6579.95
624.166	6844.14
624.366	6704.88
624.567	6899.44
624.768	6403.83
624.969	6692.59
625.17	6590.19
625.371	7038.7
625.572	6543.09
625.773	6387.44
625.973	6987.5
626.174	6876.91
626.375	6844.14
626.576	6637.3
626.777	6754.03
626.977	7372.52
627.178	6647.54
627.379	6668.02
627.58	6762.22
627.78	6829.81
627.981	6502.13
628.182	6696.69
628.382	7157.48
628.583	6522.61
628.784	6522.61
628.984	6694.64
629.185	7210.73
629.386	6881
629.586	6620.91
629.787	6549.23
629.987	7028.46
630.188	6866.67
630.388	6717.17
630.589	6743.79
630.79	7462.63
630.99	7044.84
631.191	6899.44
631.391	6944.49
631.591	7278.31
631.792	7331.56
631.992	6921.96
632.193	6741.74
632.393	7370.47
632.594	6864.62
632.794	6698.74
632.994	6958.83
633.195	7110.38
633.395	7014.12
633.595	6776.56
633.796	7018.22
633.996	6971.11
634.196	7360.23
634.397	6586.1
634.597	7036.65
634.797	6672.11
634.997	7280.36
635.198	7134.95
635.398	6680.3
635.598	7126.76
635.798	7339.75
635.998	7247.59
636.199	6762.22
636.399	6876.91
636.599	6694.64
636.799	6794.99
636.999	7194.34
637.199	7167.72
637.399	7405.28
637.599	6786.8
637.799	7048.94
637.999	7134.95
638.199	7499.49
638.399	6887.15
638.599	6909.68
638.799	7284.45
638.999	7741.15
639.199	7057.13
639.399	7036.65
639.599	7671.52
639.799	7034.6
639.999	6887.15
640.199	6770.41
640.399	7356.13
640.599	7173.86
640.799	7087.85
640.998	7149.29
641.198	7522.02
641.398	7296.74
641.598	7120.62
641.798	7102.18
641.997	8134.36
642.197	7167.72
642.397	7046.89
642.597	6938.35
642.796	7329.51
642.996	7655.14
643.196	7098.09
643.395	6835.95
643.595	7206.63
643.795	6799.09
643.994	7059.18
644.194	7061.23
644.394	7425.76
644.593	7294.69
644.793	6958.83
644.992	7210.73
645.192	7460.58
645.392	7034.6
645.591	7513.83
645.791	7163.62
645.99	7528.16
646.19	7431.91
646.389	7259.88
646.589	7278.31
646.788	7657.18
646.987	7513.83
647.187	7405.28
647.386	7429.86
647.586	7278.31
647.785	7700.19
647.984	7018.22
648.184	7368.42
648.383	7413.48
648.582	7272.17
648.782	7298.79
648.981	7384.8
649.18	7315.17
649.38	7601.89
649.579	7137
649.778	7515.87
649.977	7739.1
650.177	7509.73
650.376	7227.11
650.575	7251.69
650.774	7802.59
650.973	7225.06
651.173	7155.43
651.372	7360.23
651.571	7573.22
651.77	7843.55
651.969	7411.43
652.168	7356.13
652.367	7360.23
652.566	7673.57
652.765	7376.61
652.964	7605.99
653.163	7999.2
653.362	7503.59
653.561	7370.47
653.76	7458.53
653.959	7436
654.158	7724.77
654.357	7612.13
654.556	7429.86
654.755	7798.49
654.954	7999.2
655.153	7548.64
655.352	7515.87
655.551	7853.79
655.749	7503.59
655.948	7567.07
656.147	7638.75
656.346	7894.75
656.545	7687.9
656.743	7431.91
656.942	7530.21
657.141	7692
657.34	7495.39
657.538	7855.84
657.737	7474.92
657.936	7800.54
658.135	7671.52
658.333	7546.59
658.532	7732.96
658.731	8425.17
658.929	7847.65
659.128	7956.19
659.326	7589.6
659.525	8367.83
659.724	7677.66
659.922	7280.36
660.121	7323.37
660.319	7818.97
660.518	7556.83
660.716	7548.64
660.915	7341.8
661.113	8146.65
661.312	7380.71
661.51	7544.55
661.709	7479.01
661.907	7970.52
662.105	8228.57
662.304	7530.21
662.502	7499.49
662.701	8097.5
662.899	7773.92
663.097	7988.96
663.296	7466.72
663.494	7991
663.692	8275.67
663.891	7456.48
664.089	7384.8
664.287	7827.17
664.485	8122.07
664.684	7780.06
664.882	8031.96
665.08	7771.87
665.278	8095.45
665.476	7581.41
665.675	8027.87
665.873	8404.69
666.071	8269.53
666.269	7745.25
666.467	7984.86
666.665	7919.32
666.863	7907.04
667.061	7681.76
667.259	7603.94
667.457	7909.08
667.655	8136.41
667.853	7464.68
668.051	7653.09
668.249	7696.1
668.447	8068.83
668.645	7540.45
668.843	7966.43
669.041	8023.77
669.239	7745.25
669.437	7833.31
669.635	7943.9
669.833	8066.78
670.031	8152.79
670.229	7792.35
670.426	7763.68
670.624	7878.37
670.822	7870.17
671.02	7806.69
671.218	7835.36
671.415	7792.35
671.613	7995.1
671.811	8077.02
672.009	7628.51
672.206	8312.53
672.404	8117.98
672.602	7968.48
672.799	7868.13
672.997	8007.39
673.195	8218.33
673.392	7841.5
673.59	7661.28
673.788	7995.1
673.985	7497.44
674.183	8128.22
674.38	7829.21
674.578	8433.36
674.775	7812.83
674.973	7511.78
675.17	7704.29
675.368	8318.68
675.565	8081.11
675.763	7806.69
675.96	7622.37
676.158	8130.27
676.355	7671.52
676.553	7698.14
676.75	7775.97
676.947	7808.73
677.145	7933.66
677.342	7849.69
677.539	7925.47
677.737	7886.56
677.934	8447.7
678.131	7761.63
678.329	7579.36
678.526	8103.64
678.723	8236.76
678.92	7964.38
679.118	7730.91
679.315	7790.3
679.512	8236.76
679.709	7790.3
679.906	7851.74
680.104	8228.57
680.301	8290.01
680.498	7778.01
680.695	7694.05
680.892	7757.53
681.089	7821.02
681.286	8054.49
681.483	7464.68
681.68	8128.22
681.877	8191.7
682.075	7771.87
682.272	8152.79
682.469	7849.69
682.665	7728.86
682.862	7585.51
683.059	7640.8
683.256	7982.81
683.453	7997.15
683.65	7814.88
683.847	7665.38
684.044	7849.69
684.241	7954.14
684.438	8007.39
684.635	7753.44
684.831	8496.85
685.028	8367.83
685.225	7773.92
685.422	7948
685.619	7837.41
685.815	7816.93
686.012	7775.97
686.209	7718.62
686.405	7718.62
686.602	8416.98
686.799	7651.04
686.996	7667.42
687.192	7659.23
687.389	8247
687.586	7737.06
687.782	7876.32
687.979	8140.51
688.175	8017.63
688.372	7612.13
688.568	7648.99
688.765	7659.23
688.962	8171.22
689.158	7857.89
689.355	7313.13
689.551	8113.88
689.748	7755.49
689.944	7808.73
690.14	7438.05
690.337	8005.34
690.533	7579.36
690.73	7896.8
690.926	7761.63
691.123	7892.7
691.319	7784.16
691.515	7683.81
691.712	7823.07
691.908	8085.21
692.104	7911.13
692.301	7913.18
692.497	7716.58
692.693	8302.29
692.889	8136.41
693.086	7884.51
693.282	7589.6
693.478	7904.99
693.674	8224.47
693.87	7730.91
694.067	7497.44
694.263	7943.9
694.459	7845.6
694.655	7866.08
694.851	7890.65
695.047	8152.79
695.243	8091.35
695.439	7771.87
695.635	7730.91
695.831	8009.44
696.027	7917.28
696.224	7651.04
696.42	7999.2
696.615	8230.62
696.811	7847.65
697.007	7546.59
697.203	7692
697.399	7896.8
697.595	8025.82
697.791	7788.25
697.987	7630.56
698.183	7651.04
698.379	7769.82
698.575	7698.14
698.77	7743.2
698.966	8007.39
699.162	8226.52
699.358	7732.96
699.554	7425.76
699.749	7718.62
699.945	8177.37
700.141	7528.16
700.337	7657.18
700.532	7679.71
700.728	7675.62
700.924	7456.48
701.119	7343.85
701.315	7782.11
701.511	7761.63
701.706	7642.85
701.902	7550.69
702.097	7814.88
702.293	8105.69
702.489	7702.24
702.684	7579.36
702.88	7847.65
703.075	7761.63
703.271	7622.37
703.466	7427.81
703.662	7675.62
703.857	7861.98
704.053	7712.48
704.248	7683.81
704.443	7866.08
704.639	7892.7
704.834	7644.9
705.03	7636.7
705.225	8142.55
705.42	7911.13
705.616	7624.42
705.811	7495.39
706.006	7923.42
706.202	7716.58
706.397	7569.12
706.592	7460.58
706.787	7755.49
706.983	7737.06
707.178	7958.24
707.373	7704.29
707.568	8091.35
707.763	8091.35
707.959	7448.29
708.154	7483.11
708.349	7939.8
708.544	8031.96
708.739	7870.17
708.934	7503.59
709.129	8017.63
709.324	7829.21
709.519	7454.44
709.714	7620.32
709.909	7991
710.104	7825.12
710.299	7374.56
710.494	7595.75
710.689	7915.23
710.884	7618.27
711.079	7538.4
711.274	7780.06
711.469	7909.08
711.664	7847.65
711.859	7364.32
712.054	7855.84
712.249	7872.22
712.443	8103.64
712.638	7337.7
712.833	7347.94
713.028	7681.76
713.223	7608.03
713.417	7679.71
713.612	7536.35
713.807	7712.48
714.002	8298.2
714.196	7749.34
714.391	7462.63
714.586	7874.27
714.78	7577.31
714.975	7657.18
715.17	7343.85
715.364	7784.16
715.559	7972.57
715.754	7128.81
715.948	7405.28
716.143	8142.55
716.337	7786.21
716.532	7882.46
716.726	7524.07
716.921	8023.77
717.115	8120.03
717.31	7388.9
717.504	8064.73
717.699	7519.97
717.893	8068.83
718.088	7511.78
718.282	7468.77
718.476	7630.56
718.671	7735.01
718.865	7333.61
719.059	7223.02
719.254	7655.14
719.448	7997.15
719.642	7732.96
719.837	7157.48
720.031	7941.85
720.225	8140.51
720.419	7585.51
720.614	7366.37
720.808	7747.3
721.002	7495.39
721.196	7376.61
721.39	7491.3
721.585	7775.97
721.779	7718.62
721.973	7567.07
722.167	7223.02
722.361	7804.64
722.555	7888.6
722.749	7294.69
722.943	7266.02
723.137	7186.15
723.331	7710.43
723.525	7575.27
723.719	7384.8
723.913	7597.79
724.107	7851.74
724.301	7349.99
724.495	7501.54
724.689	7792.35
724.883	7888.6
725.077	7212.78
725.271	7274.21
725.465	7829.21
725.659	7562.98
725.853	7384.8
726.046	7253.73
726.24	7481.06
726.434	7720.67
726.628	7263.97
726.822	7313.13
727.015	7753.44
727.209	7972.57
727.403	7337.7
727.596	7175.91
727.79	7745.25
727.984	7663.33
728.177	7390.95
728.371	7315.17
728.565	7513.83
728.758	7145.19
728.952	7169.77
729.146	7450.34
729.339	7759.58
729.533	7446.24
729.726	7567.07
729.92	7331.56
730.113	7868.13
730.307	7698.14
730.5	7366.37
730.694	7354.09
730.887	7542.5
731.081	7503.59
731.274	7290.6
731.468	7366.37
731.661	7661.28
731.854	7360.23
732.048	7313.13
732.241	7130.86
732.435	7497.44
732.628	7450.34
732.821	7464.68
733.014	7323.37
733.208	7345.89
733.401	7847.65
733.594	7223.02
733.788	7208.68
733.981	7657.18
734.174	7610.08
734.367	7249.64
734.56	7517.92
734.754	7767.77
734.947	7388.9
735.14	7229.16
735.333	7409.38
735.526	7724.77
735.719	7401.19
735.912	7372.52
736.105	7286.5
736.298	7665.38
736.491	7474.92
736.684	7349.99
736.877	7339.75
737.07	7667.42
737.263	7788.25
737.456	7397.09
737.649	7235.3
737.842	7438.05
738.035	7524.07
738.228	7399.14
738.421	7384.8
738.614	7933.66
738.807	7562.98
739	6919.92
739.192	7284.45
739.385	7726.82
739.578	7612.13
739.771	7640.8
739.964	7294.69
740.156	7675.62
740.349	7382.76
740.542	7444.2
740.735	7438.05
740.927	7249.64
741.12	7235.3
741.313	7126.76
741.505	7333.61
741.698	7591.65
741.891	7368.42
742.083	7343.85
742.276	7407.33
742.468	7409.38
742.661	7401.19
742.854	7362.28
743.046	7311.08
743.239	7771.87
743.431	7532.26
743.624	7229.16
743.816	7249.64
744.009	7425.76
744.201	7581.41
744.393	7216.87
744.586	7200.49
744.778	7659.23
744.971	7384.8
745.163	7167.72
745.355	7358.18
745.548	7257.83
745.74	7352.04
745.932	7288.55
746.125	7251.69
746.317	8107.74
746.509	7575.27
746.702	7223.02
746.894	7272.17
747.086	7458.53
747.278	7829.21
747.471	7458.53
747.663	7331.56
747.855	7440.1
748.047	7868.13
748.239	7216.87
748.431	7081.71
748.623	7714.53
748.815	7745.25
749.008	6981.35
749.2	7143.14
749.392	7589.6
749.584	7364.32
749.776	7243.49
749.968	7190.25
750.16	7675.62
750.352	7280.36
750.544	7208.68
750.736	7089.9
750.928	7378.66
751.12	7421.67
751.311	7306.98
751.503	7163.62
751.695	7405.28
751.887	7282.41
752.079	6983.4
752.271	7028.46
752.463	8150.74
752.654	7491.3
752.846	7218.92
753.038	7065.32
753.23	7173.86
753.421	7356.13
753.613	7227.11
753.805	7313.13
753.997	7462.63
754.188	7632.61
754.38	6989.55
754.572	7112.42
754.763	7245.54
754.955	7446.24
755.146	7116.52
755.338	7081.71
755.53	7358.18
755.721	7259.88
755.913	6825.71
756.104	7010.03
756.296	7169.77
756.487	7610.08
756.679	6868.72
756.87	6981.35
757.062	6977.26
757.253	7335.65
757.445	6827.76
757.636	7122.66
757.827	7145.19
758.019	7730.91
758.21	6807.28
758.401	6952.68
758.593	7585.51
758.784	7448.29
758.975	6835.95
759.167	6891.24
759.358	7284.45
759.549	7624.42
759.74	6780.65
759.932	6813.42
760.123	7425.76
760.314	6967.02
760.505	7083.75
760.696	6860.52
760.888	7548.64
761.079	7081.71
761.27	6776.56
761.461	6842.09
761.652	7532.26
761.843	7030.51
762.034	6831.85
762.225	7118.57
762.416	6889.2
762.607	7085.8
762.798	6860.52
762.989	6778.61
763.18	7853.79
763.371	6833.9
763.562	7091.95
763.753	6735.6
763.944	7466.72
764.135	7325.41
764.326	6942.44
764.517	6555.38
764.708	6858.48
764.899	6979.31
765.089	6676.21
765.28	6573.81
765.471	6881
765.662	6921.96
765.853	6809.33
766.043	6659.82
766.234	7114.47
766.425	6870.76
766.615	6786.8
766.806	6557.43
766.997	7114.47
767.187	6809.33
767.378	6588.14
767.569	6313.72
767.759	6928.11
767.95	6946.54
768.141	6764.27
768.331	6573.81
768.522	6856.43
768.712	7098.09
768.903	6498.03
769.093	6489.84
769.284	7161.58
769.474	6991.59
769.665	6420.21
769.855	6559.47
770.046	7053.03
770.236	6799.09
770.426	6702.83
770.617	6500.08
770.807	6940.4
770.998	6639.34
771.188	6794.99
771.378	6379.25
771.569	6936.3
771.759	6817.52
771.949	6344.44
772.139	6477.55
772.33	6713.07
772.52	7159.53
772.71	6455.03
772.9	6317.81
773.09	7284.45
773.281	7169.77
773.471	6651.63
773.661	6692.59
773.851	6768.37
774.041	6692.59
774.231	6379.25
774.421	6610.67
774.611	7116.52
774.802	6741.74
774.992	6555.38
775.182	6399.73
775.372	6524.66
775.562	6760.17
775.752	6477.55
775.942	6356.72
776.131	6838
776.321	6586.1
776.511	6233.85
776.701	6403.83
776.891	6858.48
777.081	6397.68
777.271	6473.46
777.461	6264.57
777.651	6749.93
777.84	6823.66
778.03	6504.18
778.22	6262.52
778.41	6743.79
778.599	6373.11
778.789	6231.8
778.979	6217.46
779.169	6647.54
779.358	6409.97
779.548	6549.23
779.738	6233.85
779.927	6512.37
780.117	6276.85
780.307	6108.92
780.496	6053.62
780.686	6534.9
780.875	6711.02
781.065	6317.81
781.254	6309.62
781.444	6414.07
781.633	6514.42
781.823	6063.86
782.012	6067.96
782.202	6256.37
782.391	6487.79
782.581	6139.64
782.77	6369.01
782.96	6475.51
783.149	6444.79
783.338	6164.22
783.528	6092.54
783.717	6536.95
783.906	6848.24
784.096	6328.05
784.285	6127.35
784.474	6174.46
784.663	6287.09
784.853	6248.18
785.042	6043.39
785.231	6172.41
785.42	6418.16
785.61	5953.27
785.799	5754.62
785.988	6055.67
786.177	6176.5
786.366	6041.34
786.555	6356.72
786.744	6571.76
786.933	6373.11
787.122	5953.27
787.312	6008.57
787.501	6037.24
787.69	6326
787.879	5975.8
788.068	5918.46
788.257	6067.96
788.445	6127.35
788.634	6153.98
788.823	5943.03
789.012	6975.21
789.201	6659.82
789.39	6072.06
789.579	6022.91
789.768	6221.56
789.957	6207.22
790.145	5996.28
790.334	5811.96
790.523	6088.44
790.712	6145.78
790.9	6031.1
791.089	5943.03
791.278	6426.36
791.467	6289.14
791.655	6246.13
791.844	6524.66
792.033	6000.38
792.221	5943.03
792.41	5885.69
792.599	5684.99
792.787	6330.1
792.976	6323.96
793.164	5668.61
793.353	5922.55
793.541	6174.46
793.73	6274.81
793.918	6000.38
794.107	5895.93
794.295	6059.77
794.484	6147.83
794.672	5738.24
794.861	5934.84
795.049	6053.62
795.238	6313.72
795.426	5859.07
795.614	5910.27
795.803	6094.58
795.991	6375.16
796.179	5740.29
796.368	5695.23
796.556	6221.56
796.744	5648.13
796.932	5721.85
797.121	5588.74
797.309	5869.31
797.497	6094.58
797.685	5785.34
797.874	5705.47
798.062	5930.75
798.25	6338.29
798.438	5719.81
798.626	5648.13
798.814	6237.94
799.002	6598.38
799.19	5680.89
799.378	5926.65
799.566	6162.17
799.755	6266.61
799.943	5820.16
800.131	5777.15
800.318	5949.18
800.506	6211.32
800.694	5820.16
800.882	5889.79
801.07	6305.53
801.258	6147.83
801.446	5875.45
801.634	5754.62
801.822	5988.09
802.01	6018.81
802.197	5760.77
802.385	5963.51
802.573	6166.26
802.761	5713.66
802.949	5951.23
803.136	5603.07
803.324	6219.51
803.512	5998.33
803.699	5994.23
803.887	5824.25
804.075	6254.33
804.262	5945.08
804.45	5723.9
804.638	5938.94
804.825	5967.61
805.013	6072.06
805.201	6049.53
805.388	5826.3
805.576	6057.72
805.763	6606.58
805.951	5740.29
806.138	6072.06
806.326	6561.52
806.513	6305.53
806.701	5854.97
806.888	5926.65
807.075	6201.08
807.263	6561.52
807.45	5752.57
807.638	6057.72
807.825	6868.72
808.012	6266.61
808.2	5959.42
808.387	5998.33
808.574	6227.7
808.761	6416.12
808.949	5842.68
809.136	6031.1
809.323	6147.83
809.51	6022.91
809.698	6186.74
809.885	6024.95
810.072	6299.38
810.259	6217.46
810.446	6039.29
810.633	6027
810.82	6514.42
811.008	6631.15
811.195	6231.8
811.382	6070.01
811.569	6164.22
811.756	5777.15
811.943	5787.39
812.13	6000.38
812.317	6084.34
812.504	6137.59
812.691	6166.26
812.878	6164.22
813.064	6506.23
813.251	6108.92
813.438	6096.63
813.625	6153.98
813.812	6010.62
813.999	6250.23
814.186	6008.57
814.372	6049.53
814.559	6235.89
814.746	6584.05
814.933	5957.37
815.12	6239.99
815.306	6145.78
815.493	5779.2
815.68	5979.9
815.866	6024.95
816.053	6459.12
816.24	6764.27
816.426	6104.82
816.613	5816.06
816.799	6344.44
816.986	6500.08
817.173	6098.68
817.359	6074.1
817.546	6270.71
817.732	5822.2
817.919	5891.84
818.105	6237.94
818.292	6127.35
818.478	6272.76
818.665	6084.34
818.851	5998.33
819.037	6794.99
819.224	6180.6
819.41	5910.27
819.597	5883.64
819.783	6754.03
819.969	6526.71
820.156	6002.43
820.342	6016.76
820.528	6792.94
820.714	6293.24
820.901	6194.93
821.087	5912.32
821.273	6635.25
821.459	5912.32
821.646	5877.5
821.832	5799.68
822.018	6358.77
822.204	5983.99
822.39	5906.17
822.576	5924.6
822.762	6176.5
822.948	6153.98
823.134	6147.83
823.32	5940.99
823.507	5748.48
823.693	6213.37
823.879	6268.66
824.065	5791.48
824.25	6010.62
824.436	5758.72
824.622	5879.55
824.808	5721.85
824.994	6061.82
825.18	5789.44
825.366	5687.04
825.552	5881.6
825.738	5988.09
825.923	6123.26
826.109	6080.25
826.295	5648.13
826.481	5934.84
826.667	5879.55
826.852	6012.67
827.038	5703.42
827.224	6209.27
827.409	6326
827.595	5545.73
827.781	5848.83
827.966	6037.24
828.152	6088.44
828.338	5553.92
828.523	5273.35
828.709	5768.96
828.894	6041.34
829.08	5699.33
829.266	5648.13
829.451	5787.39
829.637	6045.43
829.822	5795.58
830.008	5629.7
830.193	6164.22
830.378	6270.71
830.564	5738.24
830.749	5684.99
830.935	5920.51
831.12	6020.86
831.305	5693.18
831.491	5754.62
831.676	5445.38
831.861	5965.56
832.047	5623.55
832.232	5490.43
832.417	6102.78
832.602	5914.36
832.788	5676.8
832.973	5517.06
833.158	5746.43
833.343	5709.57
833.528	5627.65
833.714	5684.99
833.899	5885.69
834.084	6035.19
834.269	5773.05
834.454	5476.1
834.639	6035.19
834.824	5752.57
835.009	5775.1
835.194	5725.95
835.379	5816.06
835.564	6022.91
835.749	5691.13
835.934	5465.86
836.119	5799.68
836.304	5678.85
836.489	5422.85
836.674	5836.54
836.859	5439.23
837.044	6067.96
837.228	5531.39
837.413	5394.18
837.598	5674.75
837.783	5916.41
837.968	5564.16
838.152	5195.53
838.337	5183.24
838.522	5816.06
838.707	5701.37
838.891	5498.63
839.076	5566.21
839.261	6041.34
839.445	5308.16
839.63	5523.2
839.815	6102.78
839.999	5496.58
840.184	5349.12
840.368	5398.27
840.553	5725.95
840.737	5965.56
840.922	5373.7
841.106	5406.47
841.291	5291.78
841.475	5795.58
841.66	5345.03
841.844	5209.86
842.029	6067.96
842.213	5383.94
842.397	5385.99
842.582	5224.2
842.766	5859.07
842.951	5521.15
843.135	5220.1
843.319	5289.73
843.504	5603.07
843.688	5617.41
843.872	4935.43
844.056	5265.16
844.241	5619.46
844.425	5379.84
844.609	5338.88
844.793	5095.18
844.977	5664.51
845.161	5451.52
845.346	5111.56
845.53	5320.45
845.714	5369.6
845.898	5748.48
846.082	5140.23
846.266	5275.4
846.45	5490.43
846.634	5476.1
846.818	5072.65
847.002	5340.93
847.186	5586.69
847.37	5216.01
847.554	5064.46
847.738	5320.45
847.922	5435.14
848.106	5394.18
848.29	4947.72
848.473	5136.13
848.657	5469.95
848.841	5365.51
849.025	5189.38
849.209	4968.2
849.392	5402.37
849.576	5271.3
849.76	4898.57
849.944	5175.05
850.127	5637.89
850.311	4941.58
850.495	4962.06
850.678	5099.27
850.862	5693.18
851.046	5603.07
851.229	5273.35
851.413	4742.92
851.596	5271.3
851.78	5218.05
851.964	4988.68
852.147	5132.04
852.331	5961.47
852.514	5527.3
852.698	5080.84
852.881	4777.74
853.065	5365.51
853.248	5105.42
853.431	5115.66
853.615	4988.68
853.798	5795.58
853.982	5211.91
854.165	5033.74
854.348	4886.28
854.532	4833.04
854.715	5179.14
854.898	4892.43
855.081	4984.59
855.265	5488.39
855.448	5433.09
855.631	4892.43
855.814	4904.71
855.997	5381.89
856.181	4927.24
856.364	4845.32
856.547	4806.41
856.73	5173
856.913	5119.75
857.096	4736.78
857.279	4941.58
857.462	4810.51
857.645	5283.59
857.828	5029.64
858.011	4894.47
858.194	4824.84
858.377	5125.9
858.56	4722.45
858.743	4779.79
858.926	4783.88
859.109	5125.9
859.292	4785.93
859.475	4679.44
859.658	5304.07
859.841	5066.5
860.023	4474.64
860.206	4611.85
860.389	5095.18
860.572	5132.04
860.755	4671.25
860.937	4869.9
861.12	4910.86
861.303	5115.66
861.486	4853.52
861.668	4810.51
861.851	5078.79
862.034	4923.15
862.216	4796.17
862.399	4478.74
862.581	5150.47
862.764	5252.87
862.947	4710.16
863.129	4753.16
863.312	4679.44
863.494	5277.44
863.677	4878.09
863.859	4603.66
864.042	5027.59
864.224	5218.05
864.406	4708.11
864.589	4343.57
864.771	4845.32
864.954	4697.87
865.136	4376.34
865.318	4331.28
865.501	4996.87
865.683	4394.77
865.865	4497.17
866.048	4695.82
866.23	4734.73
866.412	4650.77
866.594	4456.21
866.777	4372.24
866.959	4863.76
867.141	4632.33
867.323	4761.36
867.505	4474.64
867.687	4624.14
867.869	4624.14
868.052	4595.47
868.234	4427.54
868.416	4669.2
868.598	4859.66
868.78	4374.29
868.962	4407.06
869.144	4988.68
869.326	4828.94
869.508	4599.57
869.69	4411.15
869.872	4683.53
870.054	4902.67
870.236	4278.04
870.417	4597.52
870.599	4704.01
870.781	5066.5
870.963	4523.79
871.145	4343.57
871.327	4419.35
871.508	4878.09
871.69	4321.04
871.872	4605.71
872.054	4738.83
872.235	4577.04
872.417	4499.22
872.599	4284.18
872.78	5070.6
872.962	4726.54
873.144	4292.37
873.325	4423.44
873.507	5043.98
873.689	4679.44
873.87	4388.63
874.052	4503.31
874.233	4675.34
874.415	4847.37
874.596	4476.69
874.778	4398.87
874.959	4722.45
875.141	4871.95
875.322	4437.78
875.503	4411.15
875.685	4773.64
875.866	4224.79
876.048	4366.1
876.229	4230.93
876.41	4519.7
876.592	4810.51
876.773	4329.24
876.954	4290.32
877.136	4953.87
877.317	4488.98
877.498	4316.95
877.679	4605.71
877.86	4919.05
878.042	4683.53
878.223	4409.11
878.404	4691.73
878.585	4873.99
878.766	5050.12
878.947	4790.03
879.128	4759.31
879.309	4685.58
879.49	5027.59
879.672	4609.81
879.853	4468.5
880.034	4511.5
880.215	4701.97
880.396	4464.4
880.576	4613.9
880.757	4564.75
880.938	4941.58
881.119	4405.01
881.3	4417.3
881.481	4718.35
881.662	5625.6
881.843	4413.2
882.023	4349.71
882.204	4710.16
882.385	4734.73
882.566	4405.01
882.747	4513.55
882.927	4683.53
883.108	4718.35
883.289	4427.54
883.469	4912.91
883.65	4650.77
883.831	4718.35
884.011	4953.87
884.192	4701.97
884.373	5074.7
884.553	5062.41
884.734	4677.39
884.914	5041.93
885.095	5443.33
885.275	5222.15
885.456	4869.9
885.636	4478.74
885.817	4628.24
885.997	4839.18
886.178	4687.63
886.358	4513.55
886.538	4943.63
886.719	5902.08
886.899	4632.33
887.08	4747.02
887.26	5254.92
887.44	4695.82
887.621	4491.02
887.801	4841.23
887.981	5742.33
888.161	5048.07
888.342	4843.28
888.522	4783.88
888.702	5164.81
888.882	5150.47
889.062	4747.02
889.242	4435.73
889.423	5351.17
889.603	5029.64
889.783	4855.56
889.963	4574.99
890.143	5177.09
890.323	5195.53
890.503	4675.34
890.683	4634.38
890.863	4927.24
891.043	5150.47
891.223	4914.95
891.403	5058.31
891.583	4833.04
891.763	4892.43
891.943	4849.42
892.122	4767.5
892.302	4845.32
892.482	4890.38
892.662	4671.25
892.842	4810.51
893.022	5076.74
893.201	4908.81
893.381	4812.56
893.561	4843.28
893.741	5310.21
893.92	5095.18
894.1	4949.77
894.28	5011.21
894.459	5234.44
894.639	5031.69
894.819	4888.33
894.998	5039.88
895.178	4947.72
895.357	5148.42
895.537	4636.43
895.716	4730.64
895.896	4876.04
896.075	5250.82
896.255	4769.55
896.434	4622.09
896.614	5199.62
896.793	5392.13
896.973	4925.19
897.152	4798.22
897.331	5136.13
897.511	5119.75
897.69	4583.18
897.87	4783.88
898.049	5056.26
898.228	4978.44
898.407	4964.11
898.587	4996.87
898.766	4726.54
898.945	5177.09
899.124	4890.38
899.304	4828.94
899.483	5103.37
899.662	5562.11
899.841	4628.24
900.02	4773.64
900.199	5205.77
900.378	5136.13
900.557	4701.97
900.737	4480.78
900.916	5058.31
901.095	5246.73
901.274	4972.3
901.453	4521.74
901.632	4656.91
901.811	4562.7
901.989	4652.81
902.168	4441.87
902.347	5084.94
902.526	4822.8
902.705	4720.4
902.884	4781.84
903.063	5220.1
903.242	5259.01
903.42	4587.28
903.599	4673.29
903.778	5089.03
903.957	5150.47
904.135	4732.69
904.314	4624.14
904.493	4947.72
904.672	5033.74
904.85	4767.5
905.029	4355.86
905.207	4947.72
905.386	5545.73
905.565	4368.15
905.743	4599.57
905.922	4732.69
906.1	5060.36
906.279	4521.74
906.457	4476.69
906.636	4634.38
906.814	4744.97
906.993	4484.88
907.171	4454.16
907.35	5048.07
907.528	5072.65
907.707	4841.23
907.885	4296.47
908.063	5070.6
908.242	4386.58
908.42	4431.63
908.598	4243.22
908.777	4728.59
908.955	4525.84
909.133	4620.05
909.311	4468.5
909.49	4407.06
909.668	4564.75
909.846	4562.7
910.024	4187.93
910.202	4620.05
910.38	4714.25
910.559	4114.2
910.737	4370.19
910.915	4669.2
911.093	4478.74
911.271	4218.64
911.449	4585.23
911.627	4720.4
911.805	5011.21
911.983	4323.09
912.161	4214.55
912.339	4691.73
912.517	4878.09
912.695	4298.52
912.872	4278.04
913.05	4443.92
913.228	4390.67
913.406	4165.4
913.584	4177.69
913.762	4542.22
913.939	4216.6
914.117	4271.89
914.295	4185.88
914.473	4579.09
914.65	4331.28
914.828	4241.17
915.006	4040.47
915.184	4065.05
915.361	4327.19
915.539	4306.71
915.716	4398.87
915.894	4413.2
916.072	4470.55
916.249	4382.48
916.427	4222.74
916.604	4036.38
916.782	4390.67
916.959	3936.03
917.137	3919.64
917.314	4237.08
917.492	4333.33
917.669	4071.19
917.847	4054.81
918.024	4339.48
918.201	4001.56
918.379	4013.85
918.556	4017.94
918.733	4239.12
918.911	4054.81
919.088	4151.06
919.265	3897.11
919.442	4243.22
919.62	4032.28
919.797	3976.98
919.974	3706.65
920.151	4116.25
920.328	3907.35
920.506	3792.67
920.683	3968.79
920.86	3780.38
921.037	3766.04
921.214	3942.17
921.391	3878.68
921.568	4140.82
921.745	3845.91
921.922	3751.71
922.099	3587.87
922.276	4089.62
922.453	3974.94
922.63	3665.69
922.807	3872.54
922.984	3925.79
923.161	3749.66
923.338	3661.6
923.514	3655.45
923.691	3925.79
923.868	3804.96
924.045	3632.93
924.222	3487.52
924.399	3856.15
924.575	4019.99
924.752	3784.48
924.929	3628.83
925.105	3704.6
925.282	3614.49
925.459	3540.77
925.635	3600.16
925.812	3845.91
925.989	3479.33
926.165	3600.16
926.342	3313.44
926.518	3256.1
926.695	3618.59
926.871	3581.73
927.048	3340.07
927.224	3884.83
927.401	3622.69
927.577	3579.68
927.754	3356.45
927.93	3825.43
928.107	3690.27
928.283	3292.96
928.459	3557.15
928.636	3671.84
928.812	3489.57
928.988	3125.03
929.165	3239.72
929.341	3577.63
929.517	3661.6
929.693	3669.79
929.87	3055.4
930.046	3671.84
930.222	3307.3
930.398	3192.61
930.574	3372.83
930.751	3358.5
930.927	3170.08
931.103	3284.77
931.279	3182.37
931.455	3161.89
931.631	3424.03
931.807	2897.71
931.983	3088.17
932.159	2963.24
932.335	3258.15
932.511	3110.69
932.687	2926.38
932.863	3342.11
933.039	3182.37
933.215	2895.66
933.391	2895.66
933.566	3079.97
933.742	3135.27
933.918	2961.19
934.094	2658.09
934.27	2850.6
934.445	2973.48
934.621	2922.28
934.797	2674.48
934.973	2934.57
935.148	3055.4
935.324	2680.62
935.5	2443.06
935.675	3118.89
935.851	2772.78
936.027	2518.83
936.202	2545.45
936.378	2805.55
936.553	2623.28
936.729	2787.11
936.904	2299.7
937.08	2160.44
937.255	2350.9
937.431	2191.16
937.606	2072.37
937.782	2242.36
937.957	2395.95
938.133	2146.1
938.308	1951.54
938.483	2180.92
938.659	1910.58
938.834	2027.32
939.009	1937.21
939.185	2049.85
939.36	1916.73
939.535	1699.64
939.71	2051.89
939.886	2375.47
940.061	2236.21
940.236	1986.36
940.411	1666.88
940.586	2041.65
940.761	2090.81
940.937	1691.45
941.112	1650.49
941.287	1883.96
941.462	1804.09
941.637	1582.91
941.812	1699.64
941.987	1908.54
942.162	1808.19
942.337	1785.66
942.512	1490.75
942.687	1873.72
942.862	1918.78
943.037	1523.52
943.212	1193.8
943.386	1718.08
943.561	1902.39
943.736	1630.01
943.911	1765.18
944.086	1703.74
944.26	1785.66
944.435	1496.89
944.61	1566.53
944.785	1933.11
944.959	2035.51
945.134	1474.37
945.309	1490.75
945.483	1537.85
945.658	1881.91
945.833	1199.94
946.007	1427.26
946.182	1963.83
946.357	1453.89
946.531	1371.97
946.706	1339.2
946.88	1226.56
947.055	1601.34
947.229	1357.63
947.404	1335.1
947.578	1892.15
947.752	1515.33
947.927	1328.96
948.101	1312.58
948.276	1619.77
948.45	1609.53
948.624	1556.29
948.799	1388.35
948.973	1756.99
949.147	1402.69
949.321	1527.61
949.496	1314.63
949.67	1843
949.844	1562.43
950.018	1337.15
950.193	1367.87
950.367	2139.96
950.541	1564.48
950.715	1468.22
950.889	1599.29
951.063	1437.5
951.237	1681.21
951.411	1199.94
951.585	1285.95
951.759	1668.92
951.933	1597.24
952.107	1355.58
952.281	1580.86
952.455	1902.39
952.629	1808.19
952.803	1460.03
952.977	1277.76
953.151	1728.31
953.325	1711.93
953.499	1650.49
953.672	1275.71
953.846	1310.53
954.02	1582.91
954.194	1417.02
954.368	1371.97
954.541	1679.16
954.715	1453.89
954.889	1470.27
955.062	1382.21
955.236	1623.87
955.41	1482.56
955.583	1457.98
955.757	1388.35
955.93	1562.43
956.104	1363.78
956.278	1392.45
956.451	1439.55
956.625	1720.12
956.798	2131.76
956.972	1611.58
957.145	1238.85
957.319	1546.05
957.492	1484.61
957.665	1576.77
957.839	1398.59
958.012	1750.84
958.185	1570.62
958.359	1404.74
958.532	1576.77
958.705	1769.27
958.879	1615.68
959.052	1394.5
959.225	1240.9
959.398	1441.6
959.572	1554.24
959.745	1290.05
959.918	1349.44
960.091	1433.41
960.264	1601.34
960.438	1316.67
960.611	1238.85
960.784	1812.28
960.957	1392.45
961.13	1623.87
961.303	1308.48
961.476	1496.89
961.649	1740.6
961.822	1165.12
961.995	1357.63
962.168	1711.93
962.341	1564.48
962.514	1197.89
962.686	1318.72
962.859	1632.06
963.032	1636.16
963.205	1294.15
963.378	1064.77
963.551	1535.81
963.723	1541.95
963.896	1423.17
964.069	1363.78
964.242	1466.17
964.414	1572.67
964.587	1310.53
964.76	1341.25
964.932	1490.75
965.105	1425.22
965.278	1355.58
965.45	1212.23
965.623	1478.46
965.795	1683.26
965.968	1224.51
966.14	1163.08
966.313	1376.06
966.485	1507.13
966.658	1273.67
966.83	1148.74
967.003	1619.77
967.175	1611.58
967.348	1206.08
967.52	1259.33
967.692	1771.32
967.865	1599.29
968.037	1310.53
968.209	1500.99
968.382	1435.46
968.554	1681.21
968.726	1378.11
968.898	1326.91
969.071	1447.74
969.243	1531.71
969.415	1296.19
969.587	1326.91
969.759	1939.26
969.932	1677.12
970.104	1288
970.276	999.24
970.448	1453.89
970.62	1294.15
970.792	1335.1
970.964	1152.84
971.136	1875.77
971.308	1615.68
971.48	1130.31
971.652	1146.69
971.824	1761.08
971.996	1318.72
972.168	1326.91
972.339	1253.19
972.511	1668.92
972.683	1335.1
972.855	1339.2
973.027	1292.1
973.199	1488.7
973.37	1544
973.542	1269.57
973.714	1324.87
973.886	1484.61
974.057	1679.16
974.229	1066.82
974.401	1238.85
974.572	1199.94
974.744	1001.29
974.915	970.57
975.087	1150.79
975.259	1789.75
975.43	1212.23
975.602	1236.8
975.773	1091.4
975.945	1126.21
976.116	1449.79
976.288	1054.53
976.459	1298.24
976.63	1224.51
976.802	1462.08
976.973	1109.83
977.145	1269.57
977.316	1722.17
977.487	1374.02
977.659	1197.89
977.83	1048.39
978.001	1722.17
978.172	1349.44
978.344	1064.77
978.515	1077.06
978.686	1222.47
978.857	1707.84
979.028	1161.03
979.2	1113.92
979.371	1541.95
979.542	1365.82
979.713	1306.43
979.884	812.87
980.055	1128.26
980.226	1163.08
980.397	1097.54
980.568	960.33
980.739	1464.13
980.91	1230.66
981.081	1294.15
981.252	1007.43
981.423	1371.97
981.594	1492.8
981.765	894.79
981.936	1187.65
982.106	1183.56
982.277	1568.57
982.448	1068.87
982.619	1163.08
982.79	1169.22
982.96	1498.94
983.131	1214.27
983.302	876.36
983.472	1099.59
983.643	1310.53
983.814	1101.64
983.984	1034.05
984.155	1175.36
984.326	1494.85
984.496	1083.2
984.667	958.28
984.837	1085.25
985.008	1447.74
985.178	1093.44
985.349	1140.55
985.519	1193.8
985.69	1027.91
985.86	1009.48
986.031	933.7
986.201	1228.61
986.371	1290.05
986.542	913.22
986.712	802.63
986.882	1359.68
987.053	1306.43
987.223	855.88
987.393	1126.21
987.563	999.24
987.734	1283.91
987.904	1267.52
988.074	948.04
988.244	1163.08
988.414	980.81
988.585	966.47
988.755	1085.25
988.925	1177.41
989.095	1566.53
989.265	837.45
989.435	1050.44
989.605	1349.44
989.775	1285.95
989.945	1169.22
990.115	802.63
990.285	1023.81
990.455	1154.88
990.625	991.05
990.795	913.22
990.965	1396.54
991.134	880.46
991.304	921.42
991.474	864.07
991.644	1294.15
991.814	1439.55
991.984	710.47
992.153	796.49
992.323	1068.87
992.493	1144.64
992.662	708.43
992.832	1001.29
993.002	1187.65
993.171	1109.83
993.341	689.99
993.511	956.23
993.68	839.5
993.85	1204.03
994.019	749.39
994.189	757.58
994.358	1044.29
994.528	880.46
994.697	526.16
994.867	759.63
995.036	1351.49
995.206	943.94
995.375	685.9
995.544	878.41
995.714	1216.32
995.883	902.98
996.052	1081.16
996.222	667.47
996.391	1490.75
996.56	1075.01
996.73	644.94
996.899	626.51
997.068	1345.34
997.237	974.66
997.406	757.58
997.576	614.22
997.745	1021.77
997.914	1062.73
998.083	569.16
998.252	689.99
998.421	919.37
998.59	759.63
998.759	614.22
998.928	538.45
999.097	1132.36
999.266	1001.29
999.435	851.78
999.604	569.16
999.773	1427.26
999.942	960.33
1000.111	563.02
1000.28	423.76
1000.448	776.01
1000.617	689.99
1000.786	792.39
1000.955	653.13
1001.124	966.47
1001.292	1535.81
1001.461	681.8
1001.63	563.02
1001.798	1271.62
1001.967	1247.04
1002.136	436.05
1002.304	538.45
1002.473	915.27
1002.642	864.07
1002.81	626.51
1002.979	599.88
1003.147	1023.81
1003.316	1519.42
1003.484	618.32
1003.653	522.06
1003.821	1189.7
1003.99	800.59
1004.158	687.95
1004.327	681.8
1004.495	1007.43
1004.663	675.66
1004.832	642.89
1005	380.75
1005.168	1042.25
1005.337	862.02
1005.505	477.01
1005.673	730.95
1005.842	876.36
1006.01	1029.96
1006.178	610.12
1006.346	499.53
1006.514	943.94
1006.683	1142.6
1006.851	587.6
1007.019	558.92
1007.187	667.47
1007.355	212.82
1007.523	382.8
1007.691	448.33
1007.859	487.25
1008.027	1007.43
1008.195	567.12
1008.363	405.33
1008.531	1032.01
1008.699	706.38
1008.867	440.14
1009.035	556.88
1009.203	1062.73
1009.37	692.04
1009.538	548.68
1009.706	931.66
1009.874	823.11
1010.042	751.43
1010.209	384.85
1010.377	413.52
1010.545	1007.43
1010.713	755.53
1010.88	477.01
1011.048	458.57
1011.216	743.24
1011.383	1062.73
1011.551	411.47
1011.718	370.51
1011.886	960.33
1012.054	663.37
1012.221	311.12
1012.389	427.85
1012.556	651.08
1012.724	1109.83
1012.891	528.21
1013.058	384.85
1013.226	859.98
1013.393	847.69
1013.561	337.74
1013.728	345.94
1013.895	943.94
1014.063	884.55
1014.23	362.32
1014.397	302.93
1014.565	880.46
1014.732	626.51
1014.899	360.27
1015.066	327.5
1015.233	753.48
1015.401	948.04
1015.568	456.53
1015.735	509.77
1015.902	657.23
1016.069	812.87
1016.236	405.33
1016.403	350.03
1016.57	479.05
1016.737	913.22
1016.904	548.68
1017.071	366.42
1017.238	534.35
1017.405	900.94
1017.572	370.51
1017.739	632.65
1017.906	874.31
1018.073	841.54
1018.24	259.92
1018.407	372.56
1018.573	819.02
1018.74	573.26
1018.907	378.7
1019.074	249.68
1019.241	909.13
1019.407	700.23
1019.574	317.26
1019.741	169.81
1019.907	677.71
1020.074	800.59
1020.241	257.87
1020.407	290.64
1020.574	708.43
1020.74	730.95
1020.907	331.6
1021.073	270.16
1021.24	1058.63
1021.406	929.61
1021.573	270.16
1021.739	294.74
1021.906	794.44
1022.072	628.56
1022.239	245.59
1022.405	345.94
1022.571	548.68
1022.738	372.56
1022.904	331.6
1023.07	388.94
1023.237	552.78
1023.403	773.96
1023.569	253.78
1023.735	319.31
1023.902	689.99
1024.068	628.56
1024.234	237.39
1024.4	202.58
1024.566	665.42
1024.732	843.59
1024.898	311.12
1025.065	94.04
1025.231	737.1
1025.397	411.47
1025.563	186.19
1025.729	120.66
1025.895	180.05
1026.061	401.23
1026.227	145.24
1026.392	253.78
1026.558	724.81
1026.724	679.75
1026.89	249.68
1027.056	350.03
1027.222	712.52
1027.388	468.81
1027.553	202.58
1027.719	206.67
1027.885	935.75
1028.051	632.65
1028.216	10.07
1028.382	151.38
1028.548	687.95
1028.713	431.95
1028.879	114.52
1029.045	399.18
1029.21	917.32
1029.376	771.91
1029.541	354.13
1029.707	169.81
1029.873	601.93
1030.038	681.8
1030.204	182.1
1030.369	280.4
1030.534	675.66
1030.7	425.81
1030.865	300.88
1031.031	110.42
1031.196	532.3
1031.361	626.51
1031.527	102.23
1031.692	102.23
1031.857	163.67
1032.023	618.32
1032.188	55.12
1032.353	202.58
1032.518	907.08
1032.684	593.74
1032.849	24.4
1033.014	173.91
1033.179	685.9
1033.344	579.4
1033.509	284.5
1033.674	180.05
1033.839	769.87
1034.004	618.32
1034.17	104.28
1034.335	98.13
1034.5	434
1034.664	368.46
1034.829	114.52
1034.994	223.06
1035.159	657.23
1035.324	536.4
1035.489	227.15
1035.654	151.38
1035.819	737.1
1035.984	464.72
1036.148	126.8
1036.313	155.47
1036.478	692.04
1036.643	501.58
1036.807	137.04
1036.972	-14.51
1037.137	862.02
1037.301	446.29
1037.466	69.46
1037.631	184.15
1037.795	755.53
1037.96	499.53
1038.124	302.93
1038.289	89.94
1038.454	556.88
1038.618	472.91
1038.783	151.38
1038.947	212.82
1039.111	454.48
1039.276	272.21
1039.44	141.14
1039.605	468.81
1039.769	331.6
1039.933	454.48
1040.098	212.82
1040.262	251.73
1040.426	677.71
1040.591	569.16
1040.755	24.4
1040.919	165.71
1041.083	560.97
1041.248	384.85
1041.412	-106.67
1041.576	32.6
1041.74	360.27
1041.904	696.14
1042.068	40.79
1042.232	132.95
1042.397	573.26
1042.561	511.82
1042.725	-129.19
1042.889	278.35
1043.053	630.6
1043.217	581.45
1043.381	243.54
1043.544	-4.27
1043.708	739.15
1043.872	112.47
1044.036	-215.21
1044.2	-57.51
1044.364	653.13
1044.528	749.39
1044.691	4564.75
1044.855	-6.31
1045.019	704.33
1045.183	509.77
1045.346	100.18
1045.51	-20.65
1045.674	536.4
1045.837	655.18
1046.001	20.31
1046.165	100.18
1046.328	925.51
1046.492	495.44
1046.655	286.54
1046.819	128.85
1046.983	288.59
1047.146	550.73
1047.31	169.81
1047.473	-139.43
1047.636	345.94
1047.8	167.76
1047.963	81.75
1048.127	-14.51
1048.29	163.67
