Data from Ink_Intensity_USB4F045381__157__00157.txt Node

Date: Mon Jul 17 11:32:06 EDT 2023
User: mmckonesweet
Spectrometer: USB4F04538
Trigger mode: 4
Integration Time (sec): 9.000000E-1
Scans to average: 1
Electric dark correction enabled: true
Nonlinearity correction enabled: false
Boxcar width: 0
XAxis mode: Wavelengths
Number of Pixels in Spectrum: 3648
>>>>>Begin Spectral Data<<<<<
345.52	-1017.16
345.736	-1017.16
345.952	-1017.16
346.168	-1021.25
346.384	-1011.01
346.6	-93.52
346.816	-177.49
347.032	-279.89
347.248	342.69
347.464	-263.51
347.68	-97.62
347.896	123.56
348.112	318.12
348.328	-62.8
348.544	-150.87
348.76	15.02
348.975	326.31
349.191	-245.07
349.407	-257.36
349.623	25.26
349.839	-89.43
350.055	-132.44
350.27	15.02
350.486	219.82
350.702	314.02
350.918	252.58
351.133	-247.12
351.349	211.62
351.565	287.4
351.781	-238.93
351.996	103.08
352.212	287.4
352.428	-87.38
352.644	-216.4
352.859	-259.41
353.075	242.34
353.291	148.14
353.506	-165.2
353.722	-247.12
353.938	-34.13
354.153	461.48
354.369	162.47
354.584	-132.44
354.8	246.44
355.016	-351.57
355.231	-234.83
355.447	-73.04
355.662	115.37
355.878	803.49
356.093	-380.24
356.309	-7.51
356.524	-253.27
356.74	197.29
356.955	-247.12
357.171	-132.44
357.386	146.09
357.602	-120.15
357.817	-126.29
358.033	-210.26
358.248	387.75
358.464	195.24
358.679	-132.44
358.895	-275.79
359.11	25.26
359.325	322.21
359.541	23.21
359.756	-99.67
359.972	-312.66
360.187	139.94
360.402	-169.3
360.618	-181.59
360.833	1047.19
361.048	113.32
361.264	-247.12
361.479	-73.04
361.694	0.68
361.909	211.62
362.125	-206.16
362.34	-128.34
362.555	271.01
362.77	129.7
362.986	-292.18
363.201	-265.55
363.416	195.24
363.631	90.79
363.847	-230.74
364.062	-140.63
364.277	166.57
364.492	86.7
364.707	-142.68
364.922	-410.96
365.138	219.82
365.353	395.94
365.568	-212.31
365.783	-173.39
365.998	49.83
366.213	477.86
366.428	-286.03
366.643	74.41
366.858	221.86
367.073	170.66
367.288	-138.58
367.503	-267.6
367.718	64.17
367.933	289.45
368.148	-370
368.363	-130.39
368.578	-38.23
368.793	443.04
369.008	-126.29
369.223	-204.11
369.438	246.44
369.653	432.8
369.868	-288.08
370.083	-304.46
370.298	70.31
370.513	369.32
370.728	29.35
370.943	-253.27
371.157	-193.87
371.372	551.59
371.587	-251.22
371.802	-247.12
372.017	135.85
372.232	393.89
372.446	-42.32
372.661	-222.55
372.876	215.72
373.091	203.43
373.306	-93.52
373.52	-310.61
373.735	-173.39
373.95	383.65
374.165	-128.34
374.379	-118.1
374.594	-152.92
374.809	133.8
375.023	-34.13
375.238	-253.27
375.453	221.86
375.667	-300.37
375.882	-187.73
376.097	-304.46
376.311	84.65
376.526	-54.61
376.741	-202.07
376.955	39.59
377.17	475.81
377.384	518.82
377.599	-62.8
377.813	-247.12
378.028	547.49
378.242	187.05
378.457	-62.8
378.672	-374.1
378.886	0.68
379.101	-71
379.315	-365.9
379.53	-179.54
379.744	172.71
379.958	180.9
380.173	-138.58
380.387	-197.97
380.602	133.8
380.816	-111.96
381.031	-136.53
381.245	-159.06
381.459	86.7
381.674	2704
381.888	-169.3
382.103	119.46
382.317	-138.58
382.531	400.04
382.746	-126.29
382.96	-157.01
383.174	-52.56
383.388	330.41
383.603	92.84
383.817	-255.31
384.031	96.94
384.246	422.56
384.46	10.92
384.674	361.13
384.888	-13.65
385.103	68.27
385.317	-247.12
385.531	-87.38
385.745	328.36
385.959	303.78
386.174	-228.69
386.388	-275.79
386.602	47.79
386.816	-152.92
387.03	-193.87
387.244	-195.92
387.458	55.98
387.672	334.5
387.887	-351.57
388.101	-234.83
388.315	373.41
388.529	146.09
388.743	-161.11
388.957	-253.27
389.171	338.6
389.385	-140.63
389.599	-105.81
389.813	43.69
390.027	205.48
390.241	635.55
390.455	-165.2
390.669	-195.92
390.883	-128.34
391.097	381.6
391.311	-27.99
391.525	-236.88
391.738	164.52
391.952	178.86
392.166	-120.15
392.38	-212.31
392.594	271.01
392.808	297.64
393.022	-81.24
393.236	-191.83
393.449	225.96
393.663	172.71
393.877	-251.22
394.091	-124.24
394.305	-95.57
394.518	-81.24
394.732	-288.08
394.946	-193.87
395.16	389.8
395.373	121.51
395.587	-183.63
395.801	-238.93
396.015	309.93
396.228	178.86
396.442	-288.08
396.656	-353.62
396.869	268.97
397.083	428.71
397.297	-62.8
397.51	-163.15
397.724	373.41
397.938	170.66
398.151	-337.23
398.365	-370
398.578	236.2
398.792	383.65
399.005	0.68
399.219	-173.39
399.433	92.84
399.646	187.05
399.86	35.5
400.073	-19.8
400.287	187.05
400.5	-116.05
400.714	-13.65
400.927	-124.24
401.141	197.29
401.354	1122.97
401.567	232.1
401.781	-298.32
401.994	203.43
402.208	570.02
402.421	-120.15
402.635	-193.87
402.848	-42.32
403.061	201.38
403.275	-58.71
403.488	-351.57
403.701	506.53
403.915	180.9
404.128	6.83
404.341	-140.63
404.555	160.42
404.768	12.97
404.981	45.74
405.195	-275.79
405.408	430.76
405.621	211.62
405.834	41.64
406.048	-238.93
406.261	397.99
406.474	426.66
406.687	-152.92
406.9	-23.89
407.114	51.88
407.327	154.28
407.54	-353.62
407.753	-337.23
407.966	-81.24
408.179	236.2
408.392	-304.46
408.605	-271.7
408.819	121.51
409.032	105.13
409.245	-189.78
409.458	-54.61
409.671	211.62
409.884	230.06
410.097	-365.9
410.31	-25.94
410.523	260.77
410.736	27.31
410.949	-85.33
411.162	-142.68
411.375	342.69
411.588	228.01
411.801	19.11
412.014	-271.7
412.227	72.36
412.44	-42.32
412.653	-150.87
412.865	-34.13
413.078	228.01
413.291	170.66
413.504	-58.71
413.717	-286.03
413.93	252.58
414.143	-97.62
414.356	-75.09
414.568	-320.85
414.781	279.21
414.994	66.22
415.207	-73.04
415.42	-146.77
415.632	209.58
415.845	477.86
416.058	-341.33
416.271	-296.27
416.483	74.41
416.696	438.95
416.909	-179.54
417.121	-157.01
417.334	174.76
417.547	588.45
417.759	-206.16
417.972	-193.87
418.185	2.73
418.397	301.73
418.61	-197.97
418.823	-197.97
419.035	418.47
419.248	47.79
419.46	-91.48
419.673	-75.09
419.885	125.61
420.098	76.46
420.311	-175.44
420.523	-402.77
420.736	236.2
420.948	19.11
421.161	-226.64
421.373	-353.62
421.586	129.7
421.798	-138.58
422.01	-333.14
422.223	-25.94
422.435	-81.24
422.648	228.01
422.86	-189.78
423.073	-173.39
423.285	228.01
423.497	-320.85
423.71	-218.45
423.922	-228.69
424.134	137.9
424.347	352.93
424.559	-1.37
424.771	74.41
424.984	15.02
425.196	84.65
425.408	-398.67
425.621	-384.34
425.833	268.97
426.045	391.84
426.257	-288.08
426.47	-122.2
426.682	109.22
426.894	146.09
427.106	-161.11
427.318	-234.83
427.531	-73.04
427.743	338.6
427.955	-245.07
428.167	191.14
428.379	195.24
428.591	-36.18
428.804	-116.05
429.016	-267.6
429.228	-50.52
429.44	180.9
429.652	43.69
429.864	-283.99
430.076	60.07
430.288	-32.08
430.5	-126.29
430.712	-140.63
430.924	217.77
431.136	92.84
431.348	-398.67
431.56	-197.97
431.772	8.87
431.984	-107.86
432.196	-206.16
432.408	-157.01
432.62	-52.56
432.832	150.18
433.044	53.93
433.256	-161.11
433.468	191.14
433.679	-318.8
433.891	-304.46
434.103	76.46
434.315	402.08
434.527	172.71
434.739	-177.49
434.95	-214.35
435.162	262.82
435.374	-193.87
435.586	-197.97
435.798	-212.31
436.009	-249.17
436.221	-23.89
436.433	-251.22
436.645	-154.96
436.856	-83.28
437.068	338.6
437.28	-275.79
437.491	74.41
437.703	109.22
437.915	129.7
438.126	-212.31
438.338	-1.37
438.55	17.07
438.761	172.71
438.973	-146.77
439.184	-148.82
439.396	-9.56
439.608	201.38
439.819	-306.51
440.031	-60.76
440.242	141.99
440.454	228.01
440.665	-177.49
440.877	-44.37
441.088	125.61
441.3	-30.04
441.511	-353.62
441.723	-193.87
441.934	166.57
442.146	10.92
442.357	-71
442.569	88.75
442.78	66.22
442.991	473.76
443.203	166.57
443.414	-320.85
443.626	328.36
443.837	-99.67
444.048	-247.12
444.26	-320.85
444.471	90.79
444.682	240.29
444.894	-415.06
445.105	-339.28
445.316	264.87
445.528	141.99
445.739	-91.48
445.95	-79.19
446.161	-7.51
446.373	260.77
446.584	-181.59
446.795	-206.16
447.006	176.81
447.217	348.84
447.429	-370
447.64	-359.76
447.851	383.65
448.062	35.5
448.273	-367.95
448.484	-296.27
448.695	232.1
448.907	-30.04
449.118	-109.91
449.329	51.88
449.54	-122.2
449.751	-142.68
449.962	-230.74
450.173	-161.11
450.384	311.97
450.595	322.21
450.806	-195.92
451.017	-216.4
451.228	391.84
451.439	223.91
451.65	-275.79
451.861	-406.86
452.072	-202.07
452.283	47.79
452.494	-42.32
452.705	-230.74
452.915	395.94
453.126	88.75
453.337	-138.58
453.548	-302.42
453.759	303.78
453.97	535.2
454.181	-25.94
454.391	-218.45
454.602	10.92
454.813	152.23
455.024	-183.63
455.235	-191.83
455.445	12.97
455.656	141.99
455.867	-21.85
456.078	-169.3
456.288	-58.71
456.499	115.37
456.71	-345.42
456.921	6.83
457.131	125.61
457.342	74.41
457.553	-165.2
457.763	-261.46
457.974	174.76
458.184	266.92
458.395	-306.51
458.606	-300.37
458.816	281.25
459.027	457.38
459.237	-187.73
459.448	-410.96
459.659	248.49
459.869	600.74
460.08	-402.77
460.29	-111.96
460.501	465.57
460.711	-197.97
460.922	-359.76
461.132	-226.64
461.343	713.38
461.553	-206.16
461.764	-271.7
461.974	-212.31
462.184	205.48
462.395	64.17
462.605	-228.69
462.816	-320.85
463.026	107.18
463.236	285.35
463.447	-294.22
463.657	-333.14
463.867	211.62
464.078	-97.62
464.288	-138.58
464.498	-279.89
464.709	-54.61
464.919	6.83
465.129	-175.44
465.339	-345.42
465.55	172.71
465.76	213.67
465.97	-283.99
466.18	-193.87
466.391	197.29
466.601	96.94
466.811	-165.2
467.021	-345.42
467.231	82.6
467.441	240.29
467.651	-187.73
467.862	-451.92
468.072	6.83
468.282	412.32
468.492	-298.32
468.702	-130.39
468.912	-13.65
469.122	617.12
469.332	45.74
469.542	-335.18
469.752	205.48
469.962	-23.89
470.172	-288.08
470.382	-306.51
470.592	215.72
470.802	326.31
471.012	-126.29
471.222	-202.07
471.432	283.3
471.642	228.01
471.852	-134.48
472.062	-310.61
472.272	-64.85
472.482	-197.97
472.691	-261.46
472.901	-290.13
473.111	55.98
473.321	537.25
473.531	-271.7
473.741	-105.81
473.95	158.38
474.16	178.86
474.37	-99.67
474.58	-361.81
474.79	445.09
474.999	254.63
475.209	-355.66
475.419	-298.32
475.628	-15.7
475.838	238.25
476.048	-175.44
476.258	-349.52
476.467	322.21
476.677	-13.65
476.886	-79.19
477.096	-161.11
477.306	-157.01
477.515	275.11
477.725	-197.97
477.935	-146.77
478.144	375.46
478.354	-107.86
478.563	-138.58
478.773	-283.99
478.982	232.1
479.192	199.34
479.401	-87.38
479.611	-314.7
479.82	-181.59
480.03	137.9
480.239	-269.65
480.449	-359.76
480.658	352.93
480.868	-64.85
481.077	-208.21
481.287	-189.78
481.496	172.71
481.705	397.99
481.915	6.83
482.124	74.41
482.333	82.6
482.543	293.54
482.752	-142.68
482.961	-288.08
483.171	191.14
483.38	60.07
483.589	-222.55
483.799	-294.22
484.008	-38.23
484.217	234.15
484.426	-185.68
484.636	-302.42
484.845	15.02
485.054	-197.97
485.263	43.69
485.472	-232.79
485.682	449.19
485.891	35.5
486.1	-384.34
486.309	-302.42
486.518	182.95
486.727	375.46
486.936	-304.46
487.146	-44.37
487.355	311.97
487.564	-220.5
487.773	-191.83
487.982	-234.83
488.191	-118.1
488.4	117.42
488.609	-197.97
488.818	-263.51
489.027	598.69
489.236	381.6
489.445	-132.44
489.654	-339.28
489.863	223.91
490.072	68.27
490.281	133.8
490.49	-222.55
490.698	303.78
490.907	449.19
491.116	-269.65
491.325	-333.14
491.534	289.45
491.743	137.9
491.952	-193.87
492.16	-140.63
492.369	207.53
492.578	189.1
492.787	-150.87
492.996	-329.04
493.204	-95.57
493.413	436.9
493.622	-449.87
493.831	-447.82
494.039	397.99
494.248	-118.1
494.457	-304.46
494.665	-402.77
494.874	199.34
495.083	512.67
495.291	-222.55
495.5	-245.07
495.709	297.64
495.917	25.26
496.126	-68.95
496.335	-279.89
496.543	-71
496.752	150.18
496.96	68.27
497.169	-388.43
497.377	15.02
497.586	316.07
497.794	-114
498.003	-480.59
498.211	-34.13
498.42	352.93
498.628	-179.54
498.837	-333.14
499.045	129.7
499.254	70.31
499.462	-279.89
499.671	-341.33
499.879	436.9
500.087	271.01
500.296	-292.18
500.504	-263.51
500.713	41.64
500.921	641.7
501.129	-394.58
501.338	-249.17
501.546	47.79
501.754	70.31
501.962	-165.2
502.171	-320.85
502.379	154.28
502.587	475.81
502.795	-251.22
503.004	-208.21
503.212	4.78
503.42	369.32
503.628	-212.31
503.837	-214.35
504.045	146.09
504.253	463.52
504.461	-269.65
504.669	-427.34
504.877	248.49
505.085	359.08
505.294	-406.86
505.502	-99.67
505.71	84.65
505.918	250.53
506.126	-320.85
506.334	-288.08
506.542	58.03
506.75	111.27
506.958	-185.68
507.166	-226.64
507.374	-58.71
507.582	459.43
507.79	-157.01
507.998	-257.36
508.206	144.04
508.414	135.85
508.622	-197.97
508.83	-218.45
509.037	547.49
509.245	-11.61
509.453	-320.85
509.661	-243.03
509.869	178.86
510.077	-58.71
510.285	-120.15
510.492	-578.89
510.7	684.7
510.908	-91.48
511.116	-193.87
511.324	-318.8
511.531	-64.85
511.739	31.4
511.947	-185.68
512.155	94.89
512.362	154.28
512.57	-238.93
512.778	-286.03
512.985	-410.96
513.193	303.78
513.401	379.56
513.608	-195.92
513.816	-243.03
514.024	185
514.231	289.45
514.439	-275.79
514.646	-261.46
514.854	217.77
515.061	287.4
515.269	-253.27
515.477	-200.02
515.684	-195.92
515.892	217.77
516.099	-361.81
516.307	-417.1
516.514	258.73
516.722	434.85
516.929	-218.45
517.136	-304.46
517.344	387.75
517.551	197.29
517.759	-304.46
517.966	-189.78
518.173	-25.94
518.381	29.35
518.588	-247.12
518.796	-283.99
519.003	316.07
519.21	-15.7
519.418	-202.07
519.625	43.69
519.832	-44.37
520.039	154.28
520.247	-398.67
520.454	-238.93
520.661	221.86
520.868	248.49
521.076	-277.84
521.283	-173.39
521.49	666.27
521.697	187.05
521.904	-259.41
522.112	-197.97
522.319	219.82
522.526	205.48
522.733	-318.8
522.94	-353.62
523.147	60.07
523.354	279.21
523.561	-355.66
523.768	-126.29
523.975	299.69
524.183	19.11
524.39	-177.49
524.597	-402.77
524.804	2.73
525.011	-97.62
525.218	-318.8
525.425	-255.31
525.632	324.26
525.838	-165.2
526.045	-214.35
526.252	-249.17
526.459	1075.87
526.666	893.6
526.873	-347.47
527.08	-281.94
527.287	365.22
527.494	201.38
527.701	-312.66
527.907	-296.27
528.114	180.9
528.321	129.7
528.528	-193.87
528.735	-296.27
528.941	-71
529.148	-71
529.355	-132.44
529.562	-275.79
529.768	516.77
529.975	-54.61
530.182	-185.68
530.388	-230.74
530.595	271.01
530.802	-179.54
531.008	-79.19
531.215	-251.22
531.422	359.08
531.628	817.82
531.835	-140.63
532.042	-114
532.248	-95.57
532.455	135.85
532.661	-126.29
532.868	-275.79
533.074	152.23
533.281	326.31
533.487	-126.29
533.694	-253.27
533.9	-148.82
534.107	277.16
534.313	-326.99
534.52	-333.14
534.726	213.67
534.933	522.91
535.139	-298.32
535.345	-400.72
535.552	146.09
535.758	88.75
535.965	-222.55
536.171	-269.65
536.377	207.53
536.584	361.13
536.79	-290.13
536.996	-140.63
537.203	68.27
537.409	219.82
537.615	-210.26
537.821	-122.2
538.028	277.16
538.234	250.53
538.44	-277.84
538.646	-120.15
538.853	213.67
539.059	23.21
539.265	156.33
539.471	-425.29
539.677	275.11
539.883	-19.8
540.09	-232.79
540.296	146.09
540.502	43.69
540.708	-116.05
540.914	-75.09
541.12	-240.98
541.326	221.86
541.532	17.07
541.738	-140.63
541.944	-202.07
542.15	338.6
542.356	-66.9
542.562	-339.28
542.768	-167.25
542.974	649.89
543.18	565.92
543.386	-245.07
543.592	-437.58
543.798	379.56
544.004	387.75
544.21	-222.55
544.415	-140.63
544.621	117.42
544.827	367.27
545.033	-355.66
545.239	-15.7
545.445	-275.79
545.651	193.19
545.856	-281.94
546.062	-326.99
546.268	37.55
546.474	74.41
546.679	-218.45
546.885	-152.92
547.091	29.35
547.297	535.2
547.502	-175.44
547.708	-353.62
547.914	-36.18
548.119	182.95
548.325	-331.09
548.531	-392.53
548.736	598.69
548.942	-54.61
549.147	-232.79
549.353	-34.13
549.559	408.23
549.764	105.13
549.97	-232.79
550.175	-204.11
550.381	174.76
550.586	-62.8
550.792	-181.59
550.997	-146.77
551.203	176.81
551.408	238.25
551.614	-322.9
551.819	-326.99
552.025	449.19
552.23	529.06
552.435	-312.66
552.641	-79.19
552.846	-66.9
553.052	449.19
553.257	-75.09
553.462	-107.86
553.668	-34.13
553.873	236.2
554.078	-333.14
554.283	-226.64
554.489	68.27
554.694	60.07
554.899	-251.22
555.105	-77.14
555.31	236.2
555.515	273.06
555.72	-38.23
555.925	-271.7
556.131	205.48
556.336	10.92
556.541	-265.55
556.746	-320.85
556.951	406.18
557.156	463.52
557.361	-175.44
557.567	-83.28
557.772	584.35
557.977	228.01
558.182	-181.59
558.387	-249.17
558.592	-42.32
558.797	334.5
559.002	-103.76
559.207	-97.62
559.412	129.7
559.617	563.87
559.822	-218.45
560.027	-286.03
560.232	141.99
560.437	336.55
560.642	-365.9
560.847	-283.99
561.051	88.75
561.256	207.53
561.461	-68.95
561.666	-302.42
561.871	160.42
562.076	213.67
562.281	-157.01
562.485	-286.03
562.69	252.58
562.895	322.21
563.1	-214.35
563.305	-267.6
563.509	350.89
563.714	641.7
563.919	-195.92
564.123	-267.6
564.328	41.64
564.533	443.04
564.737	-99.67
564.942	-185.68
565.147	418.47
565.351	590.5
565.556	-77.14
565.761	-46.42
565.965	176.81
566.17	-107.86
566.374	-177.49
566.579	-230.74
566.784	172.71
566.988	-58.71
567.193	-337.23
567.397	-165.2
567.602	-130.39
567.806	-17.75
568.011	-177.49
568.215	-191.83
568.42	37.55
568.624	133.8
568.828	-148.82
569.033	-21.85
569.237	266.92
569.442	174.76
569.646	-304.46
569.85	-214.35
570.055	107.18
570.259	170.66
570.463	101.03
570.668	-185.68
570.872	162.47
571.076	15.02
571.281	-91.48
571.485	-105.81
571.689	164.52
571.893	309.93
572.098	8.87
572.302	-193.87
572.506	293.54
572.71	88.75
572.914	-46.42
573.119	-120.15
573.323	481.96
573.527	375.46
573.731	-105.81
573.935	-150.87
574.139	232.1
574.343	2.73
574.547	-126.29
574.751	-152.92
574.955	455.33
575.159	469.67
575.364	-114
575.568	-195.92
575.772	133.8
575.976	461.48
576.18	-144.72
576.383	-279.89
576.587	473.76
576.791	228.01
576.995	-329.04
577.199	-316.75
577.403	320.17
577.607	395.94
577.811	-312.66
578.015	-91.48
578.219	148.14
578.422	350.89
578.626	0.68
578.83	-38.23
579.034	369.32
579.238	201.38
579.442	-185.68
579.645	170.66
579.849	166.57
580.053	88.75
580.257	-177.49
580.46	-95.57
580.664	281.25
580.868	219.82
581.071	29.35
581.275	43.69
581.479	-165.2
581.682	283.3
581.886	-177.49
582.09	-89.43
582.293	334.5
582.497	383.65
582.7	27.31
582.904	-222.55
583.107	209.58
583.311	86.7
583.515	-25.94
583.718	31.4
583.922	311.97
584.125	471.72
584.329	-193.87
584.532	39.59
584.735	531.11
584.939	279.21
585.142	-345.42
585.346	-163.15
585.549	293.54
585.753	8.87
585.956	-83.28
586.159	39.59
586.363	639.65
586.566	289.45
586.769	-154.96
586.973	-214.35
587.176	271.01
587.379	477.86
587.582	125.61
587.786	43.69
587.989	105.13
588.192	778.91
588.395	0.68
588.599	207.53
588.802	297.64
589.005	285.35
589.208	-120.15
589.411	-1.37
589.615	453.28
589.818	592.55
590.021	131.75
590.224	23.21
590.427	400.04
590.63	367.27
590.833	-202.07
591.036	-179.54
591.239	121.51
591.442	70.31
591.645	141.99
591.848	-60.76
592.051	314.02
592.254	412.32
592.457	-71
592.66	68.27
592.863	170.66
593.066	320.17
593.269	-75.09
593.472	-11.61
593.675	-32.08
593.878	484
594.081	-5.46
594.284	-165.2
594.486	277.16
594.689	258.73
594.892	-1.37
595.095	-40.28
595.298	408.23
595.5	64.17
595.703	31.4
595.906	141.99
596.109	590.5
596.311	369.32
596.514	-341.33
596.717	33.45
596.92	524.96
597.122	375.46
597.325	-298.32
597.528	-136.53
597.73	512.67
597.933	281.25
598.136	-71
598.338	-337.23
598.541	402.08
598.743	594.59
598.946	0.68
599.148	2.73
599.351	490.15
599.554	383.65
599.756	121.51
599.959	-68.95
600.161	475.81
600.363	858.78
600.566	197.29
600.768	-56.66
600.971	613.03
601.173	563.87
601.376	-142.68
601.578	-34.13
601.78	432.8
601.983	789.15
602.185	-126.29
602.388	129.7
602.59	271.01
602.792	129.7
602.995	228.01
603.197	-66.9
603.399	504.48
603.601	352.93
603.804	4.78
604.006	-5.46
604.208	238.25
604.41	-62.8
604.613	152.23
604.815	-56.66
605.017	772.77
605.219	55.98
605.421	400.04
605.623	23.21
605.826	578.21
606.028	621.22
606.23	-19.8
606.432	19.11
606.634	703.14
606.836	635.55
607.038	-58.71
607.24	127.66
607.442	318.12
607.644	305.83
607.846	166.57
608.048	-42.32
608.25	592.55
608.452	162.47
608.654	31.4
608.856	-165.2
609.058	236.2
609.26	418.47
609.462	23.21
609.664	133.8
609.866	756.38
610.067	481.96
610.269	254.63
610.471	115.37
610.673	217.77
610.875	498.34
611.077	-116.05
611.278	148.14
611.48	271.01
611.682	715.42
611.884	41.64
612.085	101.03
612.287	158.38
612.489	420.52
612.69	-30.04
612.892	154.28
613.094	596.64
613.295	303.78
613.497	-103.76
613.699	82.6
613.9	686.75
614.102	567.97
614.304	156.33
614.505	-136.53
614.707	330.41
614.908	404.13
615.11	-136.53
615.311	211.62
615.513	481.96
615.714	500.39
615.916	-132.44
616.117	158.38
616.319	297.64
616.52	416.42
616.722	109.22
616.923	60.07
617.124	629.41
617.326	498.34
617.527	148.14
617.729	336.55
617.93	547.49
618.131	537.25
618.333	53.93
618.534	168.62
618.735	281.25
618.937	801.44
619.138	-56.66
619.339	-56.66
619.54	408.23
619.742	363.17
619.943	250.53
620.144	90.79
620.345	475.81
620.546	615.07
620.748	-11.61
620.949	17.07
621.15	424.61
621.351	576.16
621.552	113.32
621.753	-5.46
621.954	-7.51
622.155	926.36
622.356	-56.66
622.558	182.95
622.759	389.8
622.96	758.43
623.161	139.94
623.362	174.76
623.563	461.48
623.764	348.84
623.965	182.95
624.166	322.21
624.366	477.86
624.567	490.15
624.768	-169.3
624.969	68.27
625.17	299.69
625.371	602.79
625.572	203.43
625.773	72.36
625.973	649.89
626.174	527.01
626.375	166.57
626.576	178.86
626.777	522.91
626.977	1018.52
627.178	70.31
627.379	277.16
627.58	342.69
627.78	414.37
627.981	240.29
628.182	256.68
628.382	668.32
628.583	2.73
628.784	-30.04
628.984	295.59
629.185	594.59
629.386	617.12
629.586	162.47
629.787	158.38
629.987	629.41
630.188	369.32
630.388	158.38
630.589	273.06
630.79	1063.58
630.99	379.56
631.191	285.35
631.391	338.6
631.591	694.94
631.792	846.49
631.992	359.08
632.193	240.29
632.393	875.17
632.594	451.24
632.794	176.81
632.994	320.17
633.195	408.23
633.395	508.58
633.595	88.75
633.796	318.12
633.996	291.49
634.196	656.03
634.397	27.31
634.597	359.08
634.797	264.87
634.997	793.25
635.198	428.71
635.398	135.85
635.598	522.91
635.798	813.73
635.998	610.98
636.199	154.28
636.399	346.79
636.599	277.16
636.799	268.97
636.999	385.7
637.199	539.3
637.399	678.56
637.599	137.9
637.799	275.11
637.999	348.84
638.199	785.05
638.399	170.66
638.599	256.68
638.799	572.07
638.999	924.32
639.199	357.03
639.399	318.12
639.599	821.92
639.799	285.35
639.999	49.83
640.199	49.83
640.399	537.25
640.599	686.75
640.799	342.69
640.998	504.48
641.198	912.03
641.398	588.45
641.598	309.93
641.798	297.64
641.997	1452.69
642.197	549.54
642.397	346.79
642.597	246.44
642.796	772.77
642.996	862.88
643.196	402.08
643.395	88.75
643.595	637.6
643.795	119.46
643.994	367.27
644.194	377.51
644.394	746.14
644.593	672.42
644.793	176.81
644.992	496.29
645.192	643.74
645.392	236.2
645.591	432.8
645.791	299.69
645.99	744.1
646.19	531.11
646.389	400.04
646.589	387.75
646.788	795.29
646.987	703.14
647.187	572.07
647.386	651.94
647.586	582.31
647.785	813.73
647.984	336.55
648.184	395.94
648.383	524.96
648.582	416.42
648.782	352.93
648.981	522.91
649.18	451.24
649.38	674.46
649.579	359.08
649.778	314.02
649.977	703.14
650.177	676.51
650.376	299.69
650.575	397.99
650.774	924.32
650.973	391.84
651.173	197.29
651.372	375.46
651.571	639.65
651.77	852.64
651.969	334.5
652.168	551.59
652.367	346.79
652.566	707.23
652.765	371.36
652.964	604.83
653.163	1180.31
653.362	461.48
653.561	322.21
653.76	354.98
653.959	664.22
654.158	723.62
654.357	651.94
654.556	445.09
654.755	877.21
654.954	815.77
655.153	432.8
655.352	457.38
655.551	907.93
655.749	441
655.948	469.67
656.147	443.04
656.346	686.75
656.545	613.03
656.743	469.67
656.942	500.39
657.141	672.42
657.34	463.52
657.538	416.42
657.737	410.28
657.936	572.07
658.135	778.91
658.333	410.28
658.532	533.15
658.731	1088.15
658.929	912.03
659.128	848.54
659.326	434.85
659.525	854.69
659.724	680.61
659.922	182.95
660.121	334.5
660.319	760.48
660.518	514.72
660.716	350.89
660.915	381.6
661.113	1170.07
661.312	457.38
661.51	502.43
661.709	363.17
661.907	838.3
662.105	1032.86
662.304	445.09
662.502	527.01
662.701	961.18
662.899	717.47
663.097	801.44
663.296	258.73
663.494	993.95
663.692	1036.95
663.891	481.96
664.089	408.23
664.287	787.1
664.485	989.85
664.684	424.61
664.882	610.98
665.08	680.61
665.278	678.56
665.476	330.41
665.675	873.12
665.873	1299.09
666.071	1055.39
666.269	418.47
666.467	819.87
666.665	793.25
666.863	694.94
667.061	592.55
667.259	537.25
667.457	746.14
667.655	977.56
667.853	295.59
668.051	608.93
668.249	555.68
668.447	830.11
668.645	455.33
668.843	807.58
669.041	924.32
669.239	586.4
669.437	744.1
669.635	637.6
669.833	574.11
670.031	858.78
670.229	608.93
670.426	696.99
670.624	680.61
670.822	508.58
671.02	512.67
671.218	584.35
671.415	572.07
671.613	840.35
671.811	670.37
672.009	594.59
672.206	918.17
672.404	848.54
672.602	756.38
672.799	610.98
672.997	909.98
673.195	1022.62
673.392	664.22
673.59	379.56
673.788	914.08
673.985	342.69
674.183	633.5
674.38	596.64
674.578	979.61
674.775	600.74
674.973	531.11
675.17	502.43
675.368	1102.49
675.565	993.95
675.763	551.59
675.96	496.29
676.158	1100.44
676.355	893.6
676.553	578.21
676.75	613.03
676.947	854.69
677.145	725.66
677.342	742.05
677.539	641.7
677.737	926.36
677.934	1348.25
678.131	740
678.329	625.31
678.526	1282.71
678.723	1088.15
678.92	750.24
679.118	600.74
679.315	668.32
679.512	1141.4
679.709	692.9
679.906	776.86
680.104	1043.1
680.301	932.51
680.498	594.59
680.695	588.45
680.892	707.23
681.089	727.71
681.286	731.81
681.483	461.48
681.68	965.28
681.877	1096.35
682.075	721.57
682.272	850.59
682.469	1030.81
682.665	885.41
682.862	565.92
683.059	535.2
683.256	981.66
683.453	842.4
683.65	694.94
683.847	754.34
684.044	811.68
684.241	557.73
684.438	760.48
684.635	608.93
684.831	1309.33
685.028	1327.77
685.225	570.02
685.422	836.25
685.619	883.36
685.815	1022.62
686.012	639.65
686.209	760.48
686.405	696.99
686.602	1069.72
686.799	547.49
686.996	508.58
687.192	598.69
687.389	1510.04
687.586	666.27
687.782	656.03
687.979	1342.1
688.175	1161.88
688.372	703.14
688.568	778.91
688.765	740
688.962	1188.5
689.158	805.53
689.355	574.11
689.551	1082.01
689.748	785.05
689.944	766.62
690.14	604.83
690.337	1219.22
690.533	733.86
690.73	1030.81
690.926	785.05
691.123	1133.21
691.319	928.41
691.515	621.22
691.712	950.94
691.908	1155.74
692.104	1108.63
692.301	916.12
692.497	647.84
692.693	1161.88
692.889	1114.78
693.086	920.22
693.282	543.39
693.478	895.64
693.674	1317.53
693.87	801.44
694.067	664.22
694.263	1094.3
694.459	862.88
694.655	922.27
694.851	813.73
695.047	1161.88
695.243	1176.22
695.439	973.47
695.635	658.08
695.831	1118.87
696.027	932.51
696.224	717.47
696.42	1245.85
696.615	1383.06
696.811	1227.42
697.007	584.35
697.203	729.76
697.399	1084.06
697.595	1344.15
697.791	711.33
697.987	950.94
698.183	733.86
698.379	916.12
698.575	785.05
698.77	885.41
698.966	1198.74
699.162	1276.57
699.358	875.17
699.554	930.46
699.749	1104.54
699.945	1188.5
700.141	936.6
700.337	846.49
700.532	950.94
700.728	879.26
700.924	694.94
701.119	752.29
701.315	1129.11
701.511	977.56
701.706	901.79
701.902	649.89
702.097	1028.76
702.293	1114.78
702.489	932.51
702.684	889.5
702.88	1084.06
703.075	1010.33
703.271	893.6
703.466	787.1
703.662	1096.35
703.857	1251.99
704.053	850.59
704.248	883.36
704.443	1225.37
704.639	1186.46
704.834	850.59
705.03	879.26
705.225	1186.46
705.42	1387.16
705.616	858.78
705.811	801.44
706.006	1034.91
706.202	961.18
706.397	1012.38
706.592	772.77
706.787	1184.41
706.983	1221.27
707.178	1131.16
707.373	967.32
707.568	1315.48
707.763	1262.23
707.959	860.83
708.154	842.4
708.349	1241.75
708.544	1206.94
708.739	1141.4
708.934	813.73
709.129	1391.25
709.324	1401.49
709.519	791.2
709.714	776.86
709.909	1401.49
710.104	1223.32
710.299	852.64
710.494	998.04
710.689	1286.81
710.884	1211.03
711.079	1114.78
711.274	1161.88
711.469	1211.03
711.664	1153.69
711.859	965.28
712.054	1055.39
712.249	1358.49
712.443	1331.86
712.638	787.1
712.833	932.51
713.028	1047.19
713.223	1047.19
713.417	1157.78
713.612	998.04
713.807	1354.39
714.002	1737.36
714.196	1143.45
714.391	924.32
714.586	1354.39
714.78	1129.11
714.975	1004.19
715.17	1032.86
715.364	1034.91
715.559	1458.84
715.754	668.32
715.948	834.21
716.143	1768.08
716.337	1243.8
716.532	1215.13
716.726	1014.43
716.921	1370.77
717.115	1673.87
717.31	795.29
717.504	1407.64
717.699	1114.78
717.893	1313.43
718.088	981.66
718.282	850.59
718.476	1325.72
718.671	1432.21
718.865	959.13
719.059	860.83
719.254	1227.42
719.448	1518.23
719.642	2271.88
719.837	778.91
720.031	1378.97
720.225	1460.88
720.419	1204.89
720.614	844.45
720.808	1428.12
721.002	1155.74
721.196	895.64
721.39	1030.81
721.585	1501.84
721.779	1251.99
721.973	1100.44
722.167	899.74
722.361	1370.77
722.555	1591.95
722.749	916.12
722.943	1008.28
723.137	932.51
723.331	1331.86
723.525	1030.81
723.719	1006.24
723.913	1268.38
724.107	1591.95
724.301	989.85
724.495	1004.19
724.689	1686.16
724.883	1522.32
725.077	1034.91
725.271	1018.52
725.465	1528.47
725.659	1254.04
725.853	1243.8
726.046	899.74
726.24	1045.15
726.434	1456.79
726.628	952.99
726.822	1090.2
727.015	1530.52
727.209	1581.71
727.403	1034.91
727.596	942.75
727.79	1510.04
727.984	1489.56
728.177	1008.28
728.371	1145.5
728.565	1563.28
728.758	873.12
728.952	1018.52
729.146	1000.09
729.339	1567.38
729.533	1342.1
729.726	1055.39
729.92	977.56
730.113	1575.57
730.307	1376.92
730.5	1100.44
730.694	1010.33
730.887	1237.66
731.081	1460.88
731.274	858.78
731.468	1057.43
731.661	1333.91
731.854	1163.93
732.048	1077.91
732.241	912.03
732.435	1215.13
732.628	1362.58
732.821	1153.69
733.014	996
733.208	1010.33
733.401	1538.71
733.594	1082.01
733.788	1118.87
733.981	1589.91
734.174	1503.89
734.367	1149.59
734.56	1176.22
734.754	1464.98
734.947	1364.63
735.14	1014.43
735.333	1176.22
735.526	1604.24
735.719	1122.97
735.912	1059.48
736.105	1188.5
736.298	1376.92
736.491	1245.85
736.684	1104.54
736.877	1122.97
737.07	1450.64
737.263	1671.83
737.456	1112.73
737.649	1118.87
737.842	1247.9
738.035	1407.64
738.228	1149.59
738.421	1442.45
738.614	1667.73
738.807	1587.86
739	989.85
739.192	1092.25
739.385	1548.95
739.578	1481.36
739.771	1544.85
739.964	1231.51
740.156	1450.64
740.349	1381.01
740.542	1307.29
740.735	1127.07
740.927	1057.43
741.12	1145.5
741.313	1241.75
741.505	1338.01
741.698	1505.94
741.891	1620.63
742.083	1301.14
742.276	1213.08
742.468	1370.77
742.661	1417.88
742.854	1135.26
743.046	1149.59
743.239	1821.33
743.431	1313.43
743.624	1223.32
743.816	1020.57
744.009	1360.53
744.201	1516.18
744.393	1376.92
744.586	1178.26
744.778	1645.2
744.971	1428.12
745.163	1358.49
745.355	1274.52
745.548	1438.36
745.74	1335.96
745.932	1301.14
746.125	1182.36
746.317	1915.53
746.509	1471.12
746.702	1274.52
746.894	1276.57
747.086	1510.04
747.278	1763.98
747.471	1393.3
747.663	1290.9
747.855	1417.88
748.047	1946.25
748.239	1206.94
748.431	1170.07
748.623	1911.44
748.815	1854.09
749.008	1163.93
749.2	1104.54
749.392	1643.15
749.584	1665.68
749.776	1262.23
749.968	1329.81
750.16	1944.2
750.352	1383.06
750.544	1288.85
750.736	1251.99
750.928	1612.43
751.12	1417.88
751.311	1215.13
751.503	1344.15
751.695	1544.85
751.887	1442.45
752.079	1028.76
752.271	1264.28
752.463	2351.75
752.654	1718.93
752.846	1307.29
753.038	1260.18
753.23	1432.21
753.421	1788.56
753.613	1292.95
753.805	1516.18
753.997	1753.74
754.188	1739.41
754.38	1270.42
754.572	1211.03
754.763	1460.88
754.955	1708.69
755.146	1303.19
755.338	1426.07
755.53	1731.22
755.721	1450.64
755.913	1110.68
756.104	1249.94
756.296	1479.32
756.487	1759.89
756.679	1270.42
756.87	1278.62
757.062	1430.16
757.253	1632.91
757.445	1428.12
757.636	1376.92
757.827	1499.8
758.019	2155.15
758.21	1186.46
758.401	1264.28
758.593	2030.22
758.784	1796.75
758.975	1208.98
759.167	1231.51
759.358	1518.23
759.549	1784.46
759.74	1436.31
759.932	1393.3
760.123	1823.37
760.314	1505.94
760.505	1440.4
760.696	1239.7
760.888	2122.38
761.079	1473.17
761.27	1268.38
761.461	1092.25
761.652	1802.9
761.843	1456.79
762.034	1403.54
762.225	1604.24
762.416	1583.76
762.607	1624.72
762.798	1401.49
762.989	1256.09
763.18	2353.8
763.371	1598.1
763.562	1514.13
763.753	1350.29
763.944	1768.08
764.135	1768.08
764.326	1522.32
764.517	1325.72
764.708	1821.33
764.899	1755.79
765.089	1370.77
765.28	1286.81
765.471	1700.5
765.662	1731.22
765.853	1436.31
766.043	1110.68
766.234	1782.42
766.425	1860.24
766.615	1407.64
766.806	1108.63
766.997	1878.67
767.187	1587.86
767.378	1251.99
767.569	1147.55
767.759	1804.94
767.95	1698.45
768.141	1516.18
768.331	1243.8
768.522	1618.58
768.712	1747.6
768.903	1415.83
769.093	1256.09
769.284	2097.8
769.474	1540.76
769.665	1149.59
769.855	1125.02
770.046	1723.02
770.236	1553.04
770.426	1542.8
770.617	1274.52
770.807	1698.45
770.998	1546.9
771.188	1528.47
771.378	1315.48
771.569	1757.84
771.759	1743.5
771.949	1387.16
772.139	1135.26
772.33	1759.89
772.52	2159.24
772.71	1208.98
772.9	1139.35
773.09	2083.47
773.281	1833.61
773.471	1356.44
773.661	1391.25
773.851	1819.28
774.041	1421.97
774.231	1278.62
774.421	1479.32
774.611	1931.92
774.802	1657.49
774.992	1454.74
775.182	1278.62
775.372	1550.99
775.562	1880.72
775.752	1272.47
775.942	1407.64
776.131	1927.82
776.321	1677.97
776.511	1331.86
776.701	1278.62
776.891	1813.13
777.081	1452.69
777.271	1458.84
777.461	1284.76
777.651	1915.53
777.84	1931.92
778.03	1458.84
778.22	1358.49
778.41	2067.08
778.599	1514.13
778.789	1391.25
778.979	1321.62
779.169	1751.7
779.358	1612.43
779.548	1677.97
779.738	1176.22
779.927	1743.5
780.117	1362.58
780.307	1335.96
780.496	1057.43
780.686	1727.12
780.875	2089.61
781.065	1364.63
781.254	1387.16
781.444	1620.63
781.633	1704.59
781.823	1327.77
782.012	1358.49
782.202	1514.13
782.391	1598.1
782.581	1333.91
782.77	1587.86
782.96	1802.9
783.149	1690.26
783.338	1317.53
783.528	1280.66
783.717	1968.78
783.906	1882.77
784.096	1518.23
784.285	1299.09
784.474	1528.47
784.663	1477.27
784.853	1444.5
785.042	1479.32
785.231	1452.69
785.42	1964.68
785.61	1479.32
785.799	1356.44
785.988	1542.8
786.177	1665.68
786.366	1528.47
786.555	1507.99
786.744	1831.57
786.933	1602.19
787.122	1204.89
787.312	1172.12
787.501	1491.6
787.69	1831.57
787.879	1385.11
788.068	1399.45
788.257	1354.39
788.445	1530.52
788.634	1374.87
788.823	1295
789.012	2316.94
789.201	1952.4
789.39	1467.03
789.579	1407.64
789.768	1690.26
789.957	1622.67
790.145	1239.7
790.334	1026.71
790.523	1522.32
790.712	1706.64
790.9	1561.23
791.089	1260.18
791.278	1913.49
791.467	1702.54
791.655	1624.72
791.844	1905.29
792.033	1366.68
792.221	1653.39
792.41	1362.58
792.599	1270.42
792.787	1702.54
792.976	1907.34
793.164	1233.56
793.353	1426.07
793.541	1852.05
793.73	1729.17
793.918	1364.63
794.107	1227.42
794.295	1622.67
794.484	1743.5
794.672	1350.29
794.861	1389.21
795.049	1755.79
795.238	2120.33
795.426	1243.8
795.614	1393.3
795.803	1723.02
795.991	2046.6
796.179	1450.64
796.368	1325.72
796.556	1913.49
796.744	1366.68
796.932	1458.84
797.121	1372.82
797.309	1618.58
797.497	1950.35
797.685	1491.6
797.874	1286.81
798.062	1532.56
798.25	2003.6
798.438	1346.2
798.626	1399.45
798.814	1819.28
799.002	2325.13
799.19	1600.15
799.378	1428.12
799.566	1841.81
799.755	1974.92
799.943	1596.05
800.131	1532.56
800.318	1723.02
800.506	1731.22
800.694	1458.84
800.882	1561.23
801.07	1909.39
801.258	1591.95
801.446	1432.21
801.634	1333.91
801.822	1655.44
802.01	1686.16
802.197	1559.19
802.385	1559.19
802.573	1952.4
802.761	1528.47
802.949	1624.72
803.136	1311.38
803.324	2089.61
803.512	1843.85
803.699	1538.71
803.887	1354.39
804.075	2085.51
804.262	1739.41
804.45	1448.6
804.638	1696.4
804.825	1473.17
805.013	1630.87
805.201	1507.99
805.388	1366.68
805.576	1759.89
805.763	2245.26
805.951	1538.71
806.138	1591.95
806.326	2171.53
806.513	1919.63
806.701	1450.64
806.888	1469.08
807.075	1915.53
807.263	2153.1
807.45	1409.69
807.638	1583.76
807.825	2284.17
808.012	2009.74
808.2	1714.83
808.387	1794.7
808.574	1876.62
808.761	2132.62
808.949	1518.23
809.136	1749.65
809.323	1839.76
809.51	1792.66
809.698	1800.85
809.885	1686.16
810.072	1802.9
810.259	2108.04
810.446	1575.57
810.633	1532.56
810.82	2235.02
811.008	2206.34
811.195	1727.12
811.382	1677.97
811.569	1917.58
811.756	1530.52
811.943	1739.41
812.13	1579.67
812.317	1893.01
812.504	1788.56
812.691	1596.05
812.878	1802.9
813.064	2214.54
813.251	1938.06
813.438	1628.82
813.625	1704.59
813.812	1919.63
813.999	1837.71
814.186	1684.11
814.372	1737.36
814.559	2005.64
814.746	2296.46
814.933	1641.11
815.12	1948.3
815.306	1817.23
815.493	1749.65
815.68	1596.05
815.866	1804.94
816.053	2335.37
816.24	2425.48
816.426	1735.31
816.613	1569.43
816.799	2120.33
816.986	2275.98
817.173	1610.39
817.359	1735.31
817.546	2026.12
817.732	1608.34
817.919	1469.08
818.105	1706.64
818.292	1899.15
818.478	2062.99
818.665	1931.92
818.851	1589.91
819.037	2534.02
819.224	2071.18
819.41	1727.12
819.597	1673.87
819.783	2392.71
819.969	2089.61
820.156	1778.32
820.342	1735.31
820.528	2671.23
820.714	1981.07
820.901	1913.49
821.087	1667.73
821.273	2427.53
821.459	1976.97
821.646	1723.02
821.832	1696.4
822.018	1987.21
822.204	1981.07
822.39	1718.93
822.576	1575.57
822.762	2181.77
822.948	1981.07
823.134	1893.01
823.32	1827.47
823.507	1647.25
823.693	1979.02
823.879	2081.42
824.065	1696.4
824.25	1997.45
824.436	1786.51
824.622	1692.3
824.808	1610.39
824.994	1757.84
825.18	1823.37
825.366	1694.35
825.552	1714.83
825.738	1880.72
825.923	2245.26
826.109	1966.73
826.295	1628.82
826.481	1852.05
826.667	1956.49
826.852	1915.53
827.038	1780.37
827.224	2230.92
827.409	2497.16
827.595	1610.39
827.781	1983.12
827.966	2189.96
828.152	2202.25
828.338	1745.55
828.523	1602.19
828.709	1823.37
828.894	2382.47
829.08	1766.03
829.266	1794.7
829.451	1870.48
829.637	2171.53
829.822	1931.92
830.008	1696.4
830.193	2235.02
830.378	2372.23
830.564	1755.79
830.749	1696.4
830.935	2155.15
831.12	2214.54
831.305	1536.66
831.491	1723.02
831.676	1671.83
831.861	2118.28
832.047	1788.56
832.232	1571.47
832.417	2323.08
832.602	1985.16
832.788	1665.68
832.973	1729.17
833.158	1985.16
833.343	2015.88
833.528	1850
833.714	1792.66
833.899	2050.7
834.084	2484.87
834.269	2089.61
834.454	1792.66
834.639	2165.39
834.824	2030.22
835.009	1952.4
835.194	1913.49
835.379	2218.63
835.564	2376.33
835.749	2007.69
835.934	1632.91
836.119	2230.92
836.304	1999.5
836.489	1780.37
836.674	1866.38
836.859	1852.05
837.044	2312.84
837.228	1751.7
837.413	1684.11
837.598	2153.1
837.783	2200.2
837.968	1751.7
838.152	1649.3
838.337	1571.47
838.522	2284.17
838.707	2271.88
838.891	1940.11
839.076	2192.01
839.261	2359.94
839.445	1716.88
839.63	1923.73
839.815	2452.1
839.999	1931.92
840.184	1723.02
840.368	1759.89
840.553	2218.63
840.737	2058.89
840.922	1583.76
841.106	1665.68
841.291	1784.46
841.475	1903.25
841.66	1768.08
841.844	1768.08
842.029	2767.49
842.213	1673.87
842.397	1655.44
842.582	1667.73
842.766	2316.94
842.951	2251.4
843.135	1817.23
843.319	1682.06
843.504	2132.62
843.688	2214.54
843.872	1555.09
844.056	1690.26
844.241	2058.89
844.425	1989.26
844.609	1944.2
844.793	1550.99
844.977	2286.22
845.161	2083.47
845.346	1677.97
845.53	1675.92
845.714	1952.4
845.898	2448.01
846.082	1530.52
846.266	1796.75
846.45	2159.24
846.634	2153.1
846.818	1561.23
847.002	1893.01
847.186	2169.48
847.37	1804.94
847.554	1628.82
847.738	1933.97
847.922	2022.03
848.106	2089.61
848.29	1743.5
848.473	1673.87
848.657	2194.06
848.841	1936.01
849.025	1813.13
849.209	1526.42
849.392	2230.92
849.576	1858.19
849.76	1344.15
849.944	1850
850.127	2292.36
850.311	1798.8
850.495	1731.22
850.678	1581.71
850.862	2374.28
851.046	2556.55
851.229	1952.4
851.413	1663.63
851.596	2118.28
851.78	2091.66
851.964	1907.34
852.147	1833.61
852.331	2646.66
852.514	2400.9
852.698	1966.73
852.881	1518.23
853.065	2302.6
853.248	1825.42
853.431	1913.49
853.615	1950.35
853.798	2470.53
853.982	2075.27
854.165	1802.9
854.348	1786.51
854.532	1794.7
854.715	1874.57
854.898	1880.72
855.081	1940.11
855.265	2232.97
855.448	2466.44
855.631	1702.54
855.814	1682.06
855.997	2243.21
856.181	1962.64
856.364	1747.6
856.547	1682.06
856.73	2087.56
856.913	2134.67
857.096	1581.71
857.279	1819.28
857.462	1866.38
857.645	2126.47
857.828	1862.29
858.011	1884.81
858.194	1850
858.377	2153.1
858.56	1639.06
858.743	1620.63
858.926	1784.46
859.109	2128.52
859.292	1686.16
859.475	1428.12
859.658	2275.98
859.841	2116.23
860.023	1680.02
860.206	1704.59
860.389	2087.56
860.572	2296.46
860.755	1747.6
860.937	1622.67
861.12	2085.51
861.303	1931.92
861.486	1772.18
861.668	1550.99
861.851	1964.68
862.034	2112.14
862.216	1833.61
862.399	1534.61
862.581	2046.6
862.764	2251.4
862.947	1763.98
863.129	1579.67
863.312	1634.96
863.494	2292.36
863.677	2128.52
863.859	1448.6
864.042	2036.36
864.224	2452.1
864.406	1956.49
864.589	1469.08
864.771	2065.04
864.954	1790.61
865.136	1606.29
865.318	1467.03
865.501	2050.7
865.683	1561.23
865.865	1616.53
866.048	1690.26
866.23	2052.75
866.412	1917.58
866.594	1587.86
866.777	1727.12
866.959	2153.1
867.141	1888.91
867.323	1972.88
867.505	1852.05
867.687	2019.98
867.869	2048.65
868.052	1565.33
868.234	1727.12
868.416	2003.6
868.598	2136.71
868.78	1708.69
868.962	1612.43
869.144	2192.01
869.326	2122.38
869.508	1657.49
869.69	1579.67
869.872	1927.82
870.054	2232.97
870.236	1565.33
870.417	1677.97
870.599	1858.19
870.781	2361.99
870.963	1741.46
871.145	1606.29
871.327	1794.7
871.508	2177.67
871.69	1620.63
871.872	1659.54
872.054	1927.82
872.235	2196.11
872.417	1835.66
872.599	1620.63
872.78	2394.76
872.962	1993.36
873.144	1493.65
873.325	1665.68
873.507	2380.42
873.689	2058.89
873.87	1657.49
874.052	1770.13
874.233	1827.47
874.415	2321.03
874.596	1800.85
874.778	1618.58
874.959	2062.99
875.141	2216.58
875.322	1909.39
875.503	1628.82
875.685	2046.6
875.866	1626.77
876.048	1639.06
876.229	1628.82
876.41	1903.25
876.592	2173.58
876.773	1757.84
876.954	1467.03
877.136	2271.88
877.317	1944.2
877.498	1481.36
877.679	1686.16
877.86	2120.33
878.042	1991.31
878.223	1866.38
878.404	1968.78
878.585	2124.43
878.766	2425.48
878.947	2060.94
879.128	2087.56
879.309	2235.02
879.49	2331.27
879.672	1870.48
879.853	1829.52
880.034	1813.13
880.215	1905.29
880.396	1774.22
880.576	1727.12
880.757	1675.92
880.938	2386.57
881.119	1733.26
881.3	1628.82
881.481	1915.53
881.662	3005.05
881.843	1624.72
882.023	1616.53
882.204	2163.34
882.385	2083.47
882.566	1761.94
882.747	1841.81
882.927	2062.99
883.108	2116.23
883.289	1782.42
883.469	2017.93
883.65	2085.51
883.831	2146.95
884.011	1989.26
884.192	1862.29
884.373	2439.81
884.553	2247.3
884.734	1940.11
884.914	2255.5
885.095	2900.61
885.275	2599.55
885.456	2108.04
885.636	1733.26
885.817	2149
885.997	2255.5
886.178	1667.73
886.358	1944.2
886.538	2226.82
886.719	3129.98
886.899	1841.81
887.08	1962.64
887.26	2448.01
887.44	1899.15
887.621	1850
887.801	2103.95
887.981	2781.82
888.161	2458.25
888.342	1948.3
888.522	2054.8
888.702	2525.83
888.882	2488.96
889.062	1958.54
889.242	1723.02
889.423	2669.19
889.603	2357.89
889.783	2181.77
889.963	1890.96
890.143	2323.08
890.323	2531.97
890.503	2046.6
890.683	2024.08
890.863	2321.03
891.043	2263.69
891.223	2181.77
891.403	2247.3
891.583	2280.07
891.763	2284.17
891.943	1987.21
892.122	1899.15
892.302	2333.32
892.482	2255.5
892.662	2194.06
892.842	2136.71
893.022	2435.72
893.201	2153.1
893.381	2232.97
893.561	2097.8
893.741	2423.43
893.92	2302.6
894.1	2085.51
894.28	2077.32
894.459	2517.64
894.639	2415.24
894.819	2136.71
894.998	2114.19
895.178	2472.58
895.357	2505.35
895.537	2040.46
895.716	2011.79
895.896	2214.54
896.075	2663.04
896.255	2173.58
896.434	1847.95
896.614	2673.28
896.793	2679.43
896.973	2161.29
897.152	2108.04
897.331	2417.29
897.511	2691.71
897.69	1960.59
897.87	2204.3
898.049	2499.2
898.228	2382.47
898.407	2345.61
898.587	2255.5
898.766	2134.67
898.945	2534.02
899.124	2515.59
899.304	2235.02
899.483	2566.79
899.662	2837.12
899.841	2093.71
900.02	2099.85
900.199	2558.6
900.378	2433.67
900.557	1940.11
900.737	2009.74
900.916	2536.07
901.095	2534.02
901.274	2316.94
901.453	2034.32
901.632	2251.4
901.811	2091.66
901.989	2085.51
902.168	2079.37
902.347	2548.36
902.526	2126.47
902.705	2149
902.884	2171.53
903.063	2613.89
903.242	2677.38
903.42	2011.79
903.599	2089.61
903.778	2548.36
903.957	2757.25
904.135	2329.22
904.314	2161.29
904.493	2558.6
904.672	2556.55
904.85	2132.62
905.029	2022.03
905.207	2431.62
905.386	3041.92
905.565	1925.77
905.743	2124.43
905.922	2392.71
906.1	2581.12
906.279	1993.36
906.457	2030.22
906.636	2288.26
906.814	2359.94
906.993	1997.45
907.171	2058.89
907.35	2376.33
907.528	2714.24
907.707	2273.93
907.885	2054.8
908.063	2611.84
908.242	2124.43
908.42	2050.7
908.598	1991.31
908.777	2534.02
908.955	2321.03
909.133	2136.71
909.311	1923.73
909.49	2206.34
909.668	2286.22
909.846	1942.16
910.024	1880.72
910.202	2353.8
910.38	2378.37
910.559	1845.9
910.737	1956.49
910.915	2261.64
911.093	2359.94
911.271	1907.34
911.449	2222.73
911.627	2345.61
911.805	2669.19
911.983	2009.74
912.161	2089.61
912.339	2366.09
912.517	2554.5
912.695	2237.06
912.872	2181.77
913.05	2087.56
913.228	2286.22
913.406	1936.01
913.584	1864.33
913.762	2443.91
913.939	2052.75
914.117	1890.96
914.295	1845.9
914.473	2454.15
914.65	2312.84
914.828	1987.21
915.006	1960.59
915.184	1915.53
915.361	2423.43
915.539	2157.19
915.716	2089.61
915.894	2235.02
916.072	2460.29
916.249	2316.94
916.427	2103.95
916.604	2036.36
916.782	2407.05
916.959	1723.02
917.137	1993.36
917.314	2284.17
917.492	2413.19
917.669	1979.02
917.847	1923.73
918.024	2366.09
918.201	1964.68
918.379	1976.97
918.556	2007.69
918.733	2351.75
918.911	2083.47
919.088	2142.86
919.265	1999.5
919.442	2140.81
919.62	2087.56
919.797	1864.33
919.974	1655.44
920.151	2218.63
920.328	2161.29
920.506	1860.24
920.683	2030.22
920.86	1817.23
921.037	1870.48
921.214	1954.44
921.391	1751.7
921.568	2200.2
921.745	1921.68
921.922	1761.94
922.099	1800.85
922.276	2337.41
922.453	2161.29
922.63	1821.33
922.807	2105.99
922.984	2022.03
923.161	1952.4
923.338	1768.08
923.514	1743.5
923.691	1968.78
923.868	2237.06
924.045	1733.26
924.222	1624.72
924.399	2192.01
924.575	2275.98
924.752	1890.96
924.929	1907.34
925.105	2046.6
925.282	1841.81
925.459	1827.47
925.635	1817.23
925.812	1979.02
925.989	1866.38
926.165	1796.75
926.342	1485.46
926.518	1792.66
926.695	2019.98
926.871	1696.4
927.048	1620.63
927.224	2101.9
927.401	1854.09
927.577	1837.71
927.754	1688.21
927.93	2226.82
928.107	2226.82
928.283	1553.04
928.459	1720.98
928.636	2036.36
928.812	1870.48
928.988	1632.91
929.165	1450.64
929.341	1798.8
929.517	1907.34
929.693	2001.55
929.87	1419.92
930.046	1964.68
930.222	1786.51
930.398	1542.8
930.574	1632.91
930.751	1790.61
930.927	1665.68
931.103	1712.78
931.279	1587.86
931.455	1501.84
931.631	1850
931.807	1350.29
931.983	1389.21
932.159	1542.8
932.335	1768.08
932.511	1497.75
932.687	1448.6
932.863	1893.01
933.039	1776.27
933.215	1428.12
933.391	1317.53
933.566	1739.41
933.742	1718.93
933.918	1464.98
934.094	1280.66
934.27	1763.98
934.445	1686.16
934.621	1514.13
934.797	1280.66
934.973	1829.52
935.148	1776.27
935.324	1161.88
935.5	1096.35
935.675	1772.18
935.851	1526.42
936.027	1319.57
936.202	1292.95
936.378	1737.36
936.553	1374.87
936.729	1626.77
936.904	1204.89
937.08	1247.9
937.255	1297.05
937.431	1094.3
937.606	950.94
937.782	1297.05
937.957	1471.12
938.133	1141.4
938.308	973.47
938.483	1319.57
938.659	1063.58
938.834	1165.98
939.009	942.75
939.185	1170.07
939.36	1014.43
939.535	674.46
939.71	1153.69
939.886	1426.07
940.061	1313.43
940.236	1065.63
940.411	1018.52
940.586	1338.01
940.761	1206.94
940.937	821.92
941.112	729.76
941.287	1030.81
941.462	975.52
941.637	703.14
941.812	838.3
941.987	1194.65
942.162	1108.63
942.337	1026.71
942.512	801.44
942.687	1301.14
942.862	1239.7
943.037	737.95
943.212	475.81
943.386	1065.63
943.561	1047.19
943.736	926.36
943.911	1161.88
944.086	1157.78
944.26	1041.05
944.435	916.12
944.61	852.64
944.785	1268.38
944.959	1376.92
945.134	805.53
945.309	713.38
945.483	860.83
945.658	1194.65
945.833	498.34
946.007	662.18
946.182	1360.53
946.357	674.46
946.531	686.75
946.706	766.62
946.88	643.74
947.055	996
947.229	703.14
947.404	744.1
947.578	1178.26
947.752	875.17
947.927	643.74
948.101	537.25
948.276	975.52
948.45	948.89
948.624	789.15
948.799	772.77
948.973	965.28
949.147	758.43
949.321	699.04
949.496	791.2
949.67	1227.42
949.844	965.28
950.018	748.19
950.193	637.6
950.367	1534.61
950.541	885.41
950.715	842.4
950.889	875.17
951.063	897.69
951.237	1184.41
951.411	449.19
951.585	465.57
951.759	1129.11
951.933	936.6
952.107	707.23
952.281	840.35
952.455	1372.82
952.629	1168.02
952.803	713.38
952.977	729.76
953.151	1122.97
953.325	1118.87
953.499	938.65
953.672	653.98
953.846	627.36
954.02	881.31
954.194	696.99
954.368	740
954.541	1034.91
954.715	862.88
954.889	858.78
955.062	631.46
955.236	875.17
955.41	871.07
955.583	926.36
955.757	553.63
955.93	936.6
956.104	752.29
956.278	715.42
956.451	748.19
956.625	1110.68
956.798	1292.95
956.972	998.04
957.145	647.84
957.319	842.4
957.492	940.7
957.665	879.26
957.839	660.13
958.012	1057.43
958.185	637.6
958.359	649.89
958.532	871.07
958.705	1075.87
958.879	1077.91
959.052	735.9
959.225	520.87
959.398	983.71
959.572	1049.24
959.745	680.61
959.918	852.64
960.091	940.7
960.264	1108.63
960.438	584.35
960.611	633.5
960.784	1116.83
960.957	811.68
961.13	1104.54
961.303	606.88
961.476	983.71
961.649	1112.73
961.822	557.73
961.995	772.77
962.168	1088.15
962.341	907.93
962.514	670.37
962.686	588.45
962.859	1049.24
963.032	1041.05
963.205	662.18
963.378	537.25
963.551	1008.28
963.723	942.75
963.896	871.07
964.069	799.39
964.242	850.59
964.414	1112.73
964.587	742.05
964.76	785.05
964.932	1108.63
965.105	848.54
965.278	729.76
965.45	647.84
965.623	1006.24
965.795	1092.25
965.968	752.29
966.14	613.03
966.313	916.12
966.485	975.52
966.658	709.28
966.83	506.53
967.003	1307.29
967.175	1073.82
967.348	613.03
967.52	727.71
967.692	1297.05
967.865	1055.39
968.037	680.61
968.209	957.08
968.382	875.17
968.554	1219.22
968.726	713.38
968.898	647.84
969.071	1086.11
969.243	1016.48
969.415	735.9
969.587	764.57
969.759	1397.4
969.932	1131.16
970.104	752.29
970.276	467.62
970.448	899.74
970.62	678.56
970.792	752.29
970.964	653.98
971.136	1501.84
971.308	1028.76
971.48	555.68
971.652	664.22
971.824	1256.09
971.996	776.86
972.168	682.66
972.339	740
972.511	1145.5
972.683	844.45
972.855	967.32
973.027	647.84
973.199	932.51
973.37	1079.96
973.542	838.3
973.714	801.44
973.886	924.32
974.057	1106.59
974.229	457.38
974.401	668.32
974.572	787.1
974.744	459.43
974.915	443.04
975.087	645.79
975.259	1247.9
975.43	727.71
975.602	666.27
975.773	490.15
975.945	690.85
976.116	1041.05
976.288	670.37
976.459	834.21
976.63	772.77
976.802	930.46
976.973	606.88
977.145	715.42
977.316	1262.23
977.487	1235.61
977.659	780.96
977.83	684.7
978.001	1254.04
978.172	912.03
978.344	592.55
978.515	592.55
978.686	719.52
978.857	1122.97
979.028	543.39
979.2	449.19
979.371	1192.6
979.542	840.35
979.713	838.3
979.884	228.01
980.055	649.89
980.226	819.87
980.397	469.67
980.568	502.43
980.739	1120.92
980.91	748.19
981.081	801.44
981.252	481.96
981.423	1002.14
981.594	1100.44
981.765	481.96
981.936	754.34
982.106	850.59
982.277	1129.11
982.448	518.82
982.619	809.63
982.79	772.77
982.96	975.52
983.131	711.33
983.302	336.55
983.472	750.24
983.643	871.07
983.814	721.57
983.984	469.67
984.155	737.95
984.326	1006.24
984.496	639.65
984.667	588.45
984.837	639.65
985.008	1186.46
985.178	709.28
985.349	533.15
985.519	780.96
985.69	705.18
985.86	610.98
986.031	488.1
986.201	948.89
986.371	846.49
986.542	486.05
986.712	404.13
986.882	879.26
987.053	848.54
987.223	502.43
987.393	717.47
987.563	733.86
987.734	1057.43
987.904	881.31
988.074	520.87
988.244	893.6
988.414	742.05
988.585	443.04
988.755	711.33
988.925	758.43
989.095	1174.17
989.265	479.91
989.435	660.13
989.605	955.04
989.775	952.99
989.945	740
990.115	422.56
990.285	762.53
990.455	834.21
990.625	606.88
990.795	441
990.965	1129.11
991.134	397.99
991.304	400.04
991.474	385.7
991.644	918.17
991.814	1026.71
991.984	281.25
992.153	344.74
992.323	793.25
992.493	705.18
992.662	283.3
992.832	590.5
993.002	756.38
993.171	946.84
993.341	379.56
993.511	637.6
993.68	649.89
993.85	854.69
994.019	287.4
994.189	348.84
994.358	813.73
994.528	547.49
994.697	170.66
994.867	371.36
995.036	899.74
995.206	643.74
995.375	447.14
995.544	563.87
995.714	883.36
995.883	696.99
996.052	653.98
996.222	266.92
996.391	1149.59
996.56	727.71
996.73	361.13
996.899	215.72
997.068	1073.82
997.237	664.22
997.406	324.26
997.576	256.68
997.745	703.14
997.914	772.77
998.083	90.79
998.252	369.32
998.421	723.62
998.59	512.67
998.759	336.55
998.928	164.52
999.097	936.6
999.266	793.25
999.435	441
999.604	221.86
999.773	1051.29
999.942	606.88
1000.111	211.62
1000.28	262.82
1000.448	465.57
1000.617	455.33
1000.786	502.43
1000.955	178.86
1001.124	725.66
1001.292	1299.09
1001.461	379.56
1001.63	344.74
1001.798	993.95
1001.967	955.04
1002.136	281.25
1002.304	248.49
1002.473	768.67
1002.642	754.34
1002.81	334.5
1002.979	350.89
1003.147	862.88
1003.316	1186.46
1003.484	285.35
1003.653	328.36
1003.821	854.69
1003.99	473.76
1004.158	424.61
1004.327	426.66
1004.495	785.05
1004.663	424.61
1004.832	443.04
1005	254.63
1005.168	727.71
1005.337	703.14
1005.505	55.98
1005.673	545.44
1005.842	694.94
1006.01	737.95
1006.178	164.52
1006.346	260.77
1006.514	729.76
1006.683	891.55
1006.851	266.92
1007.019	178.86
1007.187	434.85
1007.355	211.62
1007.523	41.64
1007.691	135.85
1007.859	228.01
1008.027	801.44
1008.195	307.88
1008.363	172.71
1008.531	766.62
1008.699	371.36
1008.867	135.85
1009.035	375.46
1009.203	819.87
1009.37	645.79
1009.538	311.97
1009.706	801.44
1009.874	547.49
1010.042	553.63
1010.209	123.56
1010.377	211.62
1010.545	815.77
1010.713	506.53
1010.88	178.86
1011.048	221.86
1011.216	492.2
1011.383	846.49
1011.551	131.75
1011.718	158.38
1011.886	850.59
1012.054	473.76
1012.221	166.57
1012.389	172.71
1012.556	459.43
1012.724	987.8
1012.891	385.7
1013.058	27.31
1013.226	645.79
1013.393	705.18
1013.561	101.03
1013.728	-13.65
1013.895	746.14
1014.063	725.66
1014.23	105.13
1014.397	160.42
1014.565	744.1
1014.732	453.28
1014.899	101.03
1015.066	117.42
1015.233	572.07
1015.401	643.74
1015.568	311.97
1015.735	293.54
1015.902	561.83
1016.069	690.85
1016.236	260.77
1016.403	158.38
1016.57	293.54
1016.737	760.48
1016.904	228.01
1017.071	-5.46
1017.238	457.38
1017.405	678.56
1017.572	113.32
1017.739	453.28
1017.906	610.98
1018.073	860.83
1018.24	0.68
1018.407	174.76
1018.573	799.39
1018.74	430.76
1018.907	162.47
1019.074	-79.19
1019.241	727.71
1019.407	555.68
1019.574	105.13
1019.741	4.78
1019.907	559.78
1020.074	637.6
1020.241	-68.95
1020.407	72.36
1020.574	670.37
1020.74	602.79
1020.907	133.8
1021.073	96.94
1021.24	1006.24
1021.406	846.49
1021.573	-23.89
1021.739	80.55
1021.906	670.37
1022.072	393.89
1022.239	121.51
1022.405	74.41
1022.571	504.48
1022.738	322.21
1022.904	139.94
1023.07	117.42
1023.237	412.32
1023.403	694.94
1023.569	105.13
1023.735	105.13
1023.902	535.2
1024.068	512.67
1024.234	21.16
1024.4	43.69
1024.566	527.01
1024.732	637.6
1024.898	96.94
1025.065	-93.52
1025.231	653.98
1025.397	346.79
1025.563	137.9
1025.729	15.02
1025.895	55.98
1026.061	154.28
1026.227	-48.47
1026.392	125.61
1026.558	719.52
1026.724	461.48
1026.89	60.07
1027.056	185
1027.222	498.34
1027.388	309.93
1027.553	-11.61
1027.719	15.02
1027.885	764.57
1028.051	522.91
1028.216	-79.19
1028.382	39.59
1028.548	617.12
1028.713	359.08
1028.879	-40.28
1029.045	238.25
1029.21	778.91
1029.376	664.22
1029.541	189.1
1029.707	47.79
1029.873	477.86
1030.038	608.93
1030.204	55.98
1030.369	135.85
1030.534	662.18
1030.7	301.73
1030.865	162.47
1031.031	43.69
1031.196	539.3
1031.361	467.62
1031.527	-21.85
1031.692	-91.48
1031.857	-9.56
1032.023	629.41
1032.188	-64.85
1032.353	55.98
1032.518	774.81
1032.684	471.72
1032.849	-101.72
1033.014	60.07
1033.179	567.97
1033.344	484
1033.509	150.18
1033.674	-25.94
1033.839	567.97
1034.004	514.72
1034.17	60.07
1034.335	-58.71
1034.5	352.93
1034.664	162.47
1034.829	-42.32
1034.994	107.18
1035.159	494.24
1035.324	494.24
1035.489	51.88
1035.654	17.07
1035.819	742.05
1035.984	350.89
1036.148	53.93
1036.313	101.03
1036.478	627.36
1036.643	383.65
1036.807	-58.71
1036.972	2.73
1037.137	645.79
1037.301	420.52
1037.466	-130.39
1037.631	84.65
1037.795	684.7
1037.96	424.61
1038.124	238.25
1038.289	-132.44
1038.454	574.11
1038.618	514.72
1038.783	-34.13
1038.947	19.11
1039.111	488.1
1039.276	322.21
1039.44	41.64
1039.605	498.34
1039.769	330.41
1039.933	352.93
1040.098	96.94
1040.262	203.43
1040.426	647.84
1040.591	484
1040.755	-85.33
1040.919	-62.8
1041.083	498.34
1041.248	314.02
1041.412	-157.01
1041.576	-136.53
1041.74	271.01
1041.904	563.87
1042.068	-101.72
1042.232	-13.65
1042.397	666.27
1042.561	502.43
1042.725	-230.74
1042.889	205.48
1043.053	535.2
1043.217	424.61
1043.381	78.51
1043.544	-152.92
1043.708	680.61
1043.872	125.61
1044.036	-257.36
1044.2	-64.85
1044.364	666.27
1044.528	629.41
1044.691	4721.25
1044.855	-185.68
1045.019	436.9
1045.183	531.11
1045.346	76.46
1045.51	-23.89
1045.674	465.57
1045.837	504.48
1046.001	-1.37
1046.165	-23.89
1046.328	881.31
1046.492	473.76
1046.655	195.24
1046.819	62.12
1046.983	236.2
1047.146	443.04
1047.31	178.86
1047.473	-251.22
1047.636	406.18
1047.8	121.51
1047.963	21.16
1048.127	31.4
1048.29	131.75
