Data from Ink_Intensity_USB4F045381__145__00145.txt Node

Date: Mon Jul 17 11:26:53 EDT 2023
User: mmckonesweet
Spectrometer: USB4F04538
Trigger mode: 4
Integration Time (sec): 9.000000E-1
Scans to average: 1
Electric dark correction enabled: true
Nonlinearity correction enabled: false
Boxcar width: 0
XAxis mode: Wavelengths
Number of Pixels in Spectrum: 3648
>>>>>Begin Spectral Data<<<<<
345.52	-1029.27
345.736	-1029.27
345.952	-1029.27
346.168	-1027.23
346.384	-984.22
346.6	-99.5
346.816	-251.05
347.032	-169.13
347.248	267.09
347.464	-218.28
347.68	-107.69
347.896	125.78
348.112	353.1
348.328	-107.69
348.544	-158.89
348.76	121.68
348.975	244.56
349.191	-181.42
349.407	-242.85
349.623	-25.77
349.839	-72.87
350.055	-89.26
350.27	64.34
350.486	215.89
350.702	377.68
350.918	271.19
351.133	-160.94
351.349	90.96
351.565	387.92
351.781	-236.71
351.996	-17.58
352.212	336.72
352.428	-124.07
352.644	-251.05
352.859	-208.04
353.075	306
353.291	31.57
353.506	-83.11
353.722	-230.57
353.938	-66.73
354.153	363.34
354.369	119.64
354.584	-189.61
354.8	215.89
355.016	-339.11
355.231	-165.03
355.447	-81.07
355.662	117.59
355.878	850.76
356.093	-304.29
356.309	-21.67
356.524	-271.53
356.74	269.14
356.955	-230.57
357.171	-62.63
357.386	150.36
357.602	-160.94
357.817	-58.54
358.033	-130.22
358.248	449.36
358.464	146.26
358.679	-136.36
358.895	-304.29
359.11	-13.48
359.325	326.48
359.541	-17.58
359.756	23.38
359.972	-257.19
360.187	209.75
360.402	-216.23
360.618	-156.84
360.833	920.39
361.048	123.73
361.264	-150.7
361.479	-50.35
361.694	80.72
361.909	189.27
362.125	-169.13
362.34	-160.94
362.555	267.09
362.77	129.88
362.986	-302.25
363.201	-181.42
363.416	217.94
363.631	29.52
363.847	-152.74
364.062	-154.79
364.277	152.4
364.492	88.92
364.707	-228.52
364.922	-318.63
365.138	295.76
365.353	344.91
365.568	-179.37
365.783	-218.28
365.998	170.83
366.213	486.22
366.428	-255.14
366.643	29.52
366.858	256.85
367.073	140.12
367.288	-142.5
367.503	-310.44
367.718	74.58
367.933	310.1
368.148	-343.21
368.363	-70.83
368.578	-23.72
368.793	463.69
369.008	-169.13
369.223	-287.91
369.438	150.36
369.653	443.21
369.868	-277.67
370.083	-275.62
370.298	125.78
370.513	408.4
370.728	9.05
370.943	-195.75
371.157	-205.99
371.372	596.81
371.587	-300.2
371.802	-263.33
372.017	115.54
372.232	412.5
372.446	-83.11
372.661	-259.24
372.876	238.42
373.091	260.95
373.306	-66.73
373.52	-259.24
373.735	-115.88
373.95	367.44
374.165	-87.21
374.379	-91.31
374.594	-115.88
374.809	68.44
375.023	-7.34
375.238	-255.14
375.453	244.56
375.667	-218.28
375.882	-113.83
376.097	-212.14
376.311	64.34
376.526	-21.67
376.741	-277.67
376.955	213.84
377.17	551.76
377.384	615.24
377.599	-115.88
377.813	-193.7
378.028	574.28
378.242	82.77
378.457	-99.5
378.672	-369.83
378.886	115.54
379.101	-25.77
379.315	-365.73
379.53	-244.9
379.744	146.26
379.958	213.84
380.173	-154.79
380.387	-259.24
380.602	39.76
380.816	-58.54
381.031	-107.69
381.245	-107.69
381.459	119.64
381.674	768.84
381.888	-222.38
382.103	107.35
382.317	-179.37
382.531	410.45
382.746	-89.26
382.96	-265.38
383.174	-83.11
383.388	490.32
383.603	-5.29
383.817	-365.73
384.031	121.68
384.246	455.5
384.46	9.05
384.674	334.67
384.888	54.1
385.103	-68.78
385.317	-234.66
385.531	9.05
385.745	375.63
385.959	269.14
386.174	-267.43
386.388	-283.81
386.602	2.9
386.816	-171.18
387.03	-15.53
387.244	-56.49
387.458	-9.39
387.672	303.95
387.887	-267.43
388.101	-312.49
388.315	369.49
388.529	146.26
388.743	-167.08
388.957	-287.91
389.171	314.19
389.385	-132.26
389.599	-132.26
389.813	109.4
390.027	154.45
390.241	637.77
390.455	-156.84
390.669	-181.42
390.883	-107.69
391.097	400.21
391.311	33.62
391.525	-179.37
391.738	191.31
391.952	201.55
392.166	-83.11
392.38	-263.33
392.594	287.57
392.808	359.25
393.022	-138.41
393.236	-138.41
393.449	164.69
393.663	152.4
393.877	-246.95
394.091	-89.26
394.305	-103.59
394.518	-95.4
394.732	-294.05
394.946	-234.66
395.16	482.13
395.373	90.96
395.587	-185.51
395.801	-218.28
396.015	281.43
396.228	222.03
396.442	-273.57
396.656	-328.87
396.869	299.86
397.083	402.26
397.297	-33.96
397.51	-185.51
397.724	342.86
397.938	107.35
398.151	-332.97
398.365	-328.87
398.578	189.27
398.792	240.47
399.005	-3.24
399.219	-101.55
399.433	58.2
399.646	172.88
399.86	15.19
400.073	23.38
400.287	262.99
400.5	58.2
400.714	-42.15
400.927	-36.01
401.141	209.75
401.354	1117
401.567	172.88
401.781	-224.42
401.994	232.27
402.208	590.67
402.421	-105.64
402.635	-152.74
402.848	72.53
403.061	248.66
403.275	-48.3
403.488	-261.29
403.701	451.41
403.915	289.62
404.128	19.29
404.341	-210.09
404.555	170.83
404.768	127.83
404.981	45.91
405.195	-187.56
405.408	428.88
405.621	228.18
405.834	58.2
406.048	-181.42
406.261	437.07
406.474	521.04
406.687	-275.62
406.9	-107.69
407.114	56.15
407.327	195.41
407.54	-304.29
407.753	-281.77
407.966	-79.02
408.179	254.8
408.392	-189.61
408.605	-318.63
408.819	160.59
409.032	121.68
409.245	-255.14
409.458	66.39
409.671	142.16
409.884	293.71
410.097	-328.87
410.31	13.14
410.523	195.41
410.736	-42.15
410.949	-111.78
411.162	-154.79
411.375	465.74
411.588	332.62
411.801	-46.25
412.014	-160.94
412.227	-42.15
412.44	-111.78
412.653	-189.61
412.865	19.29
413.078	242.51
413.291	195.41
413.504	-93.35
413.717	-173.22
413.93	248.66
414.143	-156.84
414.356	-193.7
414.568	-234.66
414.781	254.8
414.994	148.31
415.207	-83.11
415.42	-13.48
415.632	191.31
415.845	441.17
416.058	-242.85
416.271	-281.77
416.483	109.4
416.696	490.32
416.909	-187.56
417.121	-181.42
417.334	179.03
417.547	514.89
417.759	-246.95
417.972	-242.85
418.185	-48.3
418.397	336.72
418.61	-232.62
418.823	-169.13
419.035	482.13
419.248	97.11
419.46	-165.03
419.673	-152.74
419.885	228.18
420.098	-3.24
420.311	-124.07
420.523	-459.94
420.736	207.7
420.948	117.59
421.161	-128.17
421.373	-455.84
421.586	113.49
421.798	-115.88
422.01	-406.69
422.223	-23.72
422.435	-132.26
422.648	248.66
422.86	-199.85
423.073	-181.42
423.285	387.92
423.497	-306.34
423.71	-228.52
423.922	-294.05
424.134	129.88
424.347	342.86
424.559	97.11
424.771	50
424.984	-9.39
425.196	168.79
425.408	-378.02
425.621	-306.34
425.833	283.47
426.045	367.44
426.257	-244.9
426.47	-132.26
426.682	125.78
426.894	174.93
427.106	-140.46
427.318	-205.99
427.531	-101.55
427.743	123.73
427.955	-185.51
428.167	252.75
428.379	142.16
428.591	-50.35
428.804	-3.24
429.016	-332.97
429.228	-140.46
429.44	176.98
429.652	-21.67
429.864	-236.71
430.076	-9.39
430.288	27.48
430.5	-171.18
430.712	-107.69
430.924	168.79
431.136	58.2
431.348	-339.11
431.56	-224.42
431.772	41.81
431.984	-60.59
432.196	-261.29
432.408	-179.37
432.62	-62.63
432.832	115.54
433.044	-79.02
433.256	-81.07
433.468	181.07
433.679	-353.45
433.891	-222.38
434.103	-15.53
434.315	404.3
434.527	191.31
434.739	-144.55
434.95	-158.89
435.162	275.28
435.374	-107.69
435.586	-199.85
435.798	-201.9
436.009	-261.29
436.221	37.72
436.433	-117.93
436.645	-169.13
436.856	-58.54
437.068	349.01
437.28	-267.43
437.491	213.84
437.703	138.07
437.915	154.45
438.126	-224.42
438.338	33.62
438.55	9.05
438.761	213.84
438.973	-246.95
439.184	-152.74
439.396	35.67
439.608	228.18
439.819	-189.61
440.031	-72.87
440.242	209.75
440.454	209.75
440.665	-111.78
440.877	-144.55
441.088	211.79
441.3	-9.39
441.511	-308.39
441.723	-220.33
441.934	164.69
442.146	37.72
442.357	-19.63
442.569	162.64
442.78	84.82
442.991	406.35
443.203	125.78
443.414	-285.86
443.626	328.53
443.837	-91.31
444.048	-255.14
444.26	-328.87
444.471	31.57
444.682	281.43
444.894	-388.26
445.105	-382.12
445.316	269.14
445.528	187.22
445.739	-74.92
445.95	-136.36
446.161	179.03
446.373	244.56
446.584	-122.02
446.795	-83.11
447.006	236.37
447.217	392.02
447.429	-339.11
447.64	-312.49
447.851	344.91
448.062	93.01
448.273	-373.92
448.484	-189.61
448.695	252.75
448.907	-15.53
449.118	-93.35
449.329	23.38
449.54	-23.72
449.751	-255.14
449.962	-300.2
450.173	-187.56
450.384	320.34
450.595	301.9
450.806	-238.76
451.017	-269.48
451.228	445.26
451.439	230.23
451.65	-146.6
451.861	-355.49
452.072	-212.14
452.283	-128.17
452.494	-52.39
452.705	-259.24
452.915	344.91
453.126	90.96
453.337	-152.74
453.548	-312.49
453.759	279.38
453.97	527.18
454.181	72.53
454.391	-183.46
454.602	84.82
454.813	217.94
455.024	-83.11
455.235	-199.85
455.445	152.4
455.656	136.02
455.867	-52.39
456.078	-111.78
456.288	-111.78
456.499	101.2
456.71	-222.38
456.921	117.59
457.131	111.44
457.342	113.49
457.553	-171.18
457.763	-242.85
457.974	230.23
458.184	236.37
458.395	-298.15
458.606	-279.72
458.816	338.77
459.027	461.65
459.237	-42.15
459.448	-375.97
459.659	342.86
459.869	654.16
460.08	-410.79
460.29	-132.26
460.501	559.95
460.711	-119.98
460.922	-365.73
461.132	-246.95
461.343	615.24
461.553	-193.7
461.764	-345.25
461.974	-185.51
462.184	234.32
462.395	181.07
462.605	-152.74
462.816	-222.38
463.026	107.35
463.236	234.32
463.447	-220.33
463.657	-238.76
463.867	236.37
464.078	-66.73
464.288	-169.13
464.498	-310.44
464.709	-42.15
464.919	50
465.129	-89.26
465.339	-279.72
465.55	72.53
465.76	262.99
465.97	-171.18
466.18	-246.95
466.391	191.31
466.601	82.77
466.811	-132.26
467.021	-371.88
467.231	121.68
467.441	330.58
467.651	-246.95
467.862	-533.67
468.072	33.62
468.282	301.9
468.492	-269.48
468.702	-117.93
468.912	17.24
469.122	594.76
469.332	101.2
469.542	-287.91
469.752	260.95
469.962	29.52
470.172	-222.38
470.382	-349.35
470.592	281.43
470.802	377.68
471.012	-44.2
471.222	-210.09
471.432	271.19
471.642	195.41
471.852	-83.11
472.062	-328.87
472.272	7
472.482	-238.76
472.691	-312.49
472.901	-294.05
473.111	64.34
473.321	588.62
473.531	-277.67
473.741	-162.98
473.95	170.83
474.16	213.84
474.37	-72.87
474.58	-310.44
474.79	453.45
474.999	189.27
475.209	-320.68
475.419	-249
475.628	-29.87
475.838	236.37
476.048	-128.17
476.258	-343.21
476.467	400.21
476.677	-87.21
476.886	-21.67
477.096	-158.89
477.306	-119.98
477.515	349.01
477.725	-160.94
477.935	-154.79
478.144	412.5
478.354	-148.65
478.563	-187.56
478.773	-332.97
478.982	72.53
479.192	320.34
479.401	-99.5
479.611	-296.1
479.82	-212.14
480.03	164.69
480.239	-324.77
480.449	-316.58
480.658	449.36
480.868	-99.5
481.077	-48.3
481.287	-199.85
481.496	150.36
481.705	385.87
481.915	70.48
482.124	15.19
482.333	140.12
482.543	367.44
482.752	-101.55
482.961	-220.33
483.171	250.71
483.38	-5.29
483.589	-91.31
483.799	-246.95
484.008	2.9
484.217	312.14
484.426	-126.12
484.636	-224.42
484.845	105.3
485.054	-269.48
485.263	68.44
485.472	-195.75
485.682	510.8
485.891	136.02
486.1	-369.83
486.309	-169.13
486.518	256.85
486.727	389.97
486.936	-271.53
487.146	-87.21
487.355	381.78
487.564	-191.66
487.773	-132.26
487.982	-242.85
488.191	-58.54
488.4	68.44
488.609	-162.98
488.818	-187.56
489.027	635.72
489.236	357.2
489.445	-216.23
489.654	-279.72
489.863	344.91
490.072	29.52
490.281	154.45
490.49	-197.8
490.698	455.5
490.907	439.12
491.116	-201.9
491.325	-378.02
491.534	342.86
491.743	80.72
491.952	-122.02
492.16	-167.08
492.369	99.16
492.578	244.56
492.787	-105.64
492.996	-343.21
493.204	-148.65
493.413	443.21
493.622	-435.36
493.831	-398.5
494.039	351.06
494.248	-183.46
494.457	-228.52
494.665	-320.68
494.874	99.16
495.083	527.18
495.291	-216.23
495.5	-263.33
495.709	222.03
495.917	117.59
496.126	-187.56
496.335	-296.1
496.543	17.24
496.752	154.45
496.96	37.72
497.169	-406.69
497.377	119.64
497.586	230.23
497.794	-103.59
498.003	-468.13
498.211	4.95
498.42	437.07
498.628	-181.42
498.837	-267.43
499.045	133.97
499.254	123.73
499.462	-353.45
499.671	-263.33
499.879	334.67
500.087	297.81
500.296	-203.94
500.504	-165.03
500.713	82.77
500.921	621.39
501.129	-197.8
501.338	-263.33
501.546	176.98
501.754	82.77
501.962	-193.7
502.171	-275.62
502.379	150.36
502.587	512.85
502.795	-212.14
503.004	-222.38
503.212	133.97
503.42	262.99
503.628	-273.57
503.837	-64.68
504.045	258.9
504.253	490.32
504.461	-320.68
504.669	-433.32
504.877	228.18
505.085	424.78
505.294	-369.83
505.502	39.76
505.71	164.69
505.918	265.04
506.126	-201.9
506.334	-218.28
506.542	-5.29
506.75	101.2
506.958	-83.11
507.166	-189.61
507.374	-66.73
507.582	510.8
507.79	-169.13
507.998	-197.8
508.206	262.99
508.414	258.9
508.622	-308.39
508.83	-167.08
509.037	486.22
509.245	33.62
509.453	-271.53
509.661	-312.49
509.869	207.7
510.077	-23.72
510.285	-17.58
510.492	-470.18
510.7	607.05
510.908	-50.35
511.116	-312.49
511.324	-214.18
511.531	-68.78
511.739	47.96
511.947	11.09
512.155	142.16
512.362	113.49
512.57	-214.18
512.778	-275.62
512.985	-326.82
513.193	357.2
513.401	353.1
513.608	-124.07
513.816	-226.47
514.024	248.66
514.231	295.76
514.439	-263.33
514.646	-203.94
514.854	230.23
515.061	375.63
515.269	-128.17
515.477	-263.33
515.684	-81.07
515.892	351.06
516.099	-277.67
516.307	-349.35
516.514	252.75
516.722	459.6
516.929	-249
517.136	-332.97
517.344	461.65
517.551	260.95
517.759	-236.71
517.966	-134.31
518.173	-5.29
518.381	-17.58
518.588	-150.7
518.796	-267.43
519.003	342.86
519.21	164.69
519.418	-234.66
519.625	35.67
519.832	97.11
520.039	224.08
520.247	-296.1
520.454	-119.98
520.661	326.48
520.868	265.04
521.076	-189.61
521.283	-56.49
521.49	674.64
521.697	230.23
521.904	-177.32
522.112	-154.79
522.319	349.01
522.526	125.78
522.733	-179.37
522.94	-240.81
523.147	60.24
523.354	301.9
523.561	-353.45
523.768	-119.98
523.975	398.16
524.183	117.59
524.39	-124.07
524.597	-349.35
524.804	39.76
525.011	-44.2
525.218	-171.18
525.425	-193.7
525.632	410.45
525.838	-85.16
526.045	-162.98
526.252	-246.95
526.459	1198.92
526.666	906.06
526.873	-310.44
527.08	-177.32
527.287	459.6
527.494	275.28
527.701	-316.58
527.907	-279.72
528.114	205.65
528.321	72.53
528.528	-103.59
528.735	-347.3
528.941	4.95
529.148	-7.34
529.355	-93.35
529.562	-242.85
529.768	584.52
529.975	-11.43
530.182	-179.37
530.388	-263.33
530.595	418.64
530.802	-218.28
531.008	-42.15
531.215	-44.2
531.422	480.08
531.628	758.6
531.835	-111.78
532.042	-115.88
532.248	-58.54
532.455	287.57
532.661	-177.32
532.868	-263.33
533.074	195.41
533.281	316.24
533.487	-124.07
533.694	-232.62
533.9	-54.44
534.107	318.29
534.313	-210.09
534.52	-320.68
534.726	338.77
534.933	650.06
535.139	-218.28
535.345	-345.25
535.552	183.12
535.758	158.55
535.965	-38.06
536.171	-179.37
536.377	236.37
536.584	480.08
536.79	-158.89
536.996	-117.93
537.203	240.47
537.409	273.23
537.615	-40.11
537.821	41.81
538.028	316.24
538.234	287.57
538.44	-99.5
538.646	-150.7
538.853	191.31
539.059	74.58
539.265	318.29
539.471	-396.45
539.677	363.34
539.883	62.29
540.09	-212.14
540.296	340.82
540.502	101.2
540.708	-1.19
540.914	27.48
541.12	-193.7
541.326	310.1
541.532	25.43
541.738	25.43
541.944	-72.87
542.15	349.01
542.356	29.52
542.562	-279.72
542.768	-64.68
542.974	760.65
543.18	570.19
543.386	-115.88
543.592	-281.77
543.798	426.83
544.004	396.11
544.21	-128.17
544.415	-7.34
544.621	176.98
544.827	457.55
545.033	-210.09
545.239	187.22
545.445	-60.59
545.651	248.66
545.856	-99.5
546.062	-79.02
546.268	56.15
546.474	179.03
546.679	-99.5
546.885	-150.7
547.091	84.82
547.297	715.59
547.502	-17.58
547.708	-289.96
547.914	-33.96
548.119	344.91
548.325	-154.79
548.531	-185.51
548.736	609.1
548.942	-25.77
549.147	-156.84
549.353	119.64
549.559	496.46
549.764	322.38
549.97	-52.39
550.175	-128.17
550.381	322.38
550.586	47.96
550.792	-48.3
550.997	-107.69
551.203	314.19
551.408	310.1
551.614	-214.18
551.819	-44.2
552.025	594.76
552.23	584.52
552.435	-232.62
552.641	0.85
552.846	7
553.052	432.97
553.257	-19.63
553.462	-103.59
553.668	-1.19
553.873	463.69
554.078	-169.13
554.283	-154.79
554.489	170.83
554.694	291.66
554.899	-205.99
555.105	54.1
555.31	297.81
555.515	437.07
555.72	-66.73
555.925	-154.79
556.131	381.78
556.336	23.38
556.541	-146.6
556.746	-173.22
556.951	553.8
557.156	617.29
557.361	-13.48
557.567	56.15
557.772	672.59
557.977	367.44
558.182	-81.07
558.387	-1.19
558.592	84.82
558.797	490.32
559.002	-83.11
559.207	121.68
559.412	150.36
559.617	770.89
559.822	-46.25
560.027	-103.59
560.232	207.7
560.437	357.2
560.642	-189.61
560.847	-152.74
561.051	248.66
561.256	230.23
561.461	-103.59
561.666	-124.07
561.871	244.56
562.076	488.27
562.281	15.19
562.485	-203.94
562.69	336.72
562.895	418.64
563.1	-15.53
563.305	-79.02
563.509	502.61
563.714	713.55
563.919	-62.63
564.123	-62.63
564.328	183.12
564.533	572.24
564.737	-21.67
564.942	-91.31
565.147	584.52
565.351	766.79
565.556	23.38
565.761	41.81
565.965	289.62
566.17	129.88
566.374	31.57
566.579	-222.38
566.784	318.29
566.988	72.53
567.193	-218.28
567.397	-66.73
567.602	-7.34
567.806	240.47
568.011	-25.77
568.215	-46.25
568.42	262.99
568.624	267.09
568.828	-15.53
569.033	144.21
569.237	437.07
569.442	400.21
569.646	-167.08
569.85	-17.58
570.055	183.12
570.259	451.41
570.463	181.07
570.668	27.48
570.872	271.19
571.076	254.8
571.281	107.35
571.485	64.34
571.689	349.01
571.893	457.55
572.098	113.49
572.302	-38.06
572.506	404.3
572.71	246.61
572.914	11.09
573.119	-1.19
573.323	662.35
573.527	658.25
573.731	4.95
573.935	-5.29
574.139	301.9
574.343	115.54
574.547	47.96
574.751	50
574.955	662.35
575.159	678.73
575.364	37.72
575.568	-87.21
575.772	279.38
575.976	580.43
576.18	-27.82
576.383	-134.31
576.587	551.76
576.791	404.3
576.995	-167.08
577.199	-171.18
577.403	498.51
577.607	543.57
577.811	76.63
578.015	105.3
578.219	279.38
578.422	498.51
578.626	80.72
578.83	174.93
579.034	588.62
579.238	316.24
579.442	-66.73
579.645	471.89
579.849	351.06
580.053	338.77
580.257	39.76
580.46	142.16
580.664	588.62
580.868	527.18
581.071	314.19
581.275	189.27
581.479	72.53
581.682	590.67
581.886	86.87
582.09	168.79
582.293	570.19
582.497	586.57
582.7	265.04
582.904	31.57
583.107	392.02
583.311	285.52
583.515	86.87
583.718	197.46
583.922	545.61
584.125	805.71
584.329	-5.29
584.532	232.27
584.735	662.35
584.939	486.22
585.142	-44.2
585.346	31.57
585.549	469.84
585.753	271.19
585.956	56.15
586.159	187.22
586.363	817.99
586.566	475.98
586.769	-13.48
586.973	-58.54
587.176	639.82
587.379	633.68
587.582	435.02
587.786	351.06
587.989	453.45
588.192	1065.8
588.395	207.7
588.599	377.68
588.802	498.51
589.005	611.15
589.208	95.06
589.411	101.2
589.615	684.87
589.818	885.58
590.021	336.72
590.224	228.18
590.427	695.11
590.63	588.62
590.833	-1.19
591.036	82.77
591.239	312.14
591.442	383.82
591.645	383.82
591.848	199.51
592.051	529.23
592.254	738.12
592.457	224.08
592.66	275.28
592.863	521.04
593.066	539.47
593.269	138.07
593.472	226.13
593.675	207.7
593.878	645.96
594.081	336.72
594.284	166.74
594.486	574.28
594.689	443.21
594.892	285.52
595.095	215.89
595.298	568.14
595.5	338.77
595.703	265.04
595.906	373.58
596.109	762.7
596.311	723.79
596.514	2.9
596.717	219.99
596.92	738.12
597.122	568.14
597.325	39.76
597.528	142.16
597.73	824.14
597.933	492.37
598.136	203.6
598.338	-25.77
598.541	615.24
598.743	832.33
598.946	230.23
599.148	256.85
599.351	734.03
599.554	846.66
599.756	416.59
599.959	322.38
600.161	813.9
600.363	1100.61
600.566	469.84
600.768	232.27
600.971	914.25
601.173	729.93
601.376	222.03
601.578	357.2
601.78	721.74
601.983	1094.47
602.185	148.31
602.388	469.84
602.59	639.82
602.792	484.17
602.995	541.52
603.197	271.19
603.399	727.88
603.601	695.11
603.804	293.71
604.006	211.79
604.208	531.28
604.41	211.79
604.613	473.93
604.815	279.38
605.017	1096.52
605.219	367.44
605.421	666.44
605.623	365.39
605.826	881.48
606.028	955.21
606.23	385.87
606.432	334.67
606.634	1067.85
606.836	973.64
607.038	226.13
607.24	467.79
607.442	557.9
607.644	652.11
607.846	410.45
608.048	254.8
608.25	838.47
608.452	426.83
608.654	353.1
608.856	17.24
609.058	486.22
609.26	691.02
609.462	453.45
609.664	346.96
609.866	1186.63
610.067	885.58
610.269	555.85
610.471	408.4
610.673	547.66
610.875	805.71
611.077	265.04
611.278	484.17
611.48	688.97
611.682	1108.8
611.884	424.78
612.085	432.97
612.287	455.5
612.489	830.28
612.69	256.85
612.892	447.31
613.094	932.68
613.295	777.03
613.497	209.75
613.699	328.53
613.9	1012.55
614.102	832.33
614.304	512.85
614.505	367.44
614.707	588.62
614.908	660.3
615.11	306
615.311	465.74
615.513	893.77
615.714	811.85
615.916	138.07
616.117	492.37
616.319	621.39
616.52	799.56
616.722	437.07
616.923	346.96
617.124	1020.74
617.326	803.66
617.527	523.09
617.729	764.75
617.93	850.76
618.131	910.15
618.333	424.78
618.534	463.69
618.735	572.24
618.937	1104.71
619.138	367.44
619.339	351.06
619.54	869.19
619.742	605
619.943	596.81
620.144	463.69
620.345	1010.5
620.546	1000.26
620.748	383.82
620.949	500.56
621.15	742.22
621.351	793.42
621.552	461.65
621.753	334.67
621.954	404.3
622.155	1192.77
622.356	269.14
622.558	658.25
622.759	699.21
622.96	1178.44
623.161	465.74
623.362	471.89
623.563	738.12
623.764	826.18
623.965	523.09
624.166	582.48
624.366	650.06
624.567	797.51
624.768	203.6
624.969	457.55
625.17	742.22
625.371	895.82
625.572	555.85
625.773	467.79
625.973	1047.37
626.174	1022.79
626.375	543.57
626.576	629.58
626.777	957.25
626.977	1407.81
627.178	535.37
627.379	568.14
627.58	727.88
627.78	817.99
627.981	629.58
628.182	650.06
628.382	1108.8
628.583	521.04
628.784	439.12
628.984	688.97
629.185	1002.31
629.386	1030.98
629.586	623.44
629.787	486.22
629.987	1127.24
630.188	834.38
630.388	605
630.589	734.03
630.79	1465.15
630.99	942.92
631.191	613.2
631.391	688.97
631.591	1016.65
631.792	1342.27
631.992	774.99
632.193	625.48
632.393	1260.35
632.594	936.78
632.794	664.4
632.994	664.4
633.195	799.56
633.395	998.21
633.595	650.06
633.796	830.28
633.996	662.35
634.196	1223.49
634.397	432.97
634.597	822.09
634.797	850.76
634.997	1383.23
635.198	852.81
635.398	621.39
635.598	990.02
635.798	1260.35
635.998	1125.19
636.199	531.28
636.399	805.71
636.599	783.18
636.799	727.88
636.999	1022.79
637.199	1112.9
637.399	1178.44
637.599	625.48
637.799	748.36
637.999	828.23
638.199	1383.23
638.399	637.77
638.599	688.97
638.799	1043.27
638.999	1411.9
639.199	848.71
639.399	828.23
639.599	1479.49
639.799	781.13
639.999	662.35
640.199	615.24
640.399	1100.61
640.599	1104.71
640.799	858.95
640.998	904.01
641.198	1338.18
641.398	1033.03
641.598	918.34
641.798	817.99
641.997	1846.07
642.197	1008.45
642.397	895.82
642.597	760.65
642.796	1131.33
642.996	1366.85
643.196	981.83
643.395	625.48
643.595	1030.98
643.795	723.79
643.994	777.03
644.194	883.53
644.394	1219.39
644.593	1198.92
644.793	662.35
644.992	1080.13
645.192	1229.63
645.392	680.78
645.591	940.87
645.791	881.48
645.99	1213.25
646.19	1004.36
646.389	824.14
646.589	809.8
646.788	1246.02
646.987	1221.44
647.187	932.68
647.386	1141.57
647.586	983.88
647.785	1327.94
647.984	781.13
648.184	973.64
648.383	996.17
648.582	1057.61
648.782	858.95
648.981	977.73
649.18	998.21
649.38	1147.72
649.579	873.29
649.778	908.1
649.977	1217.35
650.177	1151.81
650.376	852.81
650.575	815.94
650.774	1530.69
650.973	1006.41
651.173	752.46
651.372	895.82
651.571	1192.77
651.77	1364.8
651.969	916.3
652.168	990.02
652.367	940.87
652.566	1289.03
652.765	871.24
652.964	1243.97
653.163	1590.08
653.362	1104.71
653.561	944.97
653.76	1069.89
653.959	1133.38
654.158	1354.56
654.357	1233.73
654.556	1002.31
654.755	1284.93
654.954	1383.23
655.153	1053.51
655.352	1069.89
655.551	1534.78
655.749	1112.9
655.948	1069.89
656.147	1153.86
656.346	1293.12
656.545	1268.55
656.743	1082.18
656.942	1100.61
657.141	1276.74
657.34	1104.71
657.538	1047.37
657.737	1092.42
657.936	1145.67
658.135	1387.33
658.333	924.49
658.532	1260.35
658.731	1739.58
658.929	1420.1
659.128	1399.62
659.326	953.16
659.525	1565.5
659.724	1409.86
659.922	797.51
660.121	971.59
660.319	1440.58
660.518	1049.41
660.716	910.15
660.915	1022.79
661.113	1579.84
661.312	1123.14
661.51	1137.48
661.709	920.39
661.907	1618.75
662.105	1665.85
662.304	1006.41
662.502	1137.48
662.701	1612.6
662.899	1362.75
663.097	1397.57
663.296	936.78
663.494	1663.8
663.692	1735.48
663.891	1000.26
664.089	881.48
664.287	1416
664.485	1665.85
664.684	975.69
664.882	1299.27
665.08	1280.83
665.278	1422.14
665.476	1004.36
665.675	1493.82
665.873	1856.31
666.071	1639.23
666.269	1096.52
666.467	1364.8
666.665	1399.62
666.863	1284.93
667.061	1354.56
667.259	1084.23
667.457	1432.38
667.655	1590.08
667.853	985.93
668.051	1262.4
668.249	1162.05
668.447	1524.54
668.645	1010.5
668.843	1289.03
669.041	1559.36
669.239	1319.75
669.437	1268.55
669.635	1399.62
669.833	1340.22
670.031	1590.08
670.229	1182.53
670.426	1227.59
670.624	1403.71
670.822	1225.54
671.02	1190.72
671.218	1196.87
671.415	1178.44
671.613	1483.58
671.811	1387.33
672.009	1229.63
672.206	1645.37
672.404	1428.29
672.602	1561.41
672.799	1424.19
672.997	1547.07
673.195	1719.1
673.392	1450.82
673.59	1170.24
673.788	1665.85
673.985	1076.04
674.183	1485.63
674.38	1237.83
674.578	1665.85
674.775	1327.94
674.973	1262.4
675.17	1166.15
675.368	1897.27
675.565	1549.12
675.763	1307.46
675.96	1248.07
676.158	1827.64
676.355	1520.45
676.553	1416
676.75	1377.09
676.947	1545.02
677.145	1366.85
677.342	1344.32
677.539	1456.96
677.737	1645.37
677.934	1997.62
678.131	1469.25
678.329	1276.74
678.526	2040.63
678.723	1686.33
678.92	1354.56
679.118	1334.08
679.315	1313.6
679.512	1889.08
679.709	1303.36
679.906	1387.33
680.104	1911.61
680.301	1792.83
680.498	1311.55
680.695	1358.66
680.892	1409.86
681.089	1493.82
681.286	1475.39
681.483	1272.64
681.68	1696.57
681.877	1794.87
682.075	1344.32
682.272	1491.77
682.469	1715
682.665	1540.93
682.862	1366.85
683.059	1180.48
683.256	1792.83
683.453	1694.52
683.65	1424.19
683.847	1452.86
684.044	1690.43
684.241	1499.97
684.438	1620.8
684.635	1307.46
684.831	2108.21
685.028	2136.88
685.225	1327.94
685.422	1520.45
685.619	1516.35
685.815	1637.18
686.012	1559.36
686.209	1448.77
686.405	1413.95
686.602	1856.31
686.799	1303.36
686.996	1342.27
687.192	1428.29
687.389	2112.31
687.586	1368.9
687.782	1557.31
687.979	2136.88
688.175	1995.57
688.372	1747.77
688.568	1391.42
688.765	1612.6
688.962	2038.58
689.158	1567.55
689.355	1379.14
689.551	1958.71
689.748	1465.15
689.944	1706.81
690.14	1264.45
690.337	1874.74
690.533	1669.95
690.73	1663.8
690.926	1456.96
691.123	1841.98
691.319	1821.5
691.515	1266.5
691.712	1690.43
691.908	1801.02
692.104	1772.35
692.301	1598.27
692.497	1456.96
692.693	1993.53
692.889	1942.33
693.086	1706.81
693.282	1385.28
693.478	1786.68
693.674	2104.12
693.87	1596.22
694.067	1407.81
694.263	1882.94
694.459	1725.24
694.655	1743.67
694.851	1616.7
695.047	1911.61
695.243	1827.64
695.439	1735.48
695.635	1428.29
695.831	1952.57
696.027	1854.27
696.224	1542.97
696.42	1882.94
696.615	2190.13
696.811	1919.8
697.007	1448.77
697.203	1536.83
697.399	1956.66
697.595	2136.88
697.791	1522.49
697.987	1696.57
698.183	1538.88
698.379	1618.75
698.575	1700.67
698.77	1602.36
698.966	2030.39
699.162	2100.02
699.358	1590.08
699.554	1676.09
699.749	1989.43
699.945	2050.87
700.141	1692.48
700.337	1678.14
700.532	1760.06
700.728	1622.84
700.924	1620.8
701.119	1495.87
701.315	1997.62
701.511	1792.83
701.706	1758.01
701.902	1483.58
702.097	1747.77
702.293	2046.77
702.489	1696.57
702.684	1665.85
702.88	1768.25
703.075	1833.79
703.271	1639.23
703.466	1581.89
703.662	1868.6
703.857	1882.94
704.053	1557.31
704.248	1723.2
704.443	2030.39
704.639	2046.77
704.834	1792.83
705.03	1631.04
705.225	2151.22
705.42	2161.46
705.616	1710.91
705.811	1536.83
706.006	1839.93
706.202	1841.98
706.397	1819.45
706.592	1579.84
706.787	1973.05
706.983	1964.86
707.178	1841.98
707.373	1712.96
707.568	2108.21
707.763	2100.02
707.959	1733.43
708.154	1723.2
708.349	1919.8
708.544	2085.69
708.739	1942.33
708.934	1692.48
709.129	2147.12
709.324	2173.75
709.519	1704.76
709.714	1643.32
709.909	2257.71
710.104	2034.49
710.299	1745.72
710.494	1841.98
710.689	2216.76
710.884	1962.81
711.079	1823.55
711.274	1891.13
711.469	2106.17
711.664	2042.68
711.859	1737.53
712.054	1882.94
712.249	2272.05
712.443	2308.91
712.638	1684.28
712.833	1766.2
713.028	1966.9
713.223	2022.2
713.417	1987.38
713.612	1786.68
713.807	2181.94
714.002	2716.46
714.196	2018.1
714.391	1821.5
714.586	2181.94
714.78	1960.76
714.975	1813.31
715.17	1731.39
715.364	1987.38
715.559	2310.96
715.754	1633.08
715.948	1719.1
716.143	2521.9
716.337	2192.18
716.532	1999.67
716.726	1788.73
716.921	2339.63
717.115	2526
717.31	1633.08
717.504	2413.36
717.699	1925.94
717.893	2243.38
718.088	1780.54
718.282	1665.85
718.476	2128.69
718.671	2034.49
718.865	1821.5
719.059	1819.45
719.254	2157.36
719.448	2450.22
719.642	3136.29
719.837	1553.21
720.031	2300.72
720.225	2339.63
720.419	1962.81
720.614	1813.31
720.808	2274.1
721.002	2022.2
721.196	1747.77
721.39	1743.67
721.585	2376.5
721.779	2153.27
721.973	1854.27
722.167	1762.11
722.361	2079.54
722.555	2390.83
722.749	1817.4
722.943	1809.21
723.137	1772.35
723.331	2147.12
723.525	1989.43
723.719	1940.28
723.913	2347.83
724.107	2458.42
724.301	1753.91
724.495	1876.79
724.689	2609.97
724.883	2526
725.077	1952.57
725.271	1846.07
725.465	2581.29
725.659	2249.52
725.853	1995.57
726.046	1659.71
726.24	1989.43
726.434	2343.73
726.628	1837.88
726.822	1944.38
727.015	2442.03
727.209	2433.84
727.403	1891.13
727.596	1608.51
727.79	2272.05
727.984	2290.48
728.177	1854.27
728.371	2151.22
728.565	2460.46
728.758	1942.33
728.952	1735.48
729.146	1905.46
729.339	2454.32
729.533	2143.03
729.726	2005.81
729.92	1796.92
730.113	2495.28
730.307	2343.73
730.5	1905.46
730.694	1948.47
730.887	2212.66
731.081	2409.26
731.274	1923.9
731.468	1983.29
731.661	2259.76
731.854	2097.97
732.048	1940.28
732.241	1964.86
732.435	2059.06
732.628	2245.43
732.821	2026.29
733.014	1813.31
733.208	1960.76
733.401	2429.74
733.594	2022.2
733.788	1940.28
733.981	2569.01
734.174	2327.35
734.367	1930.04
734.56	2161.46
734.754	2515.76
734.947	2411.31
735.14	1960.76
735.333	2147.12
735.526	2427.7
735.719	2022.2
735.912	2085.69
736.105	1901.37
736.298	2270
736.491	2097.97
736.684	1993.53
736.877	2046.77
737.07	2394.93
737.263	2591.53
737.456	2085.69
737.649	1981.24
737.842	2069.3
738.035	2362.16
738.228	2151.22
738.421	2198.32
738.614	2542.38
738.807	2538.29
739	2024.25
739.192	2104.12
739.385	2450.22
739.578	2499.38
739.771	2382.64
739.964	2057.01
740.156	2327.35
740.349	2407.22
740.542	2313.01
740.735	2009.91
740.927	2044.73
741.12	2214.71
741.313	2034.49
741.505	2276.15
741.698	2421.55
741.891	2534.19
742.083	2300.72
742.276	2104.12
742.468	2407.22
742.661	2507.57
742.854	2255.67
743.046	2202.42
743.239	2730.8
743.431	2267.95
743.624	2138.93
743.816	1934.14
744.009	2386.74
744.201	2446.13
744.393	2472.75
744.586	2151.22
744.778	2644.78
744.971	2493.23
745.163	2235.19
745.355	2192.18
745.548	2501.42
745.74	2347.83
745.932	2204.47
746.125	2212.66
746.317	3011.37
746.509	2558.77
746.702	2272.05
746.894	2263.86
747.086	2560.81
747.278	2612.01
747.471	2386.74
747.663	2208.56
747.855	2482.99
748.047	2845.48
748.239	2110.26
748.431	2276.15
748.623	2808.62
748.815	2857.77
749.008	2175.8
749.2	2102.07
749.392	2673.45
749.584	2587.44
749.776	2294.58
749.968	2296.63
750.16	2947.88
750.352	2478.9
750.544	2155.32
750.736	2128.69
750.928	2536.24
751.12	2390.83
751.311	2280.24
751.503	2196.28
751.695	2497.33
751.887	2460.46
752.079	2022.2
752.271	2169.65
752.463	3169.06
752.654	2622.25
752.846	2294.58
753.038	2214.71
753.23	2274.1
753.421	2683.69
753.613	2188.08
753.805	2413.36
753.997	2771.76
754.188	2769.71
754.38	2100.02
754.572	2341.68
754.763	2419.5
754.955	2624.3
755.146	2435.89
755.338	2147.12
755.53	2620.21
755.721	2409.26
755.913	2095.93
756.104	2104.12
756.296	2329.39
756.487	2759.47
756.679	2186.04
756.87	2341.68
757.062	2485.04
757.253	2530.09
757.445	2249.52
757.636	2360.11
757.827	2450.22
758.019	2982.7
758.21	2145.08
758.401	2235.19
758.593	2878.25
758.784	2704.17
758.975	2173.75
759.167	2194.23
759.358	2521.9
759.549	2779.95
759.74	2247.48
759.932	2145.08
760.123	2872.11
760.314	2360.11
760.505	2384.69
760.696	2149.17
760.888	3191.59
761.079	2362.16
761.27	2138.93
761.461	2026.29
761.652	2775.85
761.843	2628.4
762.034	2259.76
762.225	2571.05
762.416	2540.33
762.607	2726.7
762.798	2274.1
762.989	2300.72
763.18	3355.43
763.371	2499.38
763.562	2200.37
763.753	2267.95
763.944	2771.76
764.135	2880.3
764.326	2437.94
764.517	2235.19
764.708	2556.72
764.899	2751.28
765.089	2423.6
765.28	2052.92
765.471	2558.77
765.662	2677.55
765.853	2407.22
766.043	2227
766.234	2794.28
766.425	2775.85
766.615	2462.51
766.806	2186.04
766.997	2870.06
767.187	2730.8
767.378	2427.7
767.569	2044.73
767.759	2648.88
767.95	2515.76
768.141	2415.41
768.331	2280.24
768.522	2638.64
768.712	2765.61
768.903	2198.32
769.093	2249.52
769.284	2915.11
769.474	2581.29
769.665	2097.97
769.855	1971
770.046	2722.6
770.236	2501.42
770.426	2460.46
770.617	2243.38
770.807	2605.87
770.998	2558.77
771.188	2595.63
771.378	2220.85
771.569	2734.89
771.759	2665.26
771.949	2136.88
772.139	2126.64
772.33	2536.24
772.52	3027.75
772.71	2267.95
772.9	2136.88
773.09	3011.37
773.281	2759.47
773.471	2202.42
773.661	2294.58
773.851	2964.26
774.041	2513.71
774.231	2235.19
774.421	2468.66
774.611	2960.17
774.802	2542.38
774.992	2325.3
775.182	2265.91
775.372	2476.85
775.562	2777.9
775.752	2202.42
775.942	2358.07
776.131	2904.87
776.321	2833.19
776.511	2304.82
776.701	2222.9
776.891	2841.39
777.081	2399.02
777.271	2450.22
777.461	2181.94
777.651	2767.66
777.84	2827.05
778.03	2470.7
778.22	2386.74
778.41	2845.48
778.599	2366.26
778.789	2362.16
778.979	2214.71
779.169	2644.78
779.358	2706.22
779.548	2620.21
779.738	2210.61
779.927	2644.78
780.117	2272.05
780.307	2470.7
780.496	1932.09
780.686	2708.27
780.875	3011.37
781.065	2317.11
781.254	2220.85
781.444	2546.48
781.633	2628.4
781.823	2243.38
782.012	2235.19
782.202	2550.57
782.391	2427.7
782.581	2128.69
782.77	2597.68
782.96	2765.61
783.149	2603.82
783.338	2333.49
783.528	2216.76
783.717	2790.19
783.906	2874.15
784.096	2325.3
784.285	2177.84
784.474	2411.31
784.663	2337.59
784.853	2376.5
785.042	2300.72
785.231	2528.05
785.42	2831.15
785.61	2278.19
785.799	2190.13
785.988	2480.94
786.177	2618.16
786.366	2374.45
786.555	2489.14
786.744	2839.34
786.933	2509.62
787.122	2165.56
787.312	2110.26
787.501	2456.37
787.69	2775.85
787.879	2284.34
788.068	2362.16
788.257	2288.43
788.445	2396.98
788.634	2282.29
788.823	2245.43
789.012	3232.55
789.201	2923.3
789.39	2235.19
789.579	2261.81
789.768	2689.84
789.957	2583.34
790.145	2267.95
790.334	2016.05
790.523	2474.8
790.712	2462.51
790.9	2321.2
791.089	2065.21
791.278	2921.26
791.467	2738.99
791.655	2495.28
791.844	2738.99
792.033	2376.5
792.221	2466.61
792.41	2179.89
792.599	2138.93
792.787	2861.87
792.976	2689.84
793.164	2247.48
793.353	2278.19
793.541	2798.38
793.73	2882.35
793.918	2366.26
794.107	2388.78
794.295	2650.92
794.484	2526
794.672	2343.73
794.861	2280.24
795.049	2751.28
795.238	3140.39
795.426	2300.72
795.614	2372.4
795.803	2730.8
795.991	2919.21
796.179	2259.76
796.368	2188.08
796.556	2863.91
796.744	2394.93
796.932	2327.35
797.121	2212.66
797.309	2519.85
797.497	2861.87
797.685	2331.44
797.874	2292.53
798.062	2612.01
798.25	2964.26
798.438	2220.85
798.626	2288.43
798.814	2794.28
799.002	3054.37
799.19	2536.24
799.378	2399.02
799.566	2812.71
799.755	2997.03
799.943	2612.01
800.131	2384.69
800.318	2544.43
800.506	2712.36
800.694	2399.02
800.882	2476.85
801.07	2980.65
801.258	2571.05
801.446	2341.68
801.634	2349.87
801.822	2620.21
802.01	2689.84
802.197	2460.46
802.385	2614.06
802.573	2847.53
802.761	2589.49
802.949	2638.64
803.136	2370.35
803.324	2923.3
803.512	2677.55
803.699	2587.44
803.887	2333.49
804.075	2978.6
804.262	2673.45
804.45	2442.03
804.638	2503.47
804.825	2675.5
805.013	2667.31
805.201	2513.71
805.388	2437.94
805.576	2837.29
805.763	3242.79
805.951	2405.17
806.138	2691.88
806.326	3232.55
806.513	2925.35
806.701	2581.29
806.888	2466.61
807.075	2896.68
807.263	3220.26
807.45	2366.26
807.638	2634.54
807.825	3341.09
808.012	3060.52
808.2	2599.73
808.387	2708.27
808.574	2882.35
808.761	3312.42
808.949	2558.77
809.136	2659.12
809.323	2904.87
809.51	2874.15
809.698	2833.19
809.885	2693.93
810.072	2980.65
810.259	3076.9
810.446	2652.97
810.633	2573.1
810.82	3293.99
811.008	3300.13
811.195	2900.78
811.382	2747.18
811.569	2812.71
811.756	2657.07
811.943	2593.58
812.13	2628.4
812.317	2792.23
812.504	2781.99
812.691	2798.38
812.878	2579.25
813.064	3228.45
813.251	2878.25
813.438	2499.38
813.625	2825
813.812	2937.64
813.999	2923.3
814.186	2749.23
814.372	2761.52
814.559	3078.95
814.746	3324.71
814.933	2677.55
815.12	2882.35
815.306	2792.23
815.493	2769.71
815.68	2579.25
815.866	2614.06
816.053	3328.8
816.24	3476.26
816.426	2839.34
816.613	2710.32
816.799	3083.05
816.986	3271.46
817.173	2622.25
817.359	2579.25
817.546	3021.61
817.732	2609.97
817.919	2538.29
818.105	2845.48
818.292	2951.98
818.478	3087.14
818.665	2753.32
818.851	2679.6
819.037	3484.45
819.224	2980.65
819.41	2591.53
819.597	2521.9
819.783	3312.42
819.969	3119.91
820.156	2706.22
820.342	2667.31
820.528	3791.64
820.714	2978.6
820.901	3081
821.087	2679.6
821.273	3410.72
821.459	2917.16
821.646	2646.83
821.832	2622.25
822.018	3107.62
822.204	2935.59
822.39	2730.8
822.576	2622.25
822.762	3148.58
822.948	3031.85
823.134	2941.74
823.32	2747.18
823.507	2693.93
823.693	3052.33
823.879	3046.18
824.065	2663.21
824.25	3062.57
824.436	2827.05
824.622	2784.04
824.808	2655.02
824.994	2954.02
825.18	3015.46
825.366	2775.85
825.552	2706.22
825.738	2990.89
825.923	3173.16
826.109	2988.84
826.295	2628.4
826.481	2884.39
826.667	2870.06
826.852	2927.4
827.038	2603.82
827.224	3171.11
827.409	3449.63
827.595	2622.25
827.781	2970.41
827.966	3189.54
828.152	3341.09
828.338	2767.66
828.523	2612.01
828.709	2724.65
828.894	3236.64
829.08	2710.32
829.266	2585.39
829.451	2853.67
829.637	3259.17
829.822	2876.2
830.008	2624.3
830.193	3285.8
830.378	3201.83
830.564	2644.78
830.749	2655.02
830.935	3074.85
831.12	3121.96
831.305	2661.16
831.491	2747.18
831.676	2808.62
831.861	3177.25
832.047	2710.32
832.232	2458.42
832.417	3328.8
832.602	3029.8
832.788	2751.28
832.973	2626.35
833.158	3031.85
833.343	3007.27
833.528	2829.1
833.714	2683.69
833.899	3142.44
834.084	3418.91
834.269	2882.35
834.454	2743.08
834.639	3240.74
834.824	3029.8
835.009	2908.97
835.194	2855.72
835.379	3132.2
835.564	3504.93
835.749	2956.07
835.934	2599.73
836.119	3089.19
836.304	3087.14
836.489	2712.36
836.674	2886.44
836.859	2818.86
837.044	3293.99
837.228	2777.9
837.413	2505.52
837.598	3085.09
837.783	3275.56
837.968	2802.47
838.152	2513.71
838.337	2530.09
838.522	3226.4
838.707	3124.01
838.891	2915.11
839.076	3037.99
839.261	3328.8
839.445	2691.88
839.63	2753.32
839.815	3449.63
839.999	2941.74
840.184	2698.03
840.368	2759.47
840.553	3121.96
840.737	3296.04
840.922	2671.4
841.106	2669.36
841.291	2747.18
841.475	3148.58
841.66	2736.94
841.844	2738.99
842.029	3631.9
842.213	2829.1
842.397	2640.69
842.582	2634.54
842.766	3160.87
842.951	3224.36
843.135	2794.28
843.319	2702.12
843.504	3054.37
843.688	3115.81
843.872	2433.84
844.056	2587.44
844.241	3259.17
844.425	2956.07
844.609	2929.45
844.793	2538.29
844.977	3222.31
845.161	2999.08
845.346	2669.36
845.53	2523.95
845.714	2982.7
845.898	3394.34
846.082	2521.9
846.266	2640.69
846.45	3052.33
846.634	2990.89
846.818	2673.45
847.002	2837.29
847.186	3107.62
847.37	2665.26
847.554	2644.78
847.738	2851.63
847.922	3128.1
848.106	3029.8
848.29	2648.88
848.473	2624.3
848.657	3081
848.841	2943.78
849.025	2720.56
849.209	2554.67
849.392	3205.92
849.576	2900.78
849.76	2505.52
849.944	2988.84
850.127	3361.57
850.311	2685.74
850.495	2523.95
850.678	2550.57
850.862	3300.13
851.046	3328.8
851.229	3103.53
851.413	2546.48
851.596	2894.63
851.78	2872.11
851.964	2794.28
852.147	2743.08
852.331	3586.85
852.514	3244.84
852.698	2810.67
852.881	2437.94
853.065	3293.99
853.248	2978.6
853.431	2931.5
853.615	2765.61
853.798	3644.19
853.982	3033.9
854.165	2945.83
854.348	2624.3
854.532	2650.92
854.715	2755.37
854.898	2749.23
855.081	2761.52
855.265	3291.94
855.448	3351.33
855.631	2624.3
855.814	2716.46
855.997	3142.44
856.181	2863.91
856.364	2741.04
856.547	2460.46
856.73	3144.49
856.913	3005.22
857.096	2403.12
857.279	2761.52
857.462	2736.94
857.645	3269.41
857.828	2691.88
858.011	2624.3
858.194	2747.18
858.377	3003.18
858.56	2636.59
858.743	2673.45
858.926	2698.03
859.109	3076.9
859.292	2673.45
859.475	2511.66
859.658	3119.91
859.841	2980.65
860.023	2495.28
860.206	2542.38
860.389	2904.87
860.572	3230.5
860.755	2665.26
860.937	2466.61
861.12	2888.49
861.303	2890.54
861.486	2681.64
861.668	2605.87
861.851	3033.9
862.034	2988.84
862.216	2648.88
862.399	2323.25
862.581	3099.43
862.764	3250.98
862.947	2646.83
863.129	2648.88
863.312	2597.68
863.494	3248.93
863.677	2902.83
863.859	2538.29
864.042	2960.17
864.224	3207.97
864.406	2755.37
864.589	2464.56
864.771	2951.98
864.954	2507.57
865.136	2685.74
865.318	2403.12
865.501	3009.32
865.683	2337.59
865.865	2376.5
866.048	2530.09
866.23	2878.25
866.412	2876.2
866.594	2503.47
866.777	2566.96
866.959	2974.5
867.141	2693.93
867.323	2679.6
867.505	2640.69
867.687	2777.9
867.869	2951.98
868.052	2544.43
868.234	2341.68
868.416	2796.33
868.598	3062.57
868.78	2646.83
868.962	2460.46
869.144	3066.66
869.326	2988.84
869.508	2581.29
869.69	2444.08
869.872	2599.73
870.054	3081
870.236	2452.27
870.417	2405.17
870.599	2732.84
870.781	3169.06
870.963	2693.93
871.145	2583.34
871.327	2661.16
871.508	3064.61
871.69	2489.14
871.872	2751.28
872.054	2669.36
872.235	2833.19
872.417	2704.17
872.599	2532.14
872.78	3115.81
872.962	2831.15
873.144	2415.41
873.325	2655.02
873.507	3207.97
873.689	2913.06
873.87	2491.18
874.052	2693.93
874.233	2677.55
874.415	3078.95
874.596	2665.26
874.778	2435.89
874.959	2777.9
875.141	2956.07
875.322	2511.66
875.503	2577.2
875.685	3074.85
875.866	2425.65
876.048	2644.78
876.229	2624.3
876.41	2855.72
876.592	2827.05
876.773	2517.81
876.954	2399.02
877.136	3271.46
877.317	2767.66
877.498	2405.17
877.679	2767.66
877.86	2966.31
878.042	2921.26
878.223	2695.98
878.404	2941.74
878.585	2992.94
878.766	3367.71
878.947	2894.63
879.128	2939.69
879.309	3089.19
879.49	3150.63
879.672	2902.83
879.853	2646.83
880.034	2708.27
880.215	2935.59
880.396	2677.55
880.576	2667.31
880.757	2800.43
880.938	3408.67
881.119	2669.36
881.3	2818.86
881.481	2939.69
881.662	3803.93
881.843	2687.79
882.023	2646.83
882.204	2933.54
882.385	3009.32
882.566	2749.23
882.747	2718.51
882.927	2845.48
883.108	3054.37
883.289	2689.84
883.469	2974.5
883.65	3042.09
883.831	3191.59
884.011	2921.26
884.192	2767.66
884.373	3205.92
884.553	3124.01
884.734	3005.22
884.914	3097.38
885.095	3762.97
885.275	3420.96
885.456	3031.85
885.636	2482.99
885.817	2931.5
885.997	3105.57
886.178	2724.65
886.358	2822.95
886.538	3046.18
886.719	4152.09
886.899	2671.4
887.08	2917.16
887.26	3539.74
887.44	3003.18
887.621	2814.76
887.801	3136.29
887.981	3636
888.161	3466.02
888.342	2964.26
888.522	3035.94
888.702	3365.67
888.882	3410.72
889.062	3095.33
889.242	2677.55
889.423	3533.6
889.603	3312.42
889.783	3040.04
889.963	2958.12
890.143	3400.48
890.323	3539.74
890.503	2970.41
890.683	3015.46
890.863	3193.64
891.043	3259.17
891.223	2951.98
891.403	3105.57
891.583	3390.24
891.763	3214.12
891.943	3087.14
892.122	2904.87
892.302	3310.37
892.482	3107.62
892.662	3027.75
892.842	2874.15
893.022	3248.93
893.201	3103.53
893.381	3128.1
893.561	3040.04
893.741	3498.78
893.92	3498.78
894.1	3185.44
894.28	3287.84
894.459	3506.98
894.639	3455.78
894.819	2960.17
894.998	3250.98
895.178	3453.73
895.357	3437.34
895.537	2994.98
895.716	2781.99
895.896	3404.58
896.075	3719.96
896.255	3037.99
896.434	2861.87
896.614	3578.65
896.793	3611.42
896.973	3193.64
897.152	3109.67
897.331	3490.59
897.511	3670.81
897.69	3044.13
897.87	3271.46
898.049	3541.79
898.228	3175.2
898.407	3259.17
898.587	3242.79
898.766	3023.66
898.945	3414.82
899.124	3445.54
899.304	3105.57
899.483	3468.06
899.662	3728.16
899.841	3060.52
900.02	3119.91
900.199	3687.2
900.378	3402.53
900.557	3062.57
900.737	2906.92
900.916	3482.4
901.095	3570.46
901.274	3480.35
901.453	3056.42
901.632	3259.17
901.811	3011.37
901.989	3037.99
902.168	2982.7
902.347	3513.12
902.526	3164.97
902.705	3054.37
902.884	3138.34
903.063	3676.96
903.242	3578.65
903.42	3011.37
903.599	3189.54
903.778	3554.08
903.957	3533.6
904.135	3197.73
904.314	2947.88
904.493	3343.14
904.672	3468.06
904.85	3035.94
905.029	2908.97
905.207	3345.19
905.386	4016.92
905.565	2958.12
905.743	3023.66
905.922	3195.68
906.1	3402.53
906.279	2882.35
906.457	2970.41
906.636	3119.91
906.814	3195.68
906.993	2999.08
907.171	2925.35
907.35	3517.22
907.528	3384.1
907.707	3273.51
907.885	2851.63
908.063	3576.61
908.242	3132.2
908.42	3035.94
908.598	2718.51
908.777	3392.29
908.955	3097.38
909.133	3078.95
909.311	2700.08
909.49	3164.97
909.668	3255.08
909.846	2925.35
910.024	2671.4
910.202	3105.57
910.38	3265.32
910.559	2753.32
910.737	2714.41
910.915	3009.32
911.093	3287.84
911.271	2874.15
911.449	3130.15
911.627	3275.56
911.805	3674.91
911.983	2984.74
912.161	2837.29
912.339	3214.12
912.517	3435.3
912.695	3040.04
912.872	2988.84
913.05	3046.18
913.228	3109.67
913.406	2861.87
913.584	2800.43
913.762	3242.79
913.939	2994.98
914.117	2779.95
914.295	2702.12
914.473	3117.86
914.65	3072.81
914.828	2779.95
915.006	2675.5
915.184	2685.74
915.361	3130.15
915.539	2958.12
915.716	2962.22
915.894	3128.1
916.072	3193.64
916.249	3042.09
916.427	3025.7
916.604	2751.28
916.782	3210.02
916.959	2657.07
917.137	2716.46
917.314	3019.56
917.492	3226.4
917.669	3033.9
917.847	2808.62
918.024	3128.1
918.201	2966.31
918.379	2863.91
918.556	2843.43
918.733	3275.56
918.911	2845.48
919.088	2898.73
919.265	2757.42
919.442	3091.24
919.62	2769.71
919.797	2605.87
919.974	2579.25
920.151	2976.55
920.328	2904.87
920.506	2718.51
920.683	2892.59
920.86	2693.93
921.037	2720.56
921.214	2753.32
921.391	2704.17
921.568	3134.25
921.745	2734.89
921.922	2726.7
922.099	2702.12
922.276	3152.68
922.453	2894.63
922.63	2577.2
922.807	2939.69
922.984	2816.81
923.161	2609.97
923.338	2540.33
923.514	2595.63
923.691	2878.25
923.868	2890.54
924.045	2485.04
924.222	2530.09
924.399	2923.3
924.575	3058.47
924.752	2624.3
924.929	2730.8
925.105	2786.09
925.282	2478.9
925.459	2439.98
925.635	2564.91
925.812	2771.76
925.989	2589.49
926.165	2554.67
926.342	2317.11
926.518	2323.25
926.695	2831.15
926.871	2521.9
927.048	2399.02
927.224	2931.5
927.401	2652.97
927.577	2411.31
927.754	2278.19
927.93	2966.31
928.107	2788.14
928.283	2317.11
928.459	2493.23
928.636	2745.13
928.812	2489.14
928.988	2308.91
929.165	2280.24
929.341	2528.05
929.517	2431.79
929.693	2652.97
929.87	2128.69
930.046	2638.64
930.222	2417.46
930.398	2120.5
930.574	2405.17
930.751	2435.89
930.927	2270
931.103	2374.45
931.279	2155.32
931.455	2177.84
931.631	2530.09
931.807	1850.17
931.983	2030.39
932.159	2052.92
932.335	2466.61
932.511	2304.82
932.687	2245.43
932.863	2452.27
933.039	2427.7
933.215	1964.86
933.391	2005.81
933.566	2310.96
933.742	2345.78
933.918	2042.68
934.094	1788.73
934.27	2333.49
934.445	2188.08
934.621	2116.41
934.797	1889.08
934.973	2360.11
935.148	2300.72
935.324	1809.21
935.5	1774.39
935.675	2390.83
935.851	2204.47
936.027	1815.35
936.202	1778.49
936.378	2186.04
936.553	2157.36
936.729	2349.87
936.904	1710.91
937.08	1645.37
937.255	1770.3
937.431	1678.14
937.606	1434.43
937.782	1760.06
937.957	1925.94
938.133	1555.26
938.308	1434.43
938.483	1792.83
938.659	1469.25
938.834	1635.13
939.009	1366.85
939.185	1624.89
939.36	1397.57
939.535	1098.56
939.71	1510.21
939.886	1794.87
940.061	1565.5
940.236	1682.24
940.411	1268.55
940.586	1694.52
940.761	1661.76
940.937	1420.1
941.112	1178.44
941.287	1536.83
941.462	1508.16
941.637	1186.63
941.812	1262.4
941.987	1510.21
942.162	1426.24
942.337	1246.02
942.512	1174.34
942.687	1616.7
942.862	1465.15
943.037	1037.13
943.212	934.73
943.386	1360.7
943.561	1483.58
943.736	1276.74
943.911	1469.25
944.086	1526.59
944.26	1444.67
944.435	1129.28
944.61	1301.31
944.785	1620.8
944.959	1680.19
945.134	1325.89
945.309	1080.13
945.483	1190.72
945.658	1545.02
945.833	856.9
946.007	985.93
946.182	1696.57
946.357	1096.52
946.531	1049.41
946.706	883.53
946.88	963.4
947.055	1436.48
947.229	1002.31
947.404	998.21
947.578	1508.16
947.752	1149.76
947.927	914.25
948.101	832.33
948.276	1313.6
948.45	1297.22
948.624	1291.07
948.799	1090.37
948.973	1329.99
949.147	1125.19
949.321	1096.52
949.496	1002.31
949.67	1532.73
949.844	1264.45
950.018	1110.85
950.193	1100.61
950.367	1776.44
950.541	1170.24
950.715	1293.12
950.889	1297.22
951.063	1114.95
951.237	1459.01
951.411	760.65
951.585	883.53
951.759	1403.71
951.933	1205.06
952.107	979.78
952.281	1233.73
952.455	1567.55
952.629	1401.66
952.803	1108.8
952.977	1106.76
953.151	1518.4
953.325	1372.99
953.499	1170.24
953.672	930.63
953.846	1061.7
954.02	1123.14
954.194	979.78
954.368	983.88
954.541	1442.62
954.715	1211.2
954.889	1092.42
955.062	963.4
955.236	1217.35
955.41	1223.49
955.583	1174.34
955.757	832.33
955.93	1225.54
956.104	1043.27
956.278	967.49
956.451	1055.56
956.625	1360.7
956.798	1661.76
956.972	1272.64
957.145	891.72
957.319	1321.79
957.492	1227.59
957.665	1258.31
957.839	934.73
958.012	1305.41
958.185	1149.76
958.359	944.97
958.532	1164.1
958.705	1403.71
958.879	1346.37
959.052	1043.27
959.225	869.19
959.398	1235.78
959.572	1428.29
959.745	1006.41
959.918	1108.8
960.091	1174.34
960.264	1397.57
960.438	910.15
960.611	951.11
960.784	1567.55
960.957	1119.04
961.13	1420.1
961.303	932.68
961.476	1149.76
961.649	1473.34
961.822	906.06
961.995	1078.08
962.168	1354.56
962.341	1264.45
962.514	1082.18
962.686	947.01
962.859	1268.55
963.032	1368.9
963.205	1012.55
963.378	854.86
963.551	1352.51
963.723	1246.02
963.896	1194.82
964.069	1071.94
964.242	1143.62
964.414	1469.25
964.587	1112.9
964.76	1061.7
964.932	1178.44
965.105	1231.68
965.278	965.45
965.45	1014.6
965.623	1334.08
965.795	1360.7
965.968	973.64
966.14	1028.93
966.313	1094.47
966.485	1241.92
966.658	959.3
966.83	891.72
967.003	1479.49
967.175	1379.14
967.348	932.68
967.52	1000.26
967.692	1538.88
967.865	1280.83
968.037	1080.13
968.209	1295.17
968.382	1203.01
968.554	1418.05
968.726	1035.08
968.898	949.06
969.071	1278.79
969.243	1305.41
969.415	1006.41
969.587	1047.37
969.759	1639.23
969.932	1372.99
970.104	1002.31
970.276	707.4
970.448	1028.93
970.62	1139.52
970.792	1106.76
970.964	1022.79
971.136	1641.28
971.308	1354.56
971.48	916.3
971.652	944.97
971.824	1579.84
971.996	1059.65
972.168	944.97
972.339	1067.85
972.511	1409.86
972.683	1188.68
972.855	1174.34
973.027	928.58
973.199	1223.49
973.37	1323.84
973.542	1028.93
973.714	1121.09
973.886	1196.87
974.057	1372.99
974.229	863.05
974.401	844.62
974.572	953.16
974.744	772.94
974.915	904.01
975.087	983.88
975.259	1563.45
975.43	1035.08
975.602	930.63
975.773	803.66
975.945	1008.45
976.116	1360.7
976.288	789.32
976.459	1080.13
976.63	1092.42
976.802	1293.12
976.973	908.1
977.145	1039.17
977.316	1633.08
977.487	1383.23
977.659	1106.76
977.83	975.69
978.001	1469.25
978.172	1153.86
978.344	863.05
978.515	957.25
978.686	1028.93
978.857	1565.5
979.028	875.34
979.2	887.62
979.371	1383.23
979.542	1129.28
979.713	1065.8
979.884	547.66
980.055	924.49
980.226	965.45
980.397	901.96
980.568	842.57
980.739	1350.46
980.91	1047.37
981.081	1096.52
981.252	904.01
981.423	1227.59
981.594	1307.46
981.765	813.9
981.936	965.45
982.106	1178.44
982.277	1440.58
982.448	873.29
982.619	1106.76
982.79	969.54
982.96	1258.31
983.131	856.9
983.302	664.4
983.472	990.02
983.643	1112.9
983.814	879.43
983.984	918.34
984.155	1014.6
984.326	1428.29
984.496	990.02
984.667	840.52
984.837	838.47
985.008	1436.48
985.178	1051.46
985.349	916.3
985.519	1033.03
985.69	897.86
985.86	879.43
986.031	678.73
986.201	1041.22
986.371	1180.48
986.542	748.36
986.712	592.72
986.882	1147.72
987.053	1063.75
987.223	758.6
987.393	869.19
987.563	942.92
987.734	1235.78
987.904	1145.67
988.074	629.58
988.244	1041.22
988.414	861
988.585	787.27
988.755	899.91
988.925	887.62
989.095	1395.52
989.265	758.6
989.435	801.61
989.605	1172.29
989.775	1084.23
989.945	1047.37
990.115	697.16
990.285	906.06
990.455	1096.52
990.625	861
990.795	850.76
990.965	1305.41
991.134	793.42
991.304	715.59
991.474	662.35
991.644	1174.34
991.814	1426.24
991.984	607.05
992.153	711.5
992.323	1000.26
992.493	969.54
992.662	527.18
992.832	901.96
993.002	977.73
993.171	928.58
993.341	541.52
993.511	926.54
993.68	811.85
993.85	1114.95
994.019	533.33
994.189	594.76
994.358	1012.55
994.528	809.8
994.697	451.41
994.867	549.71
995.036	1178.44
995.206	805.71
995.375	713.55
995.544	879.43
995.714	1016.65
995.883	883.53
996.052	936.78
996.222	484.17
996.391	1413.95
996.56	949.06
996.73	621.39
996.899	529.23
997.068	1311.55
997.237	885.58
997.406	645.96
997.576	500.56
997.745	961.35
997.914	912.2
998.083	371.54
998.252	570.19
998.421	867.14
998.59	744.27
998.759	551.76
998.928	355.15
999.097	1194.82
999.266	1071.94
999.435	762.7
999.604	355.15
999.773	1362.75
999.942	850.76
1000.111	424.78
1000.28	375.63
1000.448	631.63
1000.617	650.06
1000.786	701.26
1000.955	490.32
1001.124	846.66
1001.292	1502.01
1001.461	541.52
1001.63	455.5
1001.798	1123.14
1001.967	1178.44
1002.136	422.73
1002.304	414.54
1002.473	838.47
1002.642	973.64
1002.81	463.69
1002.979	416.59
1003.147	979.78
1003.316	1350.46
1003.484	543.57
1003.653	486.22
1003.821	1153.86
1003.99	863.05
1004.158	551.76
1004.327	697.16
1004.495	1006.41
1004.663	641.87
1004.832	619.34
1005	377.68
1005.168	891.72
1005.337	901.96
1005.505	346.96
1005.673	723.79
1005.842	957.25
1006.01	981.83
1006.178	377.68
1006.346	488.27
1006.514	959.3
1006.683	1133.38
1006.851	494.41
1007.019	273.23
1007.187	584.52
1007.355	338.77
1007.523	287.57
1007.691	318.29
1007.859	461.65
1008.027	1127.24
1008.195	375.63
1008.363	332.62
1008.531	858.95
1008.699	529.23
1008.867	303.95
1009.035	521.04
1009.203	1012.55
1009.37	809.8
1009.538	484.17
1009.706	801.61
1009.874	865.1
1010.042	793.42
1010.209	338.77
1010.377	338.77
1010.545	949.06
1010.713	748.36
1010.88	295.76
1011.048	453.45
1011.216	695.11
1011.383	1022.79
1011.551	353.1
1011.718	328.53
1011.886	1022.79
1012.054	703.31
1012.221	295.76
1012.389	328.53
1012.556	656.2
1012.724	1157.96
1012.891	457.55
1013.058	164.69
1013.226	854.86
1013.393	924.49
1013.561	260.95
1013.728	252.75
1013.895	899.91
1014.063	803.66
1014.23	209.75
1014.397	338.77
1014.565	947.01
1014.732	564.04
1014.899	369.49
1015.066	287.57
1015.233	770.89
1015.401	789.32
1015.568	394.06
1015.735	351.06
1015.902	840.52
1016.069	820.04
1016.236	291.66
1016.403	269.14
1016.57	424.78
1016.737	824.14
1016.904	383.82
1017.071	234.32
1017.238	559.95
1017.405	754.51
1017.572	387.92
1017.739	500.56
1017.906	883.53
1018.073	811.85
1018.24	252.75
1018.407	291.66
1018.573	912.2
1018.74	658.25
1018.907	324.43
1019.074	127.83
1019.241	879.43
1019.407	643.92
1019.574	322.38
1019.741	152.4
1019.907	654.16
1020.074	725.83
1020.241	105.3
1020.407	129.88
1020.574	701.26
1020.74	826.18
1020.907	299.86
1021.073	158.55
1021.24	1145.67
1021.406	869.19
1021.573	80.72
1021.739	183.12
1021.906	764.75
1022.072	627.53
1022.239	195.41
1022.405	234.32
1022.571	637.77
1022.738	406.35
1022.904	195.41
1023.07	295.76
1023.237	645.96
1023.403	781.13
1023.569	154.45
1023.735	222.03
1023.902	664.4
1024.068	648.01
1024.234	109.4
1024.4	260.95
1024.566	654.16
1024.732	785.23
1024.898	344.91
1025.065	138.07
1025.231	750.41
1025.397	512.85
1025.563	203.6
1025.729	181.07
1025.895	248.66
1026.061	369.49
1026.227	41.81
1026.392	303.95
1026.558	805.71
1026.724	643.92
1026.89	123.73
1027.056	322.38
1027.222	660.3
1027.388	410.45
1027.553	129.88
1027.719	201.55
1027.885	981.83
1028.051	707.4
1028.216	41.81
1028.382	297.81
1028.548	731.98
1028.713	379.73
1028.879	41.81
1029.045	340.82
1029.21	842.57
1029.376	826.18
1029.541	199.51
1029.707	207.7
1029.873	721.74
1030.038	740.17
1030.204	164.69
1030.369	168.79
1030.534	738.12
1030.7	400.21
1030.865	185.17
1031.031	47.96
1031.196	656.2
1031.361	547.66
1031.527	111.44
1031.692	78.68
1031.857	158.55
1032.023	731.98
1032.188	43.86
1032.353	162.64
1032.518	914.25
1032.684	562
1032.849	33.62
1033.014	189.27
1033.179	682.83
1033.344	627.53
1033.509	244.56
1033.674	121.68
1033.839	686.92
1034.004	707.4
1034.17	43.86
1034.335	70.48
1034.5	410.45
1034.664	387.92
1034.829	7
1034.994	203.6
1035.159	553.8
1035.324	639.82
1035.489	199.51
1035.654	131.92
1035.819	916.3
1035.984	598.86
1036.148	252.75
1036.313	183.12
1036.478	643.92
1036.643	547.66
1036.807	33.62
1036.972	129.88
1037.137	844.62
1037.301	482.13
1037.466	-74.92
1037.631	162.64
1037.795	789.32
1037.96	588.62
1038.124	265.04
1038.289	-87.21
1038.454	729.93
1038.618	633.68
1038.783	99.16
1038.947	185.17
1039.111	473.93
1039.276	424.78
1039.44	93.01
1039.605	576.33
1039.769	373.58
1039.933	387.92
1040.098	144.21
1040.262	365.39
1040.426	637.77
1040.591	611.15
1040.755	64.34
1040.919	121.68
1041.083	562
1041.248	492.37
1041.412	-107.69
1041.576	0.85
1041.74	457.55
1041.904	650.06
1042.068	-5.29
1042.232	121.68
1042.397	619.34
1042.561	510.8
1042.725	-134.31
1042.889	215.89
1043.053	564.04
1043.217	605
1043.381	232.27
1043.544	-62.63
1043.708	736.07
1043.872	117.59
1044.036	-167.08
1044.2	-42.15
1044.364	623.44
1044.528	850.76
1044.691	3380
1044.855	-29.87
1045.019	590.67
1045.183	523.09
1045.346	27.48
1045.51	-64.68
1045.674	480.08
1045.837	533.33
1046.001	127.83
1046.165	76.63
1046.328	1055.56
1046.492	445.26
1046.655	213.84
1046.819	133.97
1046.983	344.91
1047.146	457.55
1047.31	195.41
1047.473	-81.07
1047.636	367.44
1047.8	269.14
1047.963	9.05
1048.127	2.9
1048.29	262.99
