Data from Ink_Intensity_USB4F045381__93__00093.txt Node

Date: Mon Jul 17 11:02:36 EDT 2023
User: mmckonesweet
Spectrometer: USB4F04538
Trigger mode: 4
Integration Time (sec): 9.000000E-1
Scans to average: 1
Electric dark correction enabled: true
Nonlinearity correction enabled: false
Boxcar width: 0
XAxis mode: Wavelengths
Number of Pixels in Spectrum: 3648
>>>>>Begin Spectral Data<<<<<
345.52	-955.21
345.736	-955.21
345.952	-955.21
346.168	-965.45
346.384	-985.93
346.6	-144.21
346.816	-144.21
347.032	-256.85
347.248	285.86
347.464	-209.75
347.68	-168.79
347.896	95.4
348.112	425.12
348.328	-78.68
348.544	-97.11
348.76	21.67
348.975	271.53
349.191	-224.08
349.407	-136.02
349.623	62.63
349.839	-109.4
350.055	-93.01
350.27	99.5
350.486	189.61
350.702	345.25
350.918	267.43
351.133	-240.47
351.349	156.84
351.565	421.03
351.781	-207.7
351.996	48.3
352.212	332.97
352.428	-121.68
352.644	-195.41
352.859	-129.88
353.075	265.38
353.291	105.64
353.506	-105.3
353.722	-199.51
353.938	-80.72
354.153	435.36
354.369	238.76
354.584	-168.79
354.8	257.19
355.016	-191.31
355.231	-191.31
355.447	-86.87
355.662	146.6
355.878	756.9
356.093	-248.66
356.309	-9.05
356.524	-129.88
356.74	314.53
356.955	-248.66
357.171	-25.43
357.386	148.65
357.602	-80.72
357.817	-7
358.033	-162.64
358.248	394.4
358.464	205.99
358.679	-82.77
358.895	-154.45
359.11	15.53
359.325	386.21
359.541	27.82
359.756	52.39
359.972	-279.38
360.187	240.81
360.402	-152.4
360.618	-84.82
360.833	943.26
361.048	191.66
361.264	-146.26
361.479	-29.52
361.694	46.25
361.909	298.15
362.125	-125.78
362.34	-88.92
362.555	296.1
362.77	238.76
362.986	-242.51
363.201	-129.88
363.416	222.38
363.631	117.93
363.847	-105.3
364.062	-82.77
364.277	283.81
364.492	103.59
364.707	-123.73
364.922	-363.34
365.138	275.62
365.353	427.17
365.568	-211.79
365.783	-78.68
365.998	79.02
366.213	578.72
366.428	-240.47
366.643	132.26
366.858	271.53
367.073	314.53
367.288	-13.14
367.503	-209.75
367.718	117.93
367.933	461.99
368.148	-230.23
368.363	-31.57
368.578	70.83
368.793	482.47
369.008	-195.41
369.223	-219.99
369.438	220.33
369.653	414.88
369.868	-222.03
370.083	-138.07
370.298	105.64
370.513	492.71
370.728	25.77
370.943	-144.21
371.157	-97.11
371.372	562.34
371.587	-222.03
371.802	-146.26
372.017	148.65
372.232	461.99
372.446	-29.52
372.661	-189.27
372.876	308.39
373.091	165.03
373.306	-88.92
373.52	-185.17
373.735	-168.79
373.95	447.65
374.165	-84.82
374.379	-82.77
374.594	-123.73
374.809	158.89
375.023	103.59
375.238	-179.03
375.453	279.72
375.667	-297.81
375.882	-101.2
376.097	-193.36
376.311	62.63
376.526	3.24
376.741	-125.78
376.955	140.46
377.17	613.54
377.384	607.39
377.599	25.77
377.813	-256.85
378.028	642.21
378.242	292.01
378.457	-31.57
378.672	-271.19
378.886	136.36
379.101	91.31
379.315	-342.86
379.53	-121.68
379.744	312.49
379.958	150.7
380.173	-154.45
380.387	-113.49
380.602	158.89
380.816	1.19
381.031	-35.67
381.245	-133.97
381.459	212.14
381.674	2843.78
381.888	-129.88
382.103	136.36
382.317	-86.87
382.531	525.47
382.746	-25.43
382.96	-90.96
383.174	1.19
383.388	521.38
383.603	175.27
383.817	-168.79
384.031	113.83
384.246	550.05
384.46	136.36
384.674	363.69
384.888	136.36
385.103	83.11
385.317	-185.17
385.531	40.11
385.745	408.74
385.959	332.97
386.174	-129.88
386.388	-144.21
386.602	17.58
386.816	-74.58
387.03	-4.95
387.244	40.11
387.458	201.9
387.672	382.12
387.887	-201.55
388.101	-162.64
388.315	427.17
388.529	171.18
388.743	-93.01
388.957	-117.59
389.171	332.97
389.385	-2.9
389.599	-56.15
389.813	136.36
390.027	236.71
390.241	740.51
390.455	-39.76
390.669	-166.74
390.883	-37.72
391.097	570.53
391.311	101.55
391.525	-105.3
391.738	216.23
391.952	109.74
392.166	15.53
392.38	-121.68
392.594	386.21
392.808	470.18
393.022	70.83
393.236	-47.96
393.449	345.25
393.663	230.57
393.877	-234.32
394.091	-25.43
394.305	56.49
394.518	-17.24
394.732	-191.31
394.946	11.43
395.16	586.91
395.373	201.9
395.587	-146.26
395.801	-113.49
396.015	447.65
396.228	298.15
396.442	-138.07
396.656	-207.7
396.869	457.89
397.083	603.3
397.297	21.67
397.51	-78.68
397.724	464.04
397.938	230.57
398.151	-256.85
398.365	-244.56
398.578	367.78
398.792	507.04
399.005	97.45
399.219	-37.72
399.433	181.42
399.646	357.54
399.86	124.07
400.073	132.26
400.287	337.06
400.5	117.93
400.714	52.39
400.927	-7
401.141	275.62
401.354	1129.63
401.567	275.62
401.781	-205.65
401.994	398.5
402.208	730.27
402.421	33.96
402.635	9.39
402.848	171.18
403.061	431.27
403.275	142.5
403.488	-125.78
403.701	535.71
403.915	279.72
404.128	95.4
404.341	-84.82
404.555	318.63
404.768	140.46
404.981	99.5
405.195	-60.24
405.408	627.87
405.621	337.06
405.834	132.26
406.048	-45.91
406.261	545.95
406.474	541.86
406.687	-131.92
406.9	138.41
407.114	132.26
407.327	216.23
407.54	-256.85
407.753	-209.75
407.966	3.24
408.179	343.21
408.392	-203.6
408.605	-195.41
408.819	287.91
409.032	279.72
409.245	-138.07
409.458	152.74
409.671	341.16
409.884	353.45
410.097	-138.07
410.31	169.13
410.523	312.49
410.736	191.66
410.949	13.48
411.162	-52.05
411.375	601.25
411.588	439.46
411.801	130.22
412.014	-84.82
412.227	185.51
412.44	156.84
412.653	-37.72
412.865	160.94
413.078	404.64
413.291	322.73
413.504	-2.9
413.717	-121.68
413.93	418.98
414.143	-7
414.356	52.39
414.568	-219.99
414.781	439.46
414.994	308.39
415.207	48.3
415.42	58.54
415.632	388.26
415.845	697.5
416.058	-80.72
416.271	-74.58
416.483	296.1
416.696	648.35
416.909	-9.05
417.121	25.77
417.334	351.4
417.547	724.13
417.759	29.87
417.972	9.39
418.185	109.74
418.397	431.27
418.61	7.34
418.823	27.82
419.035	634.02
419.248	283.81
419.46	42.15
419.673	156.84
419.885	353.45
420.098	191.66
420.311	9.39
420.523	-162.64
420.736	392.36
420.948	222.38
421.161	-37.72
421.373	-176.98
421.586	283.81
421.798	150.7
422.01	-64.34
422.223	246.95
422.435	99.5
422.648	408.74
422.86	-7
423.073	-23.38
423.285	474.28
423.497	-31.57
423.71	-66.39
423.922	11.43
424.134	343.21
424.347	631.97
424.559	201.9
424.771	341.16
424.984	236.71
425.196	427.17
425.408	-123.73
425.621	-47.96
425.833	488.61
426.045	615.59
426.257	-41.81
426.47	66.73
426.682	357.54
426.894	437.41
427.106	44.2
427.318	36.01
427.531	193.7
427.743	488.61
427.955	122.02
428.167	468.13
428.379	431.27
428.591	246.95
428.804	156.84
429.016	46.25
429.228	181.42
429.44	472.23
429.652	271.53
429.864	-47.96
430.076	261.29
430.288	337.06
430.5	124.07
430.712	140.46
430.924	539.81
431.136	464.04
431.348	-31.57
431.56	58.54
431.772	369.83
431.984	312.49
432.196	21.67
432.408	148.65
432.62	199.85
432.832	459.94
433.044	418.98
433.256	224.42
433.468	502.95
433.679	56.49
433.891	113.83
434.103	361.64
434.315	677.02
434.527	482.47
434.739	279.72
434.95	222.38
435.162	566.43
435.374	242.85
435.586	218.28
435.798	89.26
436.009	62.63
436.221	281.77
436.433	115.88
436.645	160.94
436.856	240.81
437.068	814.24
437.28	134.31
437.491	418.98
437.703	541.86
437.915	431.27
438.126	142.5
438.338	482.47
438.55	380.07
438.761	584.87
438.973	240.81
439.184	181.42
439.396	502.95
439.608	593.06
439.819	91.31
440.031	273.57
440.242	617.63
440.454	566.43
440.665	214.18
440.877	324.77
441.088	566.43
441.3	349.35
441.511	-2.9
441.723	152.74
441.934	545.95
442.146	425.12
442.357	396.45
442.569	554.15
442.78	466.08
442.991	842.91
443.203	517.28
443.414	150.7
443.626	851.1
443.837	296.1
444.048	144.55
444.26	171.18
444.471	543.91
444.682	654.5
444.894	109.74
445.105	222.38
445.316	648.35
445.528	656.54
445.739	332.97
445.95	332.97
446.161	623.78
446.373	726.18
446.584	300.2
446.795	306.34
447.006	619.68
447.217	924.83
447.429	173.22
447.64	232.62
447.851	750.75
448.062	586.91
448.273	113.83
448.484	242.85
448.695	638.11
448.907	423.08
449.118	373.92
449.329	550.05
449.54	380.07
449.751	339.11
449.962	259.24
450.173	279.72
450.384	857.25
450.595	898.2
450.806	322.73
451.017	355.49
451.228	957.6
451.439	814.24
451.65	361.64
451.861	103.59
452.072	332.97
452.283	562.34
452.494	560.29
452.705	285.86
452.915	1092.76
453.126	697.5
453.337	525.47
453.548	197.8
453.759	847.01
453.97	1172.63
454.181	689.31
454.391	502.95
454.602	707.74
454.813	785.57
455.024	459.94
455.235	304.29
455.445	627.87
455.656	885.92
455.867	627.87
456.078	406.69
456.288	568.48
456.499	775.33
456.71	386.21
456.921	701.6
457.131	806.05
457.342	758.94
457.553	498.85
457.763	533.67
457.974	847.01
458.184	924.83
458.395	423.08
458.606	386.21
458.816	1086.62
459.027	1217.69
459.237	677.02
459.448	341.16
459.659	1105.05
459.869	1326.23
460.08	337.06
460.29	842.91
460.501	1180.82
460.711	625.83
460.922	459.94
461.132	545.95
461.343	1535.12
461.553	472.23
461.764	545.95
461.974	568.48
462.184	1031.32
462.395	947.36
462.605	658.59
462.816	586.91
463.026	982.17
463.236	1191.06
463.447	591.01
463.657	619.68
463.867	1113.24
464.078	855.2
464.288	687.26
464.498	787.61
464.709	885.92
464.919	933.02
465.129	877.73
465.339	591.01
465.55	1066.14
465.76	1152.15
465.97	838.81
466.18	771.23
466.391	1252.5
466.601	1193.11
466.811	836.77
467.021	724.13
467.231	1248.41
467.441	1344.66
467.651	820.38
467.862	603.3
468.072	1115.29
468.282	1451.16
468.492	785.57
468.702	939.16
468.912	1201.3
469.122	1862.8
469.332	1189.02
469.542	894.11
469.752	1461.4
469.962	1201.3
470.172	920.73
470.382	996.51
470.592	1455.25
470.802	1596.56
471.012	1242.26
471.222	1047.71
471.432	1506.45
471.642	1592.47
471.852	1234.07
472.062	1012.89
472.272	1365.14
472.482	1143.96
472.691	1033.37
472.901	1062.04
473.111	1492.12
473.321	1963.15
473.531	1238.17
473.741	1313.94
473.95	1610.9
474.16	1686.67
474.37	1469.59
474.58	1281.18
474.79	2043.02
474.999	1795.22
475.209	1330.33
475.419	1422.48
475.628	1760.4
475.838	1965.2
476.048	1551.51
476.258	1365.14
476.467	2086.03
476.677	1709.2
476.886	1811.6
477.096	1641.62
477.306	1703.06
477.515	2135.18
477.725	1705.1
477.935	1723.54
478.144	2253.96
478.354	1846.41
478.563	1670.29
478.773	1610.9
478.982	2167.95
479.192	2253.96
479.401	1920.14
479.611	1752.21
479.82	1873.04
480.03	2266.25
480.239	1801.36
480.449	1698.96
480.658	2550.92
480.868	2124.94
481.077	2016.4
481.287	1991.82
481.496	2339.97
481.705	2649.22
481.915	2331.78
482.124	2348.17
482.333	2550.92
482.543	2811.01
482.752	2223.24
482.961	2188.43
483.171	2661.51
483.38	2407.56
483.589	2305.16
483.799	2231.43
484.008	2581.64
484.217	2770.05
484.426	2350.21
484.636	2172.04
484.845	2614.4
485.054	2354.31
485.263	2710.66
485.472	2358.41
485.682	3216.51
485.891	2655.36
486.1	2313.35
486.309	2446.47
486.518	2929.79
486.727	3138.68
486.936	2473.09
487.146	2743.42
487.355	3130.49
487.564	2768
487.773	2661.51
487.982	2770.05
488.191	3009.66
488.4	3038.33
488.609	2704.51
488.818	2888.83
489.027	3523.7
489.236	3386.49
489.445	2872.45
489.654	2851.97
489.863	3417.21
490.072	3304.57
490.281	3413.11
490.49	3019.9
490.698	3519.6
490.907	3527.8
491.116	3171.45
491.325	2952.32
491.534	3777.65
491.743	3316.86
491.952	3374.2
492.16	3101.82
492.369	3581.04
492.578	3722.35
492.787	3198.07
492.996	3187.83
493.204	3212.41
493.413	3941.49
493.622	3030.14
493.831	3220.6
494.039	3867.76
494.248	3427.45
494.457	3564.66
494.665	3271.8
494.874	3677.3
495.083	4269.16
495.291	3474.55
495.5	3452.02
495.709	4093.04
495.917	3982.45
496.126	3701.87
496.335	3443.83
496.543	3730.55
496.752	4007.02
496.96	4035.69
497.169	3439.73
497.377	4011.12
497.586	4179.05
497.794	3875.95
498.003	3406.97
498.211	4015.21
498.42	4295.79
498.628	3990.64
498.837	3918.96
499.045	4224.11
499.254	4138.09
499.462	3812.46
499.671	3869.81
499.879	4858.98
500.087	4394.09
500.296	4029.55
500.504	3918.96
500.713	4375.66
500.921	4684.9
501.129	3992.69
501.338	4074.6
501.546	4365.42
501.754	4437.09
501.962	4107.37
502.171	3990.64
502.379	4471.91
502.587	4863.07
502.795	4297.83
503.004	4371.56
503.212	4592.74
503.42	4805.73
503.628	4385.9
503.837	4473.96
504.045	4822.11
504.253	5157.98
504.461	4381.8
504.669	4228.2
504.877	4916.32
505.085	5018.72
505.294	4258.92
505.502	4732
505.71	4754.53
505.918	4992.09
506.126	4490.34
506.334	4555.88
506.542	4953.18
506.75	4867.17
506.958	4897.89
507.166	4760.67
507.374	4877.41
507.582	5534.81
507.79	4691.04
507.998	4691.04
508.206	5207.13
508.414	5067.87
508.622	4732
508.83	4893.79
509.037	5342.3
509.245	4951.14
509.453	4707.43
509.661	4785.25
509.869	5364.82
510.077	5141.6
510.285	5192.8
510.492	4586.6
510.7	6073.42
510.908	5096.54
511.116	4981.85
511.324	5119.07
511.531	5215.32
511.739	5469.27
511.947	5256.28
512.155	5334.11
512.362	5284.95
512.57	4926.56
512.778	5145.69
512.985	4985.95
513.193	5758.03
513.401	5932.11
513.608	5219.42
513.816	5289.05
514.024	5704.79
514.231	5977.17
514.439	5213.28
514.646	5387.35
514.854	5796.95
515.061	5751.89
515.269	5295.19
515.477	5424.22
515.684	5502.04
515.892	5956.69
516.099	5227.61
516.307	5334.11
516.514	5973.07
516.722	6206.54
516.929	5680.21
517.136	5377.11
517.344	6171.72
517.551	5919.82
517.759	5469.27
517.966	5598.29
518.173	5827.67
518.381	5977.17
518.588	5962.83
518.796	5745.75
519.003	6214.73
519.21	5950.54
519.418	5682.26
519.625	6169.68
519.832	5928.02
520.039	6245.45
520.247	5739.6
520.454	6042.7
520.661	6347.85
520.868	6403.14
521.076	6120.53
521.283	5946.45
521.49	6847.55
521.697	6415.43
521.904	6046.8
522.112	6124.62
522.319	6665.28
522.526	6464.58
522.733	6257.74
522.94	6134.86
523.147	6464.58
523.354	6761.54
523.561	6081.61
523.768	6397
523.975	6841.41
524.183	6644.81
524.39	6196.3
524.597	6059.09
524.804	6583.37
525.011	6597.7
525.218	6437.96
525.425	6493.26
525.632	6849.6
525.838	6523.98
526.045	6423.62
526.252	6456.39
526.459	7844.91
526.666	7881.78
526.873	6495.3
527.08	6423.62
527.287	7158.85
527.494	6982.72
527.701	6472.78
527.907	6394.95
528.114	7044.16
528.321	7169.09
528.528	6839.36
528.735	6648.9
528.941	7087.17
529.148	6853.7
529.355	6984.77
529.562	6739.01
529.768	7539.77
529.975	6958.14
530.182	7113.79
530.388	6825.03
530.595	7605.3
530.802	7074.88
531.008	7109.69
531.215	7150.65
531.422	8012.85
531.628	8096.82
531.835	7281.72
532.042	7242.81
532.248	7285.82
532.455	7418.94
532.661	7201.85
532.868	7193.66
533.074	7529.53
533.281	7758.9
533.487	7283.77
533.694	7232.57
533.9	7492.66
534.107	7769.14
534.313	7474.23
534.52	7441.47
534.726	7963.7
534.933	8160.3
535.139	7638.07
535.345	7443.51
535.552	8246.32
535.758	8227.89
535.965	7633.97
536.171	7662.65
536.377	8143.92
536.584	8272.94
536.79	7664.69
536.996	7910.45
537.203	8082.48
537.409	8195.12
537.615	7838.77
537.821	8053.81
538.028	8254.51
538.234	8256.56
538.44	8094.77
538.646	8088.62
538.853	8469.55
539.059	8250.41
539.265	8416.3
539.471	7734.32
539.677	8631.33
539.883	8262.7
540.09	7875.63
540.296	8700.97
540.502	8444.97
540.708	8373.29
540.914	8432.68
541.12	8283.18
541.326	8807.46
541.532	8682.53
541.738	8508.46
541.944	8545.32
542.15	9018.4
542.356	8778.79
542.562	8539.18
542.768	8608.81
542.974	9284.64
543.18	9634.84
543.386	8516.65
543.592	8442.92
543.798	9174.05
544.004	9190.43
544.21	8707.11
544.415	8743.97
544.621	9040.93
544.827	9382.94
545.033	8766.5
545.239	9016.35
545.445	9122.85
545.651	9413.66
545.856	8942.63
546.062	8975.39
546.268	9188.38
546.474	9106.46
546.679	8995.87
546.885	8924.19
547.091	8975.39
547.297	9561.11
547.502	9114.66
547.708	8959.01
547.914	9194.53
548.119	9657.37
548.325	8967.2
548.531	8823.84
548.736	9802.77
548.942	9276.45
549.147	9208.86
549.353	9542.68
549.559	9901.08
549.764	9772.05
549.97	9270.3
550.175	9282.59
550.381	9800.73
550.586	9448.47
550.792	9356.32
550.997	9378.84
551.203	9831.44
551.408	9942.03
551.614	9362.46
551.819	9419.8
552.025	10241.04
552.23	10243.09
552.435	9563.16
552.641	9757.72
552.846	9987.09
553.052	10257.42
553.257	9821.2
553.462	9583.64
553.668	9907.22
553.873	10212.37
554.078	9755.67
554.283	9935.89
554.489	10306.57
554.694	10109.97
554.899	9839.64
555.105	10259.47
555.31	10564.62
555.515	10388.49
555.72	10206.22
555.925	10044.43
556.131	10738.69
556.336	10273.81
556.541	10243.09
556.746	10310.67
556.951	10675.21
557.156	10970.12
557.361	10421.26
557.567	10607.62
557.772	10927.11
557.977	10947.59
558.182	10257.42
558.387	10318.86
558.592	10548.23
558.797	11056.13
559.002	10568.71
559.207	10451.98
559.412	10812.42
559.617	11088.9
559.822	10458.12
560.027	10417.16
560.232	10925.06
560.437	11203.58
560.642	10558.47
560.847	10443.79
561.051	10918.92
561.256	10935.3
561.461	10863.62
561.666	10609.67
561.871	11115.52
562.076	11183.1
562.281	10947.59
562.485	10667.02
562.69	11181.06
562.895	11525.11
563.1	10857.48
563.305	10574.86
563.509	11547.64
563.714	11611.13
563.919	10843.14
564.123	11017.22
564.328	11068.42
564.533	11664.38
564.737	11103.23
564.942	11207.68
565.147	11873.27
565.351	11830.26
565.556	11017.22
565.761	11125.76
565.965	11467.77
566.17	11273.21
566.374	11086.85
566.579	11029.51
566.784	11553.79
566.988	11424.76
567.193	11062.27
567.397	11086.85
567.602	11305.98
567.806	11418.62
568.011	11387.9
568.215	11799.54
568.42	11664.38
568.624	11666.42
568.828	11365.37
569.033	11658.23
569.237	12082.16
569.442	11990
569.646	11461.63
569.85	11672.57
570.055	11789.3
570.259	11865.08
570.463	12037.11
570.668	11545.59
570.872	11912.18
571.076	11981.81
571.281	11811.83
571.485	12051.44
571.689	12071.92
571.893	12243.95
572.098	12026.87
572.302	11682.81
572.506	12248.05
572.71	12217.33
572.914	11858.93
573.119	11869.17
573.323	12753.9
573.527	12790.76
573.731	12026.87
573.935	11883.51
574.139	12395.5
574.343	12444.65
574.547	12049.39
574.751	12256.24
574.955	12815.34
575.159	12721.13
575.364	12291.06
575.568	11955.19
575.772	12446.7
575.976	12778.47
576.18	12223.47
576.383	12401.65
576.587	13016.04
576.791	12829.67
576.995	12389.36
577.199	12387.31
577.403	12915.69
577.607	13247.46
577.811	12532.72
578.015	12610.54
578.219	12993.51
578.422	12905.45
578.626	12737.51
578.83	12686.31
579.034	13288.42
579.238	13069.28
579.442	12751.85
579.645	12868.58
579.849	13095.91
580.053	13423.58
580.257	12839.91
580.46	12733.42
580.664	13493.21
580.868	13388.77
581.071	13175.78
581.275	13212.64
581.479	12981.22
581.682	13489.12
581.886	12774.38
582.09	13190.11
582.293	13747.16
582.497	13579.23
582.7	13183.97
582.904	13198.31
583.107	13558.75
583.311	13456.35
583.515	13452.25
583.718	13476.83
583.922	13657.05
584.125	14136.27
584.329	13235.17
584.532	13532.12
584.735	14005.2
584.939	13736.92
585.142	13114.34
585.346	13530.08
585.549	13960.15
585.753	13677.53
585.956	13618.14
586.159	13669.34
586.363	14308.3
586.566	14103.51
586.769	13501.4
586.973	13632.47
587.176	14470.09
587.379	14078.93
587.582	14136.27
587.786	14099.41
587.989	14238.67
588.192	14787.53
588.395	14107.6
588.599	14468.05
588.802	14373.84
589.005	14394.32
589.208	14123.99
589.411	13824.98
589.615	14611.4
589.818	14801.86
590.021	14418.89
590.224	14218.19
590.427	14646.22
590.63	14717.9
590.833	14003.16
591.036	14433.23
591.239	14359.5
591.442	14662.6
591.645	14398.41
591.848	14603.21
592.051	14785.48
592.254	14902.22
592.457	14531.53
592.66	14697.42
592.863	14738.38
593.066	14902.22
593.269	14525.39
593.472	14611.4
593.675	14855.11
593.878	15045.57
594.081	14781.39
594.284	14293.97
594.486	15219.65
594.689	15117.25
594.892	14910.41
595.095	15066.05
595.298	15356.86
595.5	15115.2
595.703	15133.64
595.906	14951.37
596.109	15401.92
596.311	15625.15
596.514	14959.56
596.717	15242.18
596.92	15903.67
597.122	15524.8
597.325	14791.62
597.528	15428.54
597.73	15879.1
597.933	15584.19
598.136	15127.49
598.338	14912.46
598.541	15774.65
598.743	15791.03
598.946	15021
599.148	15299.52
599.351	16004.02
599.554	16247.73
599.756	15549.37
599.959	15453.12
600.161	15975.35
600.363	16374.7
600.566	15780.79
600.768	15911.86
600.971	16450.48
601.173	16114.61
601.376	15631.29
601.578	15723.45
601.78	16167.86
601.983	16751.53
602.185	15684.54
602.388	16067.51
602.59	16077.75
602.792	16073.65
602.995	15977.4
603.197	15913.91
603.399	16491.44
603.601	16552.88
603.804	15842.23
604.006	15961.02
604.208	16008.12
604.41	15911.86
604.613	16190.39
604.815	16057.27
605.017	16923.56
605.219	16192.44
605.421	16452.53
605.623	16026.55
605.826	17050.53
606.028	16638.89
606.23	16511.92
606.432	15930.3
606.634	17169.32
606.836	16769.96
607.038	16245.68
607.24	16401.33
607.442	16628.65
607.644	16573.36
607.846	16696.24
608.048	16462.77
608.25	16970.66
608.452	16542.64
608.654	16319.41
608.856	16141.24
609.058	16800.68
609.26	16954.28
609.462	16507.82
609.664	16716.72
609.866	17097.64
610.067	17218.47
610.269	16739.24
610.471	16573.36
610.673	16925.61
610.875	16966.57
611.077	16524.21
611.278	16694.19
611.48	16843.69
611.682	17361.83
611.884	16982.95
612.085	16806.83
612.287	16845.74
612.489	17273.76
612.69	16827.31
612.892	16958.38
613.094	17591.2
613.295	16982.95
613.497	16772.01
613.699	16917.42
613.9	17378.21
614.102	17496.99
614.304	16892.84
614.505	16608.17
614.707	17175.46
614.908	17138.6
615.11	16778.15
615.311	17023.91
615.513	17451.94
615.714	17771.42
615.916	16982.95
616.117	17083.3
616.319	17365.92
616.52	17531.81
616.722	17011.62
616.923	17167.27
617.124	17652.64
617.326	17441.7
617.527	17195.94
617.729	17257.38
617.93	17699.74
618.131	17826.71
618.333	17032.1
618.534	17101.73
618.735	17232.8
618.937	17836.95
619.138	17005.48
619.339	17251.24
619.54	17630.11
619.742	17675.16
619.943	17566.62
620.144	17312.67
620.345	17990.55
620.546	17658.78
620.748	17085.35
620.949	17595.29
621.15	17564.57
621.351	17492.9
621.552	17675.16
621.753	17163.17
621.954	17531.81
622.155	18097.05
622.356	17177.51
622.558	17671.07
622.759	17863.58
622.96	18312.08
623.161	17613.73
623.362	17648.54
623.563	17851.29
623.764	17761.18
623.965	17902.49
624.166	17879.96
624.366	17783.71
624.567	17894.3
624.768	17552.29
624.969	17515.42
625.17	17941.4
625.371	18172.82
625.572	17775.52
625.773	17761.18
625.973	18230.16
626.174	18183.06
626.375	17988.5
626.576	17986.46
626.777	18312.08
626.977	18996.1
627.178	17875.87
627.379	18025.37
627.58	18283.41
627.78	18199.44
627.981	18039.7
628.182	18109.33
628.382	18547.6
628.583	18156.44
628.784	17982.36
628.984	18242.45
629.185	18617.23
629.386	18389.91
629.586	18148.25
629.787	18168.73
629.987	18678.67
630.188	18326.42
630.388	18162.58
630.589	18172.82
630.79	19071.88
630.99	18582.42
631.191	18662.29
631.391	18582.42
631.591	18779.02
631.792	18987.91
631.992	18639.76
632.193	18379.67
632.393	19002.25
632.594	18957.19
632.794	18383.76
632.994	18596.75
633.195	19016.58
633.395	18959.24
633.595	18453.39
633.796	18844.56
633.996	18396.05
634.196	19301.25
634.397	18670.48
634.597	18865.03
634.797	19002.25
634.997	19426.18
635.198	19037.06
635.398	18475.92
635.598	19037.06
635.798	19303.3
635.998	19381.12
636.199	18867.08
636.399	18846.6
636.599	18805.64
636.799	18754.44
636.999	18740.11
637.199	19524.48
637.399	19563.39
637.599	18918.28
637.799	19018.63
637.999	19055.5
638.199	19497.86
638.399	18676.62
638.599	18895.75
638.799	19504
638.999	19919.74
639.199	19299.2
639.399	19452.8
639.599	19768.19
639.799	19032.97
639.999	19100.55
640.199	19266.44
640.399	19563.39
640.599	18940.81
640.799	19401.6
640.998	19504
641.198	19628.93
641.398	19508.1
641.598	19555.2
641.798	19262.34
641.997	20411.25
642.197	19469.19
642.397	19747.71
642.597	19501.95
642.796	19473.28
642.996	20034.42
643.196	19583.87
643.395	19303.3
643.595	19960.7
643.795	19417.99
643.994	19635.07
644.194	19823.48
644.394	20132.73
644.593	19956.6
644.793	19344.26
644.992	19831.68
645.192	20102.01
645.392	19489.67
645.591	19733.37
645.791	19843.96
645.99	20071.29
646.19	19891.07
646.389	19927.93
646.589	19862.4
646.788	20536.18
646.987	20327.28
647.187	19964.79
647.386	20007.8
647.586	20237.17
647.785	20360.05
647.984	19966.84
648.184	20138.87
648.383	20128.63
648.582	20071.29
648.782	20026.23
648.981	20487.03
649.18	19915.64
649.38	20446.07
649.579	20192.12
649.778	19991.42
649.977	20644.72
650.177	20560.75
650.376	19952.51
650.575	20165.49
650.774	20609.9
650.973	20519.79
651.173	19979.13
651.372	20001.66
651.571	20695.92
651.77	20616.05
651.969	20120.44
652.168	20126.58
652.367	20079.48
652.566	20734.83
652.765	20456.31
652.964	20679.54
653.163	21123.94
653.362	20583.28
653.561	20480.88
653.76	20618.1
653.959	20484.98
654.158	21623.65
654.357	20831.08
654.556	20433.78
654.755	21160.81
654.954	21097.32
655.153	20425.59
655.352	20583.28
655.551	21046.12
655.749	20753.26
655.948	20585.33
656.147	20767.6
656.346	21111.66
656.545	20773.74
656.743	20702.06
656.942	21099.37
657.141	21095.27
657.34	21072.75
657.538	21117.8
657.737	20890.48
657.936	20999.02
658.135	21427.04
658.333	20564.85
658.532	20976.49
658.731	21267.3
658.929	20929.39
659.128	21246.82
659.326	20994.92
659.525	21175.14
659.724	21451.62
659.922	20939.63
660.121	20872.04
660.319	21013.35
660.518	21177.19
660.716	20915.05
660.915	21101.42
661.113	21781.34
661.312	20843.37
661.51	21148.52
661.709	21113.7
661.907	21465.96
662.105	21789.53
662.304	21134.18
662.502	21515.11
662.701	21902.17
662.899	21482.34
663.097	21779.29
663.296	21103.46
663.494	21732.19
663.692	21613.41
663.891	21005.16
664.089	20980.59
664.287	21508.96
664.485	21685.09
664.684	21459.81
664.882	21281.64
665.08	21318.5
665.278	21947.23
665.476	21234.53
665.675	21654.37
665.873	22127.45
666.071	21834.59
666.269	21226.34
666.467	21441.38
666.665	21701.47
666.863	21179.24
667.061	21678.94
667.259	21422.95
667.457	21433.19
667.655	21726.05
667.853	20978.54
668.051	21660.51
668.249	21584.74
668.447	21912.41
668.645	21140.33
668.843	21637.98
669.041	21672.8
669.239	21644.13
669.437	21564.26
669.635	22002.52
669.833	21568.35
670.031	21734.24
670.229	21490.53
670.426	21351.27
670.624	21746.53
670.822	21392.23
671.02	21676.9
671.218	21818.21
671.415	21406.56
671.613	21865.31
671.811	21814.11
672.009	21572.45
672.206	21990.24
672.404	21973.85
672.602	21551.97
672.799	21418.85
672.997	21814.11
673.195	22250.33
673.392	21832.54
673.59	21572.45
673.788	22109.02
673.985	21048.17
674.183	21713.76
674.38	21551.97
674.578	22082.39
674.775	21394.28
674.973	21609.31
675.17	21640.03
675.368	22057.82
675.565	21949.28
675.763	21425
675.96	21646.18
676.158	21816.16
676.355	21685.09
676.553	21611.36
676.75	21631.84
676.947	21468
677.145	21699.42
677.342	21629.79
677.539	21689.18
677.737	21693.28
677.934	22498.13
678.131	21850.97
678.329	21361.51
678.526	22317.91
678.723	22332.25
678.92	21891.93
679.118	21490.53
679.315	21545.83
679.512	22190.94
679.709	21590.88
679.906	21652.32
680.104	22106.97
680.301	22252.38
680.498	21531.49
680.695	21240.68
680.892	21652.32
681.089	21619.55
681.286	22063.96
681.483	21658.46
681.68	21869.4
681.877	22111.07
682.075	21648.22
682.272	21648.22
682.469	21947.23
682.665	21820.25
682.862	21717.86
683.059	21414.76
683.256	21777.25
683.453	22149.98
683.65	21832.54
683.847	21406.56
684.044	21734.24
684.241	21582.69
684.438	21726.05
684.635	21384.04
684.831	22588.24
685.028	22283.09
685.225	21627.74
685.422	21533.54
685.619	21672.8
685.815	21750.62
686.012	21588.83
686.209	21318.5
686.405	21891.93
686.602	22006.62
686.799	21564.26
686.996	21427.04
687.192	21144.42
687.389	22293.33
687.586	21521.25
687.782	21629.79
687.979	22164.31
688.175	22020.95
688.372	21556.07
688.568	21721.95
688.765	21541.73
688.962	22174.55
689.158	21615.46
689.355	21273.45
689.551	21941.08
689.748	21789.53
689.944	21570.4
690.14	21586.79
690.337	21914.46
690.533	21742.43
690.73	21314.41
690.926	21764.96
691.123	21967.71
691.319	21554.02
691.515	21402.47
691.712	21429.09
691.908	21932.89
692.104	21732.19
692.301	21742.43
692.497	21234.53
692.693	22195.03
692.889	22053.72
693.086	21898.08
693.282	21300.07
693.478	21680.99
693.674	22002.52
693.87	21615.46
694.067	21439.33
694.263	21853.02
694.459	21551.97
694.655	21769.05
694.851	21724
695.047	21703.52
695.243	21740.38
695.439	21826.4
695.635	21322.6
695.831	21857.12
696.027	21572.45
696.224	21308.26
696.42	22045.53
696.615	21934.94
696.811	22039.39
697.007	21162.86
697.203	21205.86
697.399	21601.12
697.595	21693.28
697.791	21388.13
697.987	21103.46
698.183	21431.14
698.379	21064.55
698.575	21232.49
698.77	21154.66
698.966	21908.32
699.162	21930.84
699.358	21386.08
699.554	21392.23
699.749	21734.24
699.945	21668.7
700.141	21154.66
700.337	21619.55
700.532	21687.14
700.728	21425
700.924	21637.98
701.119	21162.86
701.315	21513.06
701.511	21414.76
701.706	21410.66
701.902	20947.82
702.097	21740.38
702.293	21863.26
702.489	21273.45
702.684	21023.59
702.88	21629.79
703.075	21377.89
703.271	21422.95
703.466	21187.43
703.662	21384.04
703.857	21762.91
704.053	21111.66
704.248	21220.2
704.443	21801.82
704.639	21668.7
704.834	21113.7
705.03	21152.62
705.225	21818.21
705.42	21918.56
705.616	21459.81
705.811	21345.12
706.006	21234.53
706.202	21252.97
706.397	21343.08
706.592	21175.14
706.787	21453.67
706.983	21435.24
707.178	21769.05
707.373	21345.12
707.568	21656.42
707.763	21680.99
707.959	21246.82
708.154	21187.43
708.349	21369.7
708.544	21678.94
708.739	21119.85
708.934	20917.1
709.129	21713.76
709.324	21721.95
709.519	21148.52
709.714	21140.33
709.909	21611.36
710.104	21533.54
710.299	21236.58
710.494	21197.67
710.689	21558.11
710.884	21445.48
711.079	21390.18
711.274	21381.99
711.469	21783.39
711.664	21281.64
711.859	21300.07
712.054	21427.04
712.249	21523.3
712.443	21738.33
712.638	21160.81
712.833	20980.59
713.028	21502.82
713.223	21252.97
713.417	21232.49
713.612	21175.14
713.807	21543.78
714.002	21924.7
714.196	21394.28
714.391	21140.33
714.586	21529.44
714.78	21332.84
714.975	21267.3
715.17	21064.55
715.364	21574.5
715.559	21521.25
715.754	20603.76
715.948	21066.6
716.143	21629.79
716.337	21293.93
716.532	21500.77
716.726	21369.7
716.921	21451.62
717.115	21709.66
717.31	21054.31
717.504	21699.42
717.699	21353.32
717.893	21316.45
718.088	20788.08
718.282	20837.23
718.476	21179.24
718.671	21089.13
718.865	20853.61
719.059	20994.92
719.254	20908.91
719.448	21271.4
719.642	22235.99
719.837	20444.02
720.031	21166.95
720.225	21384.04
720.419	20820.84
720.614	20712.3
720.808	21111.66
721.002	20814.7
721.196	20652.91
721.39	20745.07
721.585	21119.85
721.779	21001.07
721.973	20831.08
722.167	20546.42
722.361	20951.91
722.555	20964.2
722.749	20765.55
722.943	20777.84
723.137	20716.4
723.331	20939.63
723.525	20718.45
723.719	20532.08
723.913	21185.38
724.107	21185.38
724.301	20716.4
724.495	20851.56
724.689	21476.19
724.883	21320.55
725.077	20583.28
725.271	20542.32
725.465	21205.86
725.659	21044.07
725.853	20747.12
726.046	20317.04
726.24	20575.09
726.434	21082.98
726.628	20570.99
726.822	20763.5
727.015	21046.12
727.209	21324.65
727.403	20624.24
727.596	20527.99
727.79	20984.68
727.984	21142.38
728.177	20704.11
728.371	20654.96
728.565	21128.04
728.758	20573.04
728.952	20683.63
729.146	20607.86
729.339	21218.15
729.533	20980.59
729.726	20853.61
729.92	20798.32
730.113	21353.32
730.307	21175.14
730.5	20697.97
730.694	20575.09
730.887	20908.91
731.081	21099.37
731.274	20921.2
731.468	20841.32
731.661	20888.43
731.854	20693.87
732.048	20382.58
732.241	20503.41
732.435	20790.13
732.628	21013.35
732.821	20648.82
733.014	20306.8
733.208	20382.58
733.401	21101.42
733.594	20837.23
733.788	20693.87
733.981	21019.5
734.174	20861.8
734.367	20661.1
734.56	21097.32
734.754	21076.84
734.947	20810.61
735.14	20480.88
735.333	20943.72
735.526	21261.16
735.719	20693.87
735.912	20564.85
736.105	20822.89
736.298	20964.2
736.491	20673.39
736.684	20452.21
736.877	20595.57
737.07	20669.3
737.263	21160.81
737.456	20794.22
737.649	20566.9
737.842	21003.11
738.035	20718.45
738.228	20570.99
738.421	20462.45
738.614	21068.65
738.807	20949.87
739	20310.9
739.192	20489.07
739.385	20931.44
739.578	21230.44
739.771	21082.98
739.964	20392.82
740.156	21107.56
740.349	20847.47
740.542	20730.73
740.735	20358
740.927	20605.81
741.12	20775.79
741.313	20403.06
741.505	20874.09
741.698	20951.91
741.891	20882.28
742.083	20849.52
742.276	20665.2
742.468	20882.28
742.661	20863.85
742.854	20583.28
743.046	20554.61
743.239	21171.05
743.431	21187.43
743.624	20511.6
743.816	20319.09
744.009	20661.1
744.201	20947.82
744.393	20769.65
744.586	20472.69
744.778	20773.74
744.971	20642.67
745.163	20474.74
745.355	20589.42
745.548	20558.7
745.74	20519.79
745.932	20710.25
746.125	20665.2
746.317	21392.23
746.509	20343.67
746.702	20429.68
746.894	20536.18
747.086	20857.71
747.278	20657.01
747.471	20622.19
747.663	20622.19
747.855	20439.92
748.047	20941.68
748.239	20566.9
748.431	20384.63
748.623	20900.72
748.815	20867.95
749.008	20398.96
749.2	20308.85
749.392	20845.42
749.584	20636.53
749.776	20265.85
749.968	20530.03
750.16	21001.07
750.352	20253.56
750.544	20251.51
750.736	20245.37
750.928	20421.49
751.12	20308.85
751.311	20093.82
751.503	20398.96
751.695	20634.48
751.887	20280.18
752.079	20179.83
752.271	20071.29
752.463	21156.71
752.654	20845.42
752.846	20233.08
753.038	20061.05
753.23	20169.59
753.421	20536.18
753.613	20153.21
753.805	20552.56
753.997	20521.84
754.188	20679.54
754.38	19932.03
754.572	19964.79
754.763	20388.72
754.955	20376.44
755.146	19870.59
755.338	20284.28
755.53	20257.65
755.721	20302.71
755.913	19452.8
756.104	19764.09
756.296	20167.54
756.487	20507.51
756.679	19835.77
756.87	19843.96
757.062	19950.46
757.253	20171.64
757.445	19882.88
757.636	20104.06
757.827	20106.1
758.019	20519.79
758.21	19786.62
758.401	19501.95
758.593	20566.9
758.784	20300.66
758.975	19233.67
759.167	19766.14
759.358	19972.99
759.549	20382.58
759.74	19606.4
759.932	19698.56
760.123	20298.61
760.314	19800.96
760.505	19407.75
760.696	19391.36
760.888	20315
761.079	19669.89
761.27	19428.23
761.461	19506.05
761.652	20239.22
761.843	19522.43
762.034	19719.04
762.225	19659.65
762.416	19753.85
762.607	19399.55
762.798	19182.47
762.989	19577.73
763.18	20706.16
763.371	19241.86
763.562	19415.94
763.753	19518.34
763.944	19751.81
764.135	19880.83
764.326	19700.61
764.517	19268.48
764.708	19731.33
764.899	19510.14
765.089	18926.47
765.28	19350.4
765.471	19444.61
765.662	19426.18
765.853	19108.74
766.043	18949
766.234	19774.33
766.425	19350.4
766.615	19123.08
766.806	18967.43
766.997	19465.09
767.187	19454.85
767.378	19123.08
767.569	19116.93
767.759	19489.67
767.95	19499.91
768.141	19284.87
768.331	19024.78
768.522	19170.18
768.712	19370.88
768.903	18940.81
769.093	18920.33
769.284	19659.65
769.474	19356.55
769.665	18719.63
769.855	18803.6
770.046	19252.1
770.236	18989.96
770.426	19055.5
770.617	18676.62
770.807	19088.26
770.998	18969.48
771.188	18650
771.378	18776.97
771.569	19245.96
771.759	19170.18
771.949	18336.66
772.139	18473.87
772.33	18760.59
772.52	19139.46
772.71	18496.4
772.9	18529.17
773.09	19252.1
773.281	19047.3
773.471	18490.26
773.661	18453.39
773.851	18791.31
774.041	18584.46
774.231	18283.41
774.421	18613.13
774.611	18721.68
774.802	18668.43
774.992	18434.96
775.182	18076.57
775.372	18520.98
775.562	18842.51
775.752	18551.7
775.942	18391.95
776.131	18946.95
776.321	18584.46
776.511	18394
776.701	18138.01
776.891	18658.19
777.081	18224.02
777.271	18359.19
777.461	18070.42
777.651	18418.58
777.84	18578.32
778.03	18445.2
778.22	18086.81
778.41	18721.68
778.599	18549.65
778.789	18193.3
778.979	17941.4
779.169	18301.84
779.358	18428.82
779.548	18097.05
779.738	17888.15
779.927	18185.11
780.117	18189.21
780.307	17894.3
780.496	17726.36
780.686	18144.15
780.875	18623.37
781.065	17867.67
781.254	17789.85
781.444	17812.38
781.633	17982.36
781.823	17474.46
782.012	17865.63
782.202	17826.71
782.391	17796
782.581	17564.57
782.77	17941.4
782.96	18125.72
783.149	17587.1
783.338	17507.23
783.528	17327.01
783.717	18279.32
783.906	18049.94
784.096	17494.94
784.285	17449.89
784.474	17697.69
784.663	17613.73
784.853	17290.15
785.042	17685.4
785.231	17658.78
785.42	18031.51
785.61	17419.17
785.799	17353.63
785.988	17701.79
786.177	17560.48
786.366	17265.57
786.555	17828.76
786.744	17607.58
786.933	17402.79
787.122	17093.54
787.312	17488.8
787.501	17271.72
787.69	17658.78
787.879	17597.34
788.068	17169.32
788.257	17329.06
788.445	17056.68
788.634	17193.89
788.823	17275.81
789.012	18008.98
789.201	17882.01
789.39	17216.42
789.579	16917.42
789.768	17419.17
789.957	17298.34
790.145	17292.19
790.334	16843.69
790.523	17234.85
790.712	17443.74
790.9	17200.04
791.089	16761.77
791.278	17722.27
791.467	17167.27
791.655	17216.42
791.844	17419.17
792.033	16954.28
792.221	17093.54
792.41	16686
792.599	16659.37
792.787	17329.06
792.976	17132.45
793.164	16714.67
793.353	16640.94
793.541	17318.82
793.73	17284
793.918	16716.72
794.107	16776.11
794.295	16845.74
794.484	17169.32
794.672	16630.7
794.861	16587.69
795.049	17134.5
795.238	17623.97
795.426	16671.66
795.614	16628.65
795.803	16806.83
795.991	17329.06
796.179	16444.34
796.368	16450.48
796.556	17146.79
796.744	16702.38
796.932	16575.41
797.121	16626.6
797.309	16810.92
797.497	16925.61
797.685	16772.01
797.874	16376.75
798.062	16581.55
798.25	16841.64
798.438	16393.14
798.626	16554.93
798.814	16855.98
799.002	17157.03
799.19	16692.14
799.378	16704.43
799.566	17091.49
799.755	17189.8
799.943	16796.59
800.131	16475.06
800.318	17062.82
800.506	16980.9
800.694	16493.49
800.882	16528.3
801.07	17114.02
801.258	16657.32
801.446	16522.16
801.634	16384.94
801.822	16581.55
802.01	17025.96
802.197	16755.63
802.385	16743.34
802.573	16999.34
802.761	16804.78
802.949	16763.82
803.136	16284.59
803.324	17124.26
803.512	17040.29
803.699	16782.25
803.887	16544.69
804.075	17367.97
804.262	17120.17
804.45	16628.65
804.638	17015.72
804.825	17191.84
805.013	16729
805.201	16952.23
805.388	16616.37
805.576	16810.92
805.763	17761.18
805.951	16911.27
806.138	17118.12
806.326	17689.5
806.513	17378.21
806.701	17114.02
806.888	16788.39
807.075	17400.74
807.263	17421.22
807.45	17028.01
807.638	17126.31
807.825	17703.84
808.012	17525.66
808.2	16896.94
808.387	17417.12
808.574	17587.1
808.761	17781.66
808.949	16825.26
809.136	17224.61
809.323	17247.14
809.51	17212.32
809.698	17400.74
809.885	17138.6
810.072	17486.75
810.259	17898.39
810.446	17073.06
810.633	17200.04
810.82	17793.95
811.008	17662.88
811.195	17527.71
811.382	17357.73
811.569	17527.71
811.756	17175.46
811.943	17302.43
812.13	17187.75
812.317	17327.01
812.504	17367.97
812.691	17232.8
812.878	17410.98
813.064	17937.3
813.251	17554.33
813.438	17232.8
813.625	17511.33
813.812	17525.66
813.999	17304.48
814.186	17353.63
814.372	17271.72
814.559	17370.02
814.746	17781.66
814.933	17208.23
815.12	17726.36
815.306	17134.5
815.493	17210.28
815.68	17456.03
815.866	17122.21
816.053	17628.06
816.24	17671.07
816.426	17546.14
816.613	17159.08
816.799	17490.85
816.986	17761.18
817.173	17261.48
817.359	17122.21
817.546	17585.05
817.732	16929.7
817.919	16860.07
818.105	17165.22
818.292	17212.32
818.478	17490.85
818.665	17331.11
818.851	17243.04
819.037	17980.31
819.224	17820.57
819.41	17124.26
819.597	16950.18
819.783	17648.54
819.969	17564.57
820.156	17159.08
820.342	16833.45
820.528	18260.88
820.714	17021.86
820.901	17263.52
821.087	17191.84
821.273	17732.51
821.459	17220.52
821.646	16968.62
821.832	17087.4
822.018	17195.94
822.204	17247.14
822.39	16769.96
822.576	16970.66
822.762	17374.11
822.948	17105.83
823.134	16880.55
823.32	16948.14
823.507	17081.25
823.693	16866.22
823.879	17081.25
824.065	16735.15
824.25	17247.14
824.436	16817.07
824.622	16683.95
824.808	16548.78
824.994	16903.08
825.18	16677.8
825.366	16534.45
825.552	16446.38
825.738	17146.79
825.923	17238.95
826.109	16780.2
826.295	16432.05
826.481	16845.74
826.667	16638.89
826.852	17046.44
827.038	16534.45
827.224	17308.58
827.409	17255.33
827.595	16251.83
827.781	17066.92
827.966	16966.57
828.152	17173.41
828.338	16460.72
828.523	16227.25
828.709	16726.96
828.894	16948.14
829.08	16571.31
829.266	16671.66
829.451	16618.41
829.637	16669.61
829.822	16368.56
830.008	16225.2
830.193	16735.15
830.378	16819.11
830.564	16288.69
830.749	16309.17
830.935	16683.95
831.12	16511.92
831.305	16188.34
831.491	16397.23
831.676	16067.51
831.861	16636.84
832.047	16292.79
832.232	16151.48
832.417	16542.64
832.602	16327.6
832.788	15973.3
832.973	15877.05
833.158	16270.26
833.343	16176.05
833.528	15967.16
833.714	16147.38
833.899	16300.98
834.084	16692.14
834.269	15889.34
834.454	15846.33
834.639	16040.89
834.824	16229.3
835.009	16024.5
835.194	16098.23
835.379	16253.87
835.564	16360.37
835.749	15948.73
835.934	15383.49
836.119	16294.83
836.304	16020.41
836.489	15793.08
836.674	15881.14
836.859	15791.03
837.044	16315.31
837.228	15678.4
837.413	15467.45
837.598	15895.48
837.783	16040.89
837.968	15887.29
838.152	15279.04
838.337	15543.23
838.522	16071.61
838.707	16280.5
838.891	15608.76
839.076	15915.96
839.261	15956.92
839.445	15504.32
839.63	15580.09
839.815	15950.78
839.999	15604.67
840.184	15274.95
840.368	15236.03
840.553	15862.71
840.737	16024.5
840.922	15264.71
841.106	15311.81
841.291	15465.41
841.475	15719.35
841.66	15205.31
841.844	15240.13
842.029	16192.44
842.213	15434.69
842.397	15131.59
842.582	14891.98
842.766	15762.36
842.951	15514.56
843.135	15266.75
843.319	15074.24
843.504	15465.41
843.688	15881.14
843.872	14730.19
844.056	15141.83
844.241	15453.12
844.425	15287.23
844.609	15025.09
844.793	14943.17
844.977	15526.85
845.161	15193.03
845.346	14840.78
845.53	14711.75
845.714	15539.13
845.898	15694.78
846.082	14848.97
846.266	14973.89
846.45	15023.05
846.634	15285.19
846.818	14951.37
847.002	15166.4
847.186	15391.68
847.37	14572.49
847.554	14828.49
847.738	14808.01
847.922	15150.02
848.106	15049.67
848.29	14689.23
848.473	14840.78
848.657	15133.64
848.841	14959.56
849.025	14566.35
849.209	14314.45
849.392	14910.41
849.576	14672.84
849.76	14169.04
849.944	14914.5
850.127	15438.78
850.311	14525.39
850.495	14609.36
850.678	14136.27
850.862	15131.59
851.046	15260.61
851.229	14797.77
851.413	14472.14
851.596	14535.63
851.78	14635.98
851.964	14586.83
852.147	14371.79
852.331	15391.68
852.514	15078.34
852.698	14418.89
852.881	14085.08
853.065	14857.16
853.248	14343.12
853.431	14343.12
853.615	14371.79
853.798	15217.6
853.982	14814.15
854.165	14386.13
854.348	14093.27
854.532	14257.11
854.715	14308.3
854.898	13980.63
855.081	14267.34
855.265	14998.47
855.448	14664.65
855.631	13894.61
855.814	14029.78
855.997	14662.6
856.181	14289.87
856.364	14275.54
856.547	13968.34
856.73	14371.79
856.913	14248.91
857.096	13679.58
857.279	14080.98
857.462	14197.71
857.645	14306.26
857.828	13923.29
858.011	14093.27
858.194	14062.55
858.377	14205.91
858.56	13835.22
858.743	13923.29
858.926	13552.6
859.109	14123.99
859.292	13536.22
859.475	13765.59
859.658	14300.11
859.841	13958.1
860.023	13548.51
860.206	13419.49
860.389	13976.53
860.572	14339.02
860.755	13611.99
860.937	13470.69
861.12	13370.33
861.303	13765.59
861.486	13595.61
861.668	13394.91
861.851	14056.4
862.034	13700.06
862.216	13577.18
862.399	13325.28
862.581	13843.42
862.764	13908.95
862.947	13302.75
863.129	13339.62
863.312	13210.59
863.494	13892.57
863.677	13386.72
863.859	12934.12
864.042	13706.2
864.224	13861.85
864.406	13050.85
864.589	12866.53
864.771	13462.49
864.954	13196.26
865.136	13022.18
865.318	12563.43
865.501	13585.37
865.683	12878.82
865.865	13179.87
866.048	12921.83
866.23	13196.26
866.412	13251.55
866.594	12639.21
866.777	12801
866.959	13372.38
867.141	12954.6
867.323	12882.92
867.505	13018.08
867.687	13071.33
867.869	13370.33
868.052	12921.83
868.234	12553.2
868.416	12897.25
868.598	13071.33
868.78	12815.34
868.962	12635.11
869.144	13149.15
869.326	13294.56
869.508	12686.31
869.69	12731.37
869.872	12768.23
870.054	13317.09
870.236	12661.74
870.417	12567.53
870.599	12882.92
870.781	13591.52
870.963	12688.36
871.145	12688.36
871.327	12637.16
871.508	13175.78
871.69	12778.47
871.872	12418.03
872.054	12846.05
872.235	12981.22
872.417	12307.44
872.599	12313.58
872.78	13220.83
872.962	12899.3
873.144	12665.83
873.325	12682.22
873.507	13233.12
873.689	12919.78
873.87	12510.19
874.052	12542.96
874.233	12766.18
874.415	13128.67
874.596	12997.6
874.778	12579.82
874.959	13020.13
875.141	13032.42
875.322	12676.07
875.503	12678.12
875.685	12966.88
875.866	12561.39
876.048	12502
876.229	12465.13
876.41	12692.46
876.592	12997.6
876.773	12723.18
876.954	12590.06
877.136	13329.38
877.317	12811.24
877.498	12411.89
877.679	12725.22
877.86	12962.79
878.042	12880.87
878.223	12708.84
878.404	13048.8
878.585	13120.48
878.766	13401.05
878.947	13087.71
879.128	12706.79
879.309	13298.66
879.49	13421.53
879.672	12874.73
879.853	12680.17
880.034	12958.69
880.215	13130.72
880.396	12973.03
880.576	12999.65
880.757	13212.64
880.938	13521.88
881.119	12796.9
881.3	12817.38
881.481	13102.05
881.662	14007.25
881.843	12780.52
882.023	13005.8
882.204	13403.1
882.385	13593.56
882.566	12889.06
882.747	13362.14
882.927	13319.14
883.108	13257.7
883.289	13093.86
883.469	13337.57
883.65	13181.92
883.831	13611.99
884.011	13177.83
884.192	13081.57
884.373	13765.59
884.553	13540.32
884.734	13368.29
884.914	13507.55
885.095	14291.92
885.275	14013.4
885.456	13470.69
885.636	13339.62
885.817	13503.45
885.997	13736.92
886.178	13296.61
886.358	13421.53
886.538	13808.6
886.719	14365.65
886.899	13269.98
887.08	13579.23
887.26	14070.74
887.44	13497.31
887.621	13505.5
887.801	13513.69
887.981	14500.81
888.161	13878.23
888.342	13511.64
888.522	13525.98
888.702	14156.75
888.882	14224.34
889.062	13728.73
889.242	13196.26
889.423	14289.87
889.603	14130.13
889.783	13888.47
889.963	13634.52
890.143	14056.4
890.323	14339.02
890.503	13693.91
890.683	13757.4
890.863	13796.31
891.043	14083.03
891.223	13986.77
891.403	13911
891.583	13974.49
891.763	14121.94
891.943	13999.06
892.122	13495.26
892.302	13843.42
892.482	13884.37
892.662	13741.02
892.842	13796.31
893.022	13867.99
893.201	13851.61
893.381	13822.94
893.561	13884.37
893.741	14199.76
893.92	14379.98
894.1	13818.84
894.28	13898.71
894.459	14263.25
894.639	14187.47
894.819	13738.97
894.998	13800.41
895.178	14197.71
895.357	14273.49
895.537	13911
895.716	13861.85
895.896	14089.17
896.075	14541.77
896.255	13851.61
896.434	13804.5
896.614	14287.82
896.793	14334.93
896.973	13896.66
897.152	13630.43
897.331	13997.01
897.511	14080.98
897.69	13509.6
897.87	14066.64
898.049	14398.41
898.228	14109.65
898.407	14029.78
898.587	13902.81
898.766	13685.72
898.945	14029.78
899.124	13784.02
899.304	13747.16
899.483	14083.03
899.662	14308.3
899.841	13638.62
900.02	13841.37
900.199	14140.37
900.378	14179.28
900.557	13482.97
900.737	13351.9
900.916	14027.73
901.095	13935.57
901.274	13655
901.453	13611.99
901.632	13343.71
901.811	13351.9
901.989	13263.84
902.168	13528.03
902.347	14007.25
902.526	13634.52
902.705	13460.45
902.884	13302.75
903.063	14115.8
903.242	13992.92
903.42	13329.38
903.599	13523.93
903.778	13939.67
903.957	13941.72
904.135	13401.05
904.314	13292.51
904.493	13751.26
904.672	13509.6
904.85	13177.83
905.029	13100
905.207	13616.09
905.386	13929.43
905.565	12938.21
905.743	13089.76
905.922	13304.8
906.1	13353.95
906.279	12936.17
906.457	12848.1
906.636	13337.57
906.814	13276.13
906.993	12766.18
907.171	12887.01
907.35	13491.16
907.528	13233.12
907.707	13104.1
907.885	12721.13
908.063	13437.92
908.242	13210.59
908.42	12602.35
908.598	12454.89
908.777	13237.22
908.955	13198.31
909.133	12755.94
909.311	12438.51
909.49	12821.48
909.668	12966.88
909.846	12559.34
910.024	12278.77
910.202	12856.29
910.38	13009.89
910.559	12307.44
910.737	12610.54
910.915	12602.35
911.093	12733.42
911.271	12473.32
911.449	12348.4
911.627	12626.92
911.805	12991.46
911.983	12229.62
912.161	12344.3
912.339	12690.41
912.517	12880.87
912.695	12491.76
912.872	12026.87
913.05	12364.78
913.228	12579.82
913.406	12135.41
913.584	11901.94
913.762	12344.3
913.939	12246
914.117	11922.42
914.295	11817.97
914.473	12248.05
914.65	12182.51
914.828	11680.76
915.006	11672.57
915.184	11879.41
915.361	12246
915.539	11736.06
915.716	11668.47
915.894	12168.18
916.072	12332.01
916.249	11813.88
916.427	11697.14
916.604	11607.03
916.782	12131.31
916.959	11609.08
917.137	11559.93
917.314	11869.17
917.492	12065.78
917.669	11412.48
917.847	11625.47
918.024	11895.8
918.201	11443.2
918.379	11299.84
918.556	11467.77
918.733	11602.94
918.911	11527.16
919.088	11340.8
919.265	11166.72
919.442	11535.35
919.62	11367.42
919.797	11013.12
919.974	10986.5
920.151	11389.95
920.328	11414.52
920.506	10994.69
920.683	11211.78
920.86	10699.78
921.037	11115.52
921.214	10732.55
921.391	10613.77
921.568	11377.66
921.745	11150.34
921.922	10841.09
922.099	10558.47
922.276	11191.3
922.453	10613.77
922.63	10839.05
922.807	10683.4
922.984	10974.21
923.161	10384.4
923.338	10488.84
923.514	10423.31
923.691	10763.27
923.868	11111.43
924.045	10171.41
924.222	10103.82
924.399	10681.35
924.575	10822.66
924.752	10243.09
924.929	10212.37
925.105	10488.84
925.282	9929.75
925.459	10224.65
925.635	10198.03
925.812	10290.19
925.989	10062.87
926.165	10142.74
926.342	10021.91
926.518	9901.08
926.695	10120.21
926.871	9808.92
927.048	9767.96
927.224	10116.11
927.401	9833.49
927.577	9659.42
927.754	9456.67
927.93	9802.77
928.107	10019.86
928.283	9323.55
928.459	9780.25
928.636	9892.88
928.812	9554.97
928.988	9282.59
929.165	9131.04
929.341	9626.65
929.517	9511.96
929.693	9686.04
929.87	8944.67
930.046	9505.82
930.222	9118.75
930.398	9200.67
930.574	9077.79
930.751	9384.99
930.927	9049.12
931.103	9092.13
931.279	9024.54
931.455	8776.74
931.631	9323.55
931.807	8660.01
931.983	8723.49
932.159	8653.86
932.335	8741.93
932.511	8629.29
932.687	8524.84
932.863	8821.8
933.039	8641.57
933.215	8322.09
933.391	8135.73
933.566	8365.1
933.742	8553.51
933.918	8064.05
934.094	7781.43
934.27	8193.07
934.445	8356.91
934.621	8166.45
934.797	7746.61
934.973	8188.97
935.148	8049.71
935.324	7517.24
935.5	7267.39
935.675	7814.2
935.851	7668.79
936.027	7330.87
936.202	7105.6
936.378	7347.26
936.553	7101.5
936.729	7433.27
936.904	6767.68
937.08	6609.99
937.255	6632.52
937.431	6450.25
937.606	6210.64
937.782	6452.3
937.957	6601.8
938.133	6267.98
938.308	6077.52
938.483	6243.4
938.659	5856.34
938.834	5825.62
939.009	5809.23
939.185	5956.69
939.36	5590.1
939.535	5108.83
939.71	5495.89
939.886	5665.88
940.061	5596.25
940.236	5360.73
940.411	5207.13
940.586	5485.65
940.761	5471.32
940.937	5102.68
941.112	4752.48
941.287	5327.96
941.462	5051.49
941.637	4695.14
941.812	4760.67
941.987	4953.18
942.162	4820.07
942.337	4527.21
942.512	4500.58
942.687	5059.68
942.862	4926.56
943.037	4490.34
943.212	4150.38
943.386	4617.32
943.561	4680.8
943.736	4400.23
943.911	4715.62
944.086	4619.36
944.26	4689
944.435	4260.97
944.61	4582.5
944.785	4772.96
944.959	4979.81
945.134	4363.37
945.309	4248.68
945.483	4355.18
945.658	4777.06
945.833	4160.62
946.007	4162.67
946.182	4979.81
946.357	4275.31
946.531	4271.21
946.706	4125.8
946.88	4177
947.055	4514.92
947.229	4226.15
947.404	4209.77
947.578	4789.35
947.752	4467.81
947.927	4099.18
948.101	4058.22
948.276	4330.6
948.45	4514.92
948.624	4514.92
948.799	4215.91
948.973	4473.96
949.147	4146.28
949.321	4324.46
949.496	4371.56
949.67	4748.39
949.844	4224.11
950.018	4363.37
950.193	4158.57
950.367	4928.61
950.541	4422.76
950.715	4389.99
950.889	4527.21
951.063	4375.66
951.237	4721.76
951.411	3939.44
951.585	4252.78
951.759	4772.96
951.933	4476.01
952.107	4129.9
952.281	4263.02
952.455	4899.94
952.629	4693.09
952.803	4058.22
952.977	4162.67
953.151	4527.21
953.325	4445.29
953.499	4512.87
953.672	4146.28
953.846	4179.05
954.02	4480.1
954.194	4140.14
954.368	4201.58
954.541	4641.89
954.715	4338.79
954.889	4328.55
955.062	4072.56
955.236	4254.83
955.41	4394.09
955.583	4418.66
955.757	3931.25
955.93	4291.69
956.104	4168.81
956.278	4281.45
956.451	4183.15
956.625	4422.76
956.798	4807.78
956.972	4398.18
957.145	3916.91
957.319	4359.27
957.492	4416.62
957.665	4242.54
957.839	4064.36
958.012	4582.5
958.185	4289.64
958.359	4052.08
958.532	4349.03
958.705	4359.27
958.879	4306.02
959.052	4217.96
959.225	3896.43
959.398	4291.69
959.572	4353.13
959.745	3925.1
959.918	4037.74
960.091	4197.48
960.264	4437.09
960.438	3855.47
960.611	3880.05
960.784	4453.48
960.957	4211.82
961.13	4340.84
961.303	4052.08
961.476	4349.03
961.649	4486.25
961.822	4029.55
961.995	3921.01
962.168	4377.7
962.341	4236.39
962.514	4056.17
962.686	3869.81
962.859	4303.98
963.032	4240.49
963.205	3810.42
963.378	3773.55
963.551	4138.09
963.723	4138.09
963.896	4007.02
964.069	3947.63
964.242	4271.21
964.414	4373.61
964.587	4007.02
964.76	4039.79
964.932	4271.21
965.105	4213.87
965.278	3974.25
965.45	3705.97
965.623	4156.52
965.795	4359.27
965.968	3990.64
966.14	3925.1
966.313	4043.88
966.485	4058.22
966.658	3765.36
966.83	3652.72
967.003	4359.27
967.175	4330.6
967.348	3777.65
967.52	3730.55
967.692	4359.27
967.865	4152.43
968.037	3925.1
968.209	3933.29
968.382	4113.52
968.554	4215.91
968.726	3857.52
968.898	3701.87
969.071	4064.36
969.243	4160.62
969.415	3689.59
969.587	3912.81
969.759	4461.67
969.932	4205.67
970.104	3757.17
970.276	3417.21
970.448	3773.55
970.62	3777.65
970.792	3810.42
970.964	3687.54
971.136	4420.71
971.308	4131.95
971.48	3519.6
971.652	3581.04
971.824	4158.57
971.996	3843.18
972.168	3724.4
972.339	3622
972.511	3998.83
972.683	3865.71
972.855	3744.88
973.027	3572.85
973.199	3843.18
973.37	4015.21
973.542	3796.08
973.714	3550.32
973.886	3806.32
974.057	4058.22
974.229	3366.01
974.401	3478.65
974.572	3507.32
974.744	3226.75
974.915	3347.58
975.087	3413.11
975.259	4050.03
975.43	3609.72
975.602	3548.28
975.773	3378.3
975.945	3542.13
976.116	3931.25
976.288	3425.4
976.459	3658.87
976.63	3490.93
976.802	3720.31
976.973	3310.71
977.145	3632.24
977.316	4093.04
977.487	4027.5
977.659	3476.6
977.83	3480.69
978.001	4138.09
978.172	3714.16
978.344	3212.41
978.515	3376.25
978.686	3622
978.857	3900.53
979.028	3337.34
979.2	3320.95
979.371	3884.14
979.542	3521.65
979.713	3333.24
979.884	2927.74
980.055	3337.34
980.226	3544.18
980.397	3413.11
980.568	3146.87
980.739	3810.42
980.91	3437.69
981.081	3441.78
981.252	3212.41
981.423	3742.83
981.594	3740.79
981.765	3077.24
981.936	3409.01
982.106	3486.84
982.277	3622
982.448	3146.87
982.619	3267.7
982.79	3232.89
982.96	3605.62
983.131	3296.38
983.302	2960.51
983.472	3310.71
983.643	3550.32
983.814	3404.92
983.984	3046.52
984.155	3452.02
984.326	3560.56
984.496	3138.68
984.667	3019.9
984.837	3179.64
985.008	3591.28
985.178	3187.83
985.349	3118.2
985.519	3329.14
985.69	3208.31
985.86	3114.11
986.031	2860.16
986.201	3329.14
986.371	3441.78
986.542	2991.23
986.712	2716.8
986.882	3421.3
987.053	3370.1
987.223	2798.72
987.393	3089.53
987.563	3034.24
987.734	3300.47
987.904	3245.18
988.074	3038.33
988.244	3206.27
988.414	3026.04
988.585	2950.27
988.755	2927.74
988.925	3124.35
989.095	3458.17
989.265	2690.18
989.435	3003.52
989.605	3263.61
989.775	3396.73
989.945	3085.44
990.115	2667.65
990.285	3087.48
990.455	3161.21
990.625	2997.37
990.795	2649.22
990.965	3411.06
991.134	2667.65
991.304	2782.34
991.474	2815.1
991.644	3267.7
991.814	3462.26
991.984	2602.11
992.153	2796.67
992.323	2956.41
992.493	2952.32
992.662	2540.68
992.832	2876.54
993.002	2931.84
993.171	3110.01
993.341	2620.55
993.511	2843.78
993.68	2862.21
993.85	3163.26
994.019	2483.33
994.189	2454.66
994.358	2870.4
994.528	2780.29
994.697	2331.78
994.867	2544.77
995.036	3019.9
995.206	2729.09
995.375	2598.02
995.544	2657.41
995.714	2974.85
995.883	2806.91
996.052	2755.71
996.222	2309.26
996.391	3392.63
996.56	2817.15
996.73	2339.97
996.899	2319.5
997.068	3075.2
997.237	2815.1
997.406	2425.99
997.576	2186.38
997.745	2892.93
997.914	2796.67
998.083	2249.86
998.252	2319.5
998.421	2663.55
998.59	2571.4
998.759	2262.15
998.928	2311.3
999.097	2909.31
999.266	2692.23
999.435	2546.82
999.604	2161.8
999.773	3122.3
999.942	2673.79
1000.111	2104.46
1000.28	2225.29
1000.448	2231.43
1000.617	2368.65
1000.786	2407.56
1000.955	2223.24
1001.124	2634.88
1001.292	3271.8
1001.461	2190.47
1001.63	2247.82
1001.798	2950.27
1001.967	2792.58
1002.136	2032.78
1002.304	2143.37
1002.473	2555.01
1002.642	2567.3
1002.81	2202.76
1002.979	2040.97
1003.147	2712.71
1003.316	3040.38
1003.484	2163.85
1003.653	2155.66
1003.821	2630.79
1003.99	2452.61
1004.158	2180.23
1004.327	2313.35
1004.495	2516.1
1004.663	2112.65
1004.832	2270.34
1005	1881.23
1005.168	2552.96
1005.337	2454.66
1005.505	1909.9
1005.673	2231.43
1005.842	2540.68
1006.01	2565.25
1006.178	1830.03
1006.346	2100.36
1006.514	2286.73
1006.683	2727.04
1006.851	2018.44
1007.019	1754.26
1007.187	2086.03
1007.355	1877.13
1007.523	1672.34
1007.691	1832.08
1007.859	1909.9
1008.027	2577.54
1008.195	1920.14
1008.363	1631.38
1008.531	2528.39
1008.699	2196.62
1008.867	1723.54
1009.035	1827.98
1009.203	2407.56
1009.37	2270.34
1009.538	1875.09
1009.706	2423.94
1009.874	2307.21
1010.042	2098.31
1010.209	1760.4
1010.377	1797.26
1010.545	2432.13
1010.713	2141.32
1010.88	1873.04
1011.048	1805.46
1011.216	2051.21
1011.383	2548.87
1011.551	1885.33
1011.718	1660.05
1011.886	2378.89
1012.054	2106.51
1012.221	1694.86
1012.389	1709.2
1012.556	2077.83
1012.724	2526.34
1012.891	1938.57
1013.058	1555.6
1013.226	2229.38
1013.393	2223.24
1013.561	1559.7
1013.728	1557.65
1013.895	2223.24
1014.063	2198.67
1014.23	1524.88
1014.397	1631.38
1014.565	2233.48
1014.732	1805.46
1014.899	1588.37
1015.066	1563.79
1015.233	2067.6
1015.401	2118.79
1015.568	1750.16
1015.735	1660.05
1015.902	1911.95
1016.069	1873.04
1016.236	1633.43
1016.403	1533.08
1016.57	1748.11
1016.737	2141.32
1016.904	1662.1
1017.071	1313.94
1017.238	1795.22
1017.405	2051.21
1017.572	1463.44
1017.739	1766.54
1017.906	2110.6
1018.073	2030.73
1018.24	1430.68
1018.407	1488.02
1018.573	2139.27
1018.74	1772.69
1018.907	1488.02
1019.074	1352.85
1019.241	1969.29
1019.407	1793.17
1019.574	1457.3
1019.741	1170.58
1019.907	1789.07
1020.074	1973.39
1020.241	1242.26
1020.407	1348.76
1020.574	1987.72
1020.74	1864.85
1020.907	1371.29
1021.073	1322.13
1021.24	2137.23
1021.406	2059.4
1021.573	1311.89
1021.739	1303.7
1021.906	1946.76
1022.072	1633.43
1022.239	1334.42
1022.405	1363.09
1022.571	1617.04
1022.738	1545.36
1022.904	1287.32
1023.07	1342.61
1023.237	1821.84
1023.403	1963.15
1023.569	1330.33
1023.735	1178.78
1023.902	1627.28
1024.068	1604.75
1024.234	1139.87
1024.4	1209.5
1024.566	1701.01
1024.732	1725.58
1024.898	1246.36
1025.065	1027.23
1025.231	1746.06
1025.397	1631.38
1025.563	1205.4
1025.729	1090.71
1025.895	1250.46
1026.061	1344.66
1026.227	951.45
1026.392	1051.8
1026.558	1705.1
1026.724	1694.86
1026.89	1141.91
1027.056	1172.63
1027.222	1594.51
1027.388	1457.3
1027.553	1062.04
1027.719	1148.06
1027.885	1852.56
1028.051	1604.75
1028.216	922.78
1028.382	1189.02
1028.548	1557.65
1028.713	1397.91
1028.879	824.48
1029.045	1275.03
1029.21	1764.5
1029.376	1733.78
1029.541	1080.47
1029.707	1186.97
1029.873	1629.33
1030.038	1504.4
1030.204	920.73
1030.369	1066.14
1030.534	1567.89
1030.7	1395.86
1030.865	1084.57
1031.031	949.4
1031.196	1494.16
1031.361	1455.25
1031.527	918.68
1031.692	853.15
1031.857	896.16
1032.023	1455.25
1032.188	902.3
1032.353	1047.71
1032.518	1701.01
1032.684	1363.09
1032.849	746.66
1033.014	920.73
1033.179	1373.33
1033.344	1402.01
1033.509	1094.81
1033.674	894.11
1033.839	1524.88
1034.004	1442.96
1034.17	910.49
1034.335	873.63
1034.5	1135.77
1034.664	1051.8
1034.829	914.59
1034.994	873.63
1035.159	1324.18
1035.324	1279.13
1035.489	881.82
1035.654	797.85
1035.819	1520.79
1035.984	1232.02
1036.148	949.4
1036.313	863.39
1036.478	1442.96
1036.643	1283.22
1036.807	781.47
1036.972	857.25
1037.137	1447.06
1037.301	1203.35
1037.466	601.25
1037.631	883.87
1037.795	1449.11
1037.96	1189.02
1038.124	1043.61
1038.289	685.22
1038.454	1234.07
1038.618	1336.47
1038.783	742.56
1038.947	863.39
1039.111	1176.73
1039.276	1039.51
1039.44	734.37
1039.605	1262.74
1039.769	1014.94
1039.933	1119.39
1040.098	840.86
1040.262	978.08
1040.426	1289.37
1040.591	1215.64
1040.755	664.74
1040.919	765.09
1041.083	1211.54
1041.248	1021.08
1041.412	488.61
1041.576	697.5
1041.74	982.17
1041.904	1158.3
1042.068	574.63
1042.232	689.31
1042.397	1328.28
1042.561	1062.04
1042.725	570.53
1042.889	896.16
1043.053	1242.26
1043.217	1135.77
1043.381	750.75
1043.544	498.85
1043.708	1193.11
1043.872	709.79
1044.036	443.56
1044.2	543.91
1044.364	1281.18
1044.528	1402.01
1044.691	2075.79
1044.855	459.94
1045.019	1174.68
1045.183	1234.07
1045.346	685.22
1045.51	664.74
1045.674	1127.58
1045.837	1092.76
1046.001	644.26
1046.165	652.45
1046.328	1479.83
1046.492	1070.23
1046.655	781.47
1046.819	576.67
1046.983	748.7
1047.146	967.84
1047.31	652.45
1047.473	431.27
1047.636	894.11
1047.8	824.48
1047.963	615.59
1048.127	445.6
1048.29	756.9
