Data from Ink_Intensity_USB4F045381__190__00190.txt Node

Date: Mon Jul 17 11:44:52 EDT 2023
User: mmckonesweet
Spectrometer: USB4F04538
Trigger mode: 4
Integration Time (sec): 9.000000E-1
Scans to average: 1
Electric dark correction enabled: true
Nonlinearity correction enabled: false
Boxcar width: 0
XAxis mode: Wavelengths
Number of Pixels in Spectrum: 3648
>>>>>Begin Spectral Data<<<<<
345.52	-1089.35
345.736	-1089.35
345.952	-1089.35
346.168	-1005.38
346.384	-997.19
346.6	-194.39
346.816	-268.11
347.032	-126.8
347.248	317.61
347.464	-247.63
347.68	-118.61
347.896	55.47
348.112	444.58
348.328	-91.99
348.544	-67.41
348.76	-8.02
348.975	305.32
349.191	-208.72
349.407	-239.44
349.623	-24.4
349.839	-124.76
350.055	-169.81
350.27	-16.21
350.486	75.95
350.702	241.83
350.918	219.3
351.133	-321.36
351.349	137.38
351.565	350.37
351.781	-212.82
351.996	20.65
352.212	293.03
352.428	-85.84
352.644	-147.28
352.859	-309.07
353.075	299.17
353.291	65.71
353.506	-184.15
353.722	-282.45
353.938	-73.56
354.153	374.95
354.369	125.1
354.584	-173.91
354.8	276.65
355.016	-243.54
355.231	-268.11
355.447	-128.85
355.662	235.69
355.878	790.69
356.093	-325.46
356.309	-71.51
356.524	-268.11
356.74	211.11
356.955	-221.01
357.171	10.41
357.386	155.82
357.602	-255.83
357.817	-116.56
358.033	-188.24
358.248	350.37
358.464	129.19
358.679	-128.85
358.895	-401.23
359.11	-59.22
359.325	268.45
359.541	37.03
359.756	-24.4
359.972	-266.07
360.187	153.77
360.402	-223.06
360.618	-194.39
360.833	907.42
361.048	114.86
361.264	-173.91
361.479	-128.85
361.694	14.51
361.909	149.67
362.125	-212.82
362.34	-135
362.555	229.54
362.77	112.81
362.986	-325.46
363.201	-186.19
363.416	143.53
363.631	53.42
363.847	-214.87
364.062	-223.06
364.277	98.47
364.492	116.9
364.707	-135
364.922	-419.66
365.138	233.64
365.353	288.93
365.568	-278.35
365.783	-188.24
365.998	47.27
366.213	549.03
366.428	-251.73
366.643	53.42
366.858	256.17
367.073	188.58
367.288	-184.15
367.503	-274.26
367.718	104.62
367.933	233.64
368.148	-413.52
368.363	-40.79
368.578	-18.26
368.793	395.43
369.008	-210.77
369.223	-251.73
369.438	166.06
369.653	258.21
369.868	-370.51
370.083	-270.16
370.298	49.32
370.513	350.37
370.728	8.36
370.943	-223.06
371.157	-153.43
371.372	655.52
371.587	-390.99
371.802	-233.3
372.017	-40.79
372.232	409.76
372.446	-16.21
372.661	-309.07
372.876	235.69
373.091	166.06
373.306	-116.56
373.52	-298.83
373.735	-124.76
373.95	393.38
374.165	-81.75
374.379	-178
374.594	-155.47
374.809	57.51
375.023	-40.79
375.238	-253.78
375.453	252.07
375.667	-288.59
375.882	-212.82
376.097	-218.96
376.311	-63.32
376.526	-20.31
376.741	-235.35
376.955	39.08
377.17	575.65
377.384	499.88
377.599	-81.75
377.813	-321.36
378.028	538.79
378.242	157.86
378.457	-120.66
378.672	-395.09
378.886	26.79
379.101	-57.17
379.315	-384.85
379.53	-247.63
379.744	188.58
379.958	98.47
380.173	-141.14
380.387	-206.67
380.602	110.76
380.816	-188.24
381.031	-231.25
381.245	-116.56
381.459	170.15
381.674	2668.67
381.888	-221.01
382.103	32.94
382.317	-229.2
382.531	391.33
382.746	-69.46
382.96	-178
383.174	-98.13
383.388	432.29
383.603	71.85
383.817	-239.44
384.031	94.38
384.246	407.72
384.46	22.7
384.674	374.95
384.888	26.79
385.103	112.81
385.317	-311.12
385.531	-83.8
385.745	297.13
385.959	270.5
386.174	-245.59
386.388	-261.97
386.602	26.79
386.816	-149.33
387.03	-206.67
387.244	-116.56
387.458	30.89
387.672	309.41
387.887	-294.74
388.101	-368.46
388.315	364.71
388.529	16.55
388.743	-221.01
388.957	-294.74
389.171	325.8
389.385	-186.19
389.599	-155.47
389.813	22.7
390.027	164.01
390.241	618.66
390.455	-188.24
390.669	-214.87
390.883	-100.18
391.097	389.28
391.311	-36.69
391.525	-294.74
391.738	290.98
391.952	180.39
392.166	-14.17
392.38	-294.74
392.594	340.13
392.808	258.21
393.022	-157.52
393.236	-135
393.449	151.72
393.663	49.32
393.877	-343.89
394.091	-145.24
394.305	-67.41
394.518	-42.84
394.732	-362.32
394.946	-223.06
395.16	424.1
395.373	104.62
395.587	-272.21
395.801	-325.46
396.015	354.47
396.228	182.44
396.442	-345.94
396.656	-364.37
396.869	313.51
397.083	434.34
397.297	-132.95
397.51	-180.05
397.724	250.02
397.938	123.05
398.151	-397.14
398.365	-358.22
398.578	153.77
398.792	346.28
399.005	10.41
399.219	-190.29
399.433	127.14
399.646	143.53
399.86	4.27
400.073	71.85
400.287	237.74
400.5	39.08
400.714	-32.6
400.927	-106.32
401.141	227.5
401.354	1024.16
401.567	213.16
401.781	-272.21
401.994	241.83
402.208	481.44
402.421	-153.43
402.635	-120.66
402.848	-75.6
403.061	223.4
403.275	-108.37
403.488	-266.07
403.701	428.2
403.915	301.22
404.128	16.55
404.341	-214.87
404.555	153.77
404.768	8.36
404.981	-34.64
405.195	-190.29
405.408	450.72
405.621	278.69
405.834	-26.45
406.048	-247.63
406.261	370.85
406.474	438.44
406.687	-194.39
406.9	-71.51
407.114	2.22
407.327	219.3
407.54	-337.74
407.753	-395.09
407.966	-225.11
408.179	221.35
408.392	-315.22
408.605	-354.13
408.819	161.96
409.032	180.39
409.245	-239.44
409.458	-63.32
409.671	137.38
409.884	213.16
410.097	-372.56
410.31	-73.56
410.523	221.35
410.736	-42.84
410.949	-194.39
411.162	-165.71
411.375	407.72
411.588	254.12
411.801	14.51
412.014	-196.43
412.227	-83.8
412.44	-116.56
412.653	-225.11
412.865	-40.79
413.078	245.93
413.291	129.19
413.504	-116.56
413.717	-272.21
413.93	127.14
414.143	-165.71
414.356	-218.96
414.568	-313.17
414.781	243.88
414.994	37.03
415.207	-14.17
415.42	-67.41
415.632	237.74
415.845	428.2
416.058	-352.08
416.271	-237.39
416.483	65.71
416.696	465.06
416.909	-245.59
417.121	-214.87
417.334	141.48
417.547	456.87
417.759	-264.02
417.972	-309.07
418.185	-184.15
418.397	172.2
418.61	-221.01
418.823	-147.28
419.035	460.96
419.248	-108.37
419.46	-59.22
419.673	-108.37
419.885	116.9
420.098	-14.17
420.311	-218.96
420.523	-374.61
420.736	172.2
420.948	86.19
421.161	-249.68
421.373	-403.28
421.586	108.71
421.798	-157.52
422.01	-347.98
422.223	-137.04
422.435	-126.8
422.648	135.34
422.86	-206.67
423.073	-296.78
423.285	260.26
423.497	-233.3
423.71	-300.88
423.922	-204.63
424.134	104.62
424.347	383.14
424.559	-28.5
424.771	67.75
424.984	30.89
425.196	121
425.408	-298.83
425.621	-296.78
425.833	293.03
426.045	374.95
426.257	-315.22
426.47	-233.3
426.682	92.33
426.894	131.24
427.106	-200.53
427.318	-231.25
427.531	-96.08
427.743	164.01
427.955	-227.15
428.167	243.88
428.379	104.62
428.591	-106.32
428.804	-94.04
429.016	-345.94
429.228	-147.28
429.44	114.86
429.652	37.03
429.864	-292.69
430.076	-77.65
430.288	-44.88
430.5	-186.19
430.712	-124.76
430.924	319.65
431.136	82.09
431.348	-380.75
431.56	-313.17
431.772	-42.84
431.984	-26.45
432.196	-257.87
432.408	-216.91
432.62	-1.88
432.832	116.9
433.044	20.65
433.256	-143.19
433.468	252.07
433.679	-397.14
433.891	-304.98
434.103	-16.21
434.315	413.86
434.527	213.16
434.739	-132.95
434.95	-216.91
435.162	282.79
435.374	-126.8
435.586	-184.15
435.798	-214.87
436.009	-188.24
436.221	-94.04
436.433	-300.88
436.645	-180.05
436.856	-153.43
437.068	247.97
437.28	-223.06
437.491	94.38
437.703	178.34
437.915	94.38
438.126	-157.52
438.338	16.55
438.55	-20.31
438.761	176.3
438.973	-186.19
439.184	-159.57
439.396	-63.32
439.608	227.5
439.819	-347.98
440.031	10.41
440.242	168.1
440.454	145.58
440.665	-227.15
440.877	-44.88
441.088	96.43
441.3	-137.04
441.511	-399.18
441.723	-241.49
441.934	121
442.146	41.13
442.357	-22.36
442.569	59.56
442.78	55.47
442.991	424.1
443.203	96.43
443.414	-307.02
443.626	405.67
443.837	-223.06
444.048	-304.98
444.26	-399.18
444.471	104.62
444.682	254.12
444.894	-376.66
445.105	-378.7
445.316	268.45
445.528	112.81
445.739	-55.12
445.95	-171.86
446.161	-1.88
446.373	264.36
446.584	-214.87
446.795	-198.48
447.006	194.73
447.217	342.18
447.429	-411.47
447.64	-333.65
447.851	368.81
448.062	43.18
448.273	-419.66
448.484	-313.17
448.695	61.61
448.907	-75.6
449.118	-190.29
449.329	6.31
449.54	-120.66
449.751	-311.12
449.962	-296.78
450.173	-235.35
450.384	262.31
450.595	303.27
450.806	-235.35
451.017	-214.87
451.228	350.37
451.439	274.6
451.65	-216.91
451.861	-409.42
452.072	-155.47
452.283	-71.51
452.494	-100.18
452.705	-268.11
452.915	428.2
453.126	143.53
453.337	-114.52
453.548	-235.35
453.759	270.5
453.97	526.5
454.181	-89.94
454.391	-214.87
454.602	53.42
454.813	174.25
455.024	-216.91
455.235	-247.63
455.445	47.27
455.656	137.38
455.867	-149.33
456.078	-173.91
456.288	-48.98
456.499	131.24
456.71	-268.11
456.921	88.23
457.131	182.44
457.342	43.18
457.553	-89.94
457.763	-264.02
457.974	184.49
458.184	227.5
458.395	-300.88
458.606	-366.42
458.816	331.94
459.027	434.34
459.237	-34.64
459.448	-393.04
459.659	338.09
459.869	569.51
460.08	-417.61
460.29	-155.47
460.501	522.4
460.711	-102.23
460.922	-390.99
461.132	-321.36
461.343	692.38
461.553	-278.35
461.764	-255.83
461.974	-235.35
462.184	157.86
462.395	59.56
462.605	-280.4
462.816	-313.17
463.026	63.66
463.236	338.09
463.447	-341.84
463.657	-300.88
463.867	254.12
464.078	-126.8
464.288	-186.19
464.498	-290.64
464.709	-5.97
464.919	12.46
465.129	-165.71
465.339	-329.55
465.55	141.48
465.76	223.4
465.97	-212.82
466.18	-307.02
466.391	166.06
466.601	80.04
466.811	-202.58
467.021	-366.42
467.231	49.32
467.441	336.04
467.651	-241.49
467.862	-550.73
468.072	0.17
468.282	272.55
468.492	-315.22
468.702	-188.24
468.912	6.31
469.122	645.28
469.332	2.22
469.542	-356.18
469.752	286.89
469.962	102.57
470.172	-393.04
470.382	-325.46
470.592	204.97
470.802	268.45
471.012	-75.6
471.222	-290.64
471.432	305.32
471.642	178.34
471.852	-149.33
472.062	-261.97
472.272	-48.98
472.482	-276.31
472.691	-352.08
472.901	-337.74
473.111	51.37
473.321	460.96
473.531	-309.07
473.741	-135
473.95	82.09
474.16	190.63
474.37	-122.71
474.58	-313.17
474.79	432.29
474.999	233.64
475.209	-317.26
475.419	-278.35
475.628	-42.84
475.838	290.98
476.048	-149.33
476.258	-380.75
476.467	321.7
476.677	-186.19
476.886	-38.74
477.096	-163.67
477.306	-110.42
477.515	383.14
477.725	-237.39
477.935	-178
478.144	340.13
478.354	-165.71
478.563	-212.82
478.773	-304.98
478.982	178.34
479.192	202.92
479.401	-118.61
479.611	-309.07
479.82	-161.62
480.03	51.37
480.239	-339.79
480.449	-337.74
480.658	420
480.868	-108.37
481.077	-67.41
481.287	-210.77
481.496	123.05
481.705	391.33
481.915	22.7
482.124	-8.02
482.333	39.08
482.543	336.04
482.752	-192.34
482.961	-259.92
483.171	161.96
483.38	-34.64
483.589	-91.99
483.799	-311.12
484.008	-32.6
484.217	252.07
484.426	-206.67
484.636	-390.99
484.845	57.51
485.054	-319.31
485.263	80.04
485.472	-173.91
485.682	399.52
485.891	96.43
486.1	-403.28
486.309	-229.2
486.518	241.83
486.727	258.21
486.936	-270.16
487.146	-96.08
487.355	350.37
487.564	-266.07
487.773	-178
487.982	-206.67
488.191	-91.99
488.4	-5.97
488.609	-173.91
488.818	-204.63
489.027	569.51
489.236	366.76
489.445	-163.67
489.654	-354.13
489.863	268.45
490.072	-3.93
490.281	112.81
490.49	-231.25
490.698	348.33
490.907	333.99
491.116	-221.01
491.325	-345.94
491.534	309.41
491.743	16.55
491.952	-139.09
492.16	-165.71
492.369	145.58
492.578	272.55
492.787	-198.48
492.996	-388.94
493.204	-102.23
493.413	393.38
493.622	-456.53
493.831	-413.52
494.039	434.34
494.248	-216.91
494.457	-323.41
494.665	-436.05
494.874	110.76
495.083	520.35
495.291	-264.02
495.5	-370.51
495.709	200.87
495.917	73.9
496.126	-108.37
496.335	-194.39
496.543	-128.85
496.752	141.48
496.96	26.79
497.169	-343.89
497.377	22.7
497.586	323.75
497.794	-112.47
498.003	-468.81
498.211	-96.08
498.42	436.39
498.628	-202.58
498.837	-378.7
499.045	116.9
499.254	18.6
499.462	-249.68
499.671	-368.46
499.879	448.68
500.087	272.55
500.296	-278.35
500.504	-206.67
500.713	145.58
500.921	598.18
501.129	-345.94
501.338	-323.41
501.546	90.28
501.754	37.03
501.962	-319.31
502.171	-456.53
502.379	51.37
502.587	516.26
502.795	-253.78
503.004	-266.07
503.212	43.18
503.42	266.41
503.628	-296.78
503.837	-79.7
504.045	196.78
504.253	424.1
504.461	-241.49
504.669	-501.58
504.877	211.11
505.085	409.76
505.294	-427.85
505.502	-116.56
505.71	59.56
505.918	121
506.126	-358.22
506.334	-358.22
506.542	-59.22
506.75	22.7
506.958	-167.76
507.166	-253.78
507.374	-91.99
507.582	434.34
507.79	-112.47
507.998	-341.84
508.206	75.95
508.414	108.71
508.622	-329.55
508.83	-276.31
509.037	393.38
509.245	8.36
509.453	-354.13
509.661	-417.61
509.869	186.54
510.077	-65.36
510.285	-151.38
510.492	-571.21
510.7	600.23
510.908	-96.08
511.116	-218.96
511.324	-335.7
511.531	-132.95
511.739	127.14
511.947	-79.7
512.155	-30.55
512.362	147.62
512.57	-253.78
512.778	-290.64
512.985	-485.2
513.193	290.98
513.401	362.66
513.608	-221.01
513.816	-231.25
514.024	106.67
514.231	377
514.439	-339.79
514.646	-264.02
514.854	231.59
515.061	333.99
515.269	-261.97
515.477	-325.46
515.684	-210.77
515.892	245.93
516.099	-386.9
516.307	-442.19
516.514	135.34
516.722	444.58
516.929	-288.59
517.136	-352.08
517.344	278.69
517.551	94.38
517.759	-352.08
517.966	-272.21
518.173	-75.6
518.381	4.27
518.588	-284.5
518.796	-321.36
519.003	280.74
519.21	4.27
519.418	-210.77
519.625	59.56
519.832	2.22
520.039	75.95
520.247	-474.96
520.454	-272.21
520.661	235.69
520.868	26.79
521.076	-229.2
521.283	-235.35
521.49	596.13
521.697	102.57
521.904	-223.06
522.112	-235.35
522.319	166.06
522.526	104.62
522.733	-272.21
522.94	-304.98
523.147	30.89
523.354	284.84
523.561	-446.29
523.768	-235.35
523.975	327.85
524.183	98.47
524.39	-143.19
524.597	-374.61
524.804	-22.36
525.011	-157.52
525.218	-360.27
525.425	-354.13
525.632	313.51
525.838	-202.58
526.045	-290.64
526.252	-343.89
526.459	1085.59
526.666	923.8
526.873	-292.69
527.08	-337.74
527.287	338.09
527.494	141.48
527.701	-413.52
527.907	-368.46
528.114	121
528.321	-81.75
528.528	-329.55
528.735	-272.21
528.941	-151.38
529.148	-182.1
529.355	-110.42
529.562	-352.08
529.768	348.33
529.975	-40.79
530.182	-284.5
530.388	-317.26
530.595	225.45
530.802	-272.21
531.008	-128.85
531.215	-282.45
531.422	442.53
531.628	643.23
531.835	-200.53
532.042	-190.29
532.248	-214.87
532.455	57.51
532.661	-233.3
532.868	-386.9
533.074	80.04
533.281	276.65
533.487	-272.21
533.694	-307.02
533.9	-180.05
534.107	153.77
534.313	-360.27
534.52	-431.95
534.726	262.31
534.933	473.25
535.139	-350.03
535.345	-341.84
535.552	196.78
535.758	18.6
535.965	-270.16
536.171	-292.69
536.377	151.72
536.584	428.2
536.79	-268.11
536.996	-247.63
537.203	96.43
537.409	129.19
537.615	-325.46
537.821	-110.42
538.028	147.62
538.234	194.73
538.44	-223.06
538.646	-198.48
538.853	28.84
539.059	-30.55
539.265	129.19
539.471	-491.34
539.677	207.02
539.883	-112.47
540.09	-311.12
540.296	84.14
540.502	-71.51
540.708	-239.44
540.914	-57.17
541.12	-259.92
541.326	118.95
541.532	-5.97
541.738	-233.3
541.944	-229.2
542.15	235.69
542.356	10.41
542.562	-417.61
542.768	-239.44
542.974	565.41
543.18	508.07
543.386	-329.55
543.592	-503.63
543.798	325.8
544.004	233.64
544.21	-321.36
544.415	-266.07
544.621	69.8
544.827	348.33
545.033	-376.66
545.239	-61.27
545.445	-223.06
545.651	168.1
545.856	-286.54
546.062	-304.98
546.268	-71.51
546.474	-3.93
546.679	-288.59
546.885	-202.58
547.091	-53.08
547.297	448.68
547.502	-247.63
547.708	-431.95
547.914	-218.96
548.119	155.82
548.325	-393.04
548.531	-466.77
548.736	317.61
548.942	-145.24
549.147	-347.98
549.353	-63.32
549.559	301.22
549.764	100.52
549.97	-264.02
550.175	-218.96
550.381	118.95
550.586	-151.38
550.792	-278.35
550.997	-294.74
551.203	65.71
551.408	194.73
551.614	-429.9
551.819	-331.6
552.025	415.91
552.23	493.73
552.435	-403.28
552.641	-149.33
552.846	-194.39
553.052	223.4
553.257	-304.98
553.462	-274.26
553.668	-173.91
553.873	227.5
554.078	-272.21
554.283	-335.7
554.489	55.47
554.694	-1.88
554.899	-407.38
555.105	-155.47
555.31	157.86
555.515	223.4
555.72	-178
555.925	-431.95
556.131	219.3
556.336	-1.88
556.541	-393.04
556.746	-372.56
556.951	274.6
557.156	381.09
557.361	-280.4
557.567	-253.78
557.772	452.77
557.977	186.54
558.182	-329.55
558.387	-388.94
558.592	-186.19
558.797	264.36
559.002	-188.24
559.207	-175.95
559.412	8.36
559.617	424.1
559.822	-321.36
560.027	-339.79
560.232	69.8
560.437	213.16
560.642	-472.91
560.847	-354.13
561.051	12.46
561.256	137.38
561.461	-184.15
561.666	-386.9
561.871	37.03
562.076	186.54
562.281	-239.44
562.485	-366.42
562.69	141.48
562.895	245.93
563.1	-274.26
563.305	-358.22
563.509	333.99
563.714	581.79
563.919	-313.17
564.123	-249.68
564.328	-34.64
564.533	284.84
564.737	-261.97
564.942	-345.94
565.147	440.48
565.351	538.79
565.556	-38.74
565.761	-214.87
565.965	104.62
566.17	-141.14
566.374	-290.64
566.579	-364.37
566.784	8.36
566.988	-124.76
567.193	-460.62
567.397	-300.88
567.602	-225.11
567.806	-59.22
568.011	-280.4
568.215	-329.55
568.42	-63.32
568.624	51.37
568.828	-278.35
569.033	-114.52
569.237	155.82
569.442	116.9
569.646	-345.94
569.85	-243.54
570.055	8.36
570.259	82.09
570.463	-51.03
570.668	-341.84
570.872	-118.61
571.076	-75.6
571.281	-171.86
571.485	-169.81
571.689	16.55
571.893	168.1
572.098	-89.94
572.302	-325.46
572.506	116.9
572.71	108.71
572.914	-259.92
573.119	-278.35
573.323	352.42
573.527	295.08
573.731	-345.94
573.935	-309.07
574.139	77.99
574.343	-194.39
574.547	-300.88
574.751	-247.63
574.955	325.8
575.159	288.93
575.364	-259.92
575.568	-395.09
575.772	-1.88
575.976	272.55
576.18	-300.88
576.383	-419.66
576.587	233.64
576.791	116.9
576.995	-493.39
577.199	-386.9
577.403	219.3
577.607	301.22
577.811	-444.24
578.015	-167.76
578.219	82.09
578.422	223.4
578.626	-137.04
578.83	-198.48
579.034	340.13
579.238	45.23
579.442	-313.17
579.645	166.06
579.849	-20.31
580.053	6.31
580.257	-264.02
580.46	-214.87
580.664	153.77
580.868	88.23
581.071	-53.08
581.275	-153.43
581.479	-249.68
581.682	204.97
581.886	-272.21
582.09	-147.28
582.293	235.69
582.497	264.36
582.7	-32.6
582.904	-321.36
583.107	-8.02
583.311	-16.21
583.515	-196.43
583.718	-194.39
583.922	141.48
584.125	430.24
584.329	-302.93
584.532	-145.24
584.735	344.23
584.939	127.14
585.142	-446.29
585.346	-315.22
585.549	145.58
585.753	-159.57
585.956	-251.73
586.159	-124.76
586.363	370.85
586.566	131.24
586.769	-370.51
586.973	-313.17
587.176	104.62
587.379	303.27
587.582	94.38
587.786	-104.28
587.989	32.94
588.192	626.85
588.395	-186.19
588.599	118.95
588.802	59.56
589.005	260.26
589.208	-276.31
589.411	-182.1
589.615	231.59
589.818	446.63
590.021	-42.84
590.224	-190.29
590.427	327.85
590.63	170.15
590.833	-468.81
591.036	-364.37
591.239	41.13
591.442	-147.28
591.645	-10.07
591.848	-182.1
592.051	96.43
592.254	213.16
592.457	-231.25
592.66	-184.15
592.863	-3.93
593.066	67.75
593.269	-319.31
593.472	-132.95
593.675	-214.87
593.878	297.13
594.081	-165.71
594.284	-239.44
594.486	125.1
594.689	51.37
594.892	-180.05
595.095	-167.76
595.298	174.25
595.5	-100.18
595.703	-145.24
595.906	-237.39
596.109	362.66
596.311	280.74
596.514	-513.87
596.717	-243.54
596.92	329.89
597.122	147.62
597.325	-456.53
597.528	-327.5
597.73	358.57
597.933	82.09
598.136	-327.5
598.338	-491.34
598.541	149.67
598.743	264.36
598.946	-223.06
599.148	-296.78
599.351	247.97
599.554	309.41
599.756	-167.76
599.959	-198.48
600.161	190.63
600.363	604.32
600.566	-12.12
600.768	-247.63
600.971	438.44
601.173	229.54
601.376	-202.58
601.578	-251.73
601.78	127.14
601.983	612.51
602.185	-288.59
602.388	-65.36
602.59	157.86
602.792	-34.64
602.995	88.23
603.197	-182.1
603.399	221.35
603.601	155.82
603.804	-186.19
604.006	-313.17
604.208	-55.12
604.41	-321.36
604.613	-67.41
604.815	-345.94
605.017	536.74
605.219	-75.6
605.421	32.94
605.623	-200.53
605.826	333.99
606.028	331.94
606.23	-272.21
606.432	-208.72
606.634	420
606.836	370.85
607.038	-243.54
607.24	-91.99
607.442	108.71
607.644	63.66
607.846	-178
608.048	-362.32
608.25	303.27
608.452	-67.41
608.654	-210.77
608.856	-403.28
609.058	32.94
609.26	121
609.462	-91.99
609.664	-214.87
609.866	452.77
610.067	309.41
610.269	-34.64
610.471	-206.67
610.673	-5.97
610.875	172.2
611.077	-409.42
611.278	-114.52
611.48	-38.74
611.682	434.34
611.884	-143.19
612.085	-198.48
612.287	-223.06
612.489	147.62
612.69	-288.59
612.892	-173.91
613.094	313.51
613.295	168.1
613.497	-274.26
613.699	-163.67
613.9	358.57
614.102	219.3
614.304	-194.39
614.505	-345.94
614.707	71.85
614.908	41.13
615.11	-337.74
615.311	-145.24
615.513	219.3
615.714	241.83
615.916	-374.61
616.117	-161.62
616.319	28.84
616.52	217.26
616.722	-216.91
616.923	-257.87
617.124	280.74
617.326	149.67
617.527	-114.52
617.729	59.56
617.93	157.86
618.131	209.06
618.333	-218.96
618.534	-153.43
618.735	-143.19
618.937	387.24
619.138	-360.27
619.339	-280.4
619.54	245.93
619.742	-69.46
619.943	-61.27
620.144	-175.95
620.345	235.69
620.546	305.32
620.748	-300.88
620.949	-159.57
621.15	139.43
621.351	131.24
621.552	-206.67
621.753	-399.18
621.954	-229.2
622.155	485.54
622.356	-280.4
622.558	-100.18
622.759	6.31
622.96	575.65
623.161	-218.96
623.362	-184.15
623.563	96.43
623.764	161.96
623.965	-126.8
624.166	-32.6
624.366	6.31
624.567	51.37
624.768	-460.62
624.969	-231.25
625.17	2.22
625.371	196.78
625.572	-141.14
625.773	-264.02
625.973	243.88
626.174	145.58
626.375	-102.23
626.576	-178
626.777	266.41
626.977	614.56
627.178	-206.67
627.379	-163.67
627.58	34.99
627.78	84.14
627.981	-81.75
628.182	-65.36
628.382	333.99
628.583	-304.98
628.784	-325.46
628.984	6.31
629.185	153.77
629.386	295.08
629.586	-153.43
629.787	-315.22
629.987	243.88
630.188	59.56
630.388	-141.14
630.589	-157.52
630.79	616.61
630.99	98.47
631.191	-124.76
631.391	-67.41
631.591	247.97
631.792	456.87
631.992	-48.98
632.193	-153.43
632.393	481.44
632.594	147.62
632.794	-317.26
632.994	-24.4
633.195	14.51
633.395	94.38
633.595	-249.68
633.796	45.23
633.996	-124.76
634.196	364.71
634.397	-339.79
634.597	-153.43
634.797	-180.05
634.997	491.68
635.198	6.31
635.398	-247.63
635.598	149.67
635.798	438.44
635.998	272.55
636.199	-304.98
636.399	-94.04
636.599	-100.18
636.799	-169.81
636.999	96.43
637.199	188.58
637.399	307.37
637.599	-210.77
637.799	-20.31
637.999	2.22
638.199	374.95
638.399	-237.39
638.599	-175.95
638.799	229.54
638.999	600.23
639.199	-18.26
639.399	-132.95
639.599	456.87
639.799	-59.22
639.999	-163.67
640.199	-259.92
640.399	153.77
640.599	127.14
640.799	-149.33
640.998	34.99
641.198	381.09
641.398	202.92
641.598	-44.88
641.798	-130.9
641.997	950.43
642.197	82.09
642.397	-8.02
642.597	-241.49
642.796	274.6
642.996	440.48
643.196	-116.56
643.395	-218.96
643.595	227.5
643.795	-329.55
643.994	-186.19
644.194	-26.45
644.394	247.97
644.593	198.82
644.793	-384.85
644.992	-69.46
645.192	153.77
645.392	-368.46
645.591	71.85
645.791	-132.95
645.99	186.54
646.19	-26.45
646.389	-67.41
646.589	-55.12
646.788	295.08
646.987	129.19
647.187	141.48
647.386	39.08
647.586	100.52
647.785	362.66
647.984	-161.62
648.184	-153.43
648.383	-145.24
648.582	34.99
648.782	-147.28
648.981	-38.74
649.18	-155.47
649.38	63.66
649.579	-128.85
649.778	-175.95
649.977	237.74
650.177	166.06
650.376	-259.92
650.575	-122.71
650.774	444.58
650.973	-81.75
651.173	-309.07
651.372	-75.6
651.571	141.48
651.77	391.33
651.969	-118.61
652.168	-132.95
652.367	-178
652.566	141.48
652.765	-171.86
652.964	168.1
653.163	651.42
653.362	-3.93
653.561	-178
653.76	-173.91
653.959	55.47
654.158	276.65
654.357	73.9
654.556	-55.12
654.755	172.2
654.954	342.18
655.153	-94.04
655.352	-59.22
655.551	434.34
655.749	-83.8
655.948	-38.74
656.147	-26.45
656.346	256.17
656.545	39.08
656.743	4.27
656.942	-32.6
657.141	151.72
657.34	-182.1
657.538	-51.03
657.737	-104.28
657.936	-20.31
658.135	196.78
658.333	-218.96
658.532	-55.12
658.731	481.44
658.929	293.03
659.128	153.77
659.326	-194.39
659.525	346.28
659.724	71.85
659.922	-378.7
660.121	-257.87
660.319	172.2
660.518	-34.64
660.716	-216.91
660.915	-218.96
661.113	448.68
661.312	-149.33
661.51	53.42
661.709	-196.43
661.907	192.68
662.105	555.17
662.304	-61.27
662.502	-85.84
662.701	409.76
662.899	61.61
663.097	211.11
663.296	-218.96
663.494	391.33
663.692	530.59
663.891	-231.25
664.089	-253.78
664.287	170.15
664.485	366.76
664.684	-139.09
664.882	32.94
665.08	133.29
665.278	135.34
665.476	-249.68
665.675	194.73
665.873	710.82
666.071	307.37
666.269	-145.24
666.467	104.62
666.665	247.97
666.863	100.52
667.061	-14.17
667.259	-147.28
667.457	145.58
667.655	280.74
667.853	-266.07
668.051	-18.26
668.249	-77.65
668.447	192.68
668.645	-251.73
668.843	67.75
669.041	305.32
669.239	133.29
669.437	32.94
669.635	22.7
669.833	34.99
670.031	254.12
670.229	-40.79
670.426	-8.02
670.624	75.95
670.822	2.22
671.02	-135
671.218	61.61
671.415	-102.23
671.613	227.5
671.811	88.23
672.009	-51.03
672.206	272.55
672.404	133.29
672.602	118.95
672.799	-44.88
672.997	254.12
673.195	417.96
673.392	-18.26
673.59	-206.67
673.788	366.76
673.985	-304.98
674.183	77.99
674.38	-67.41
674.578	344.23
674.775	26.79
674.973	-124.76
675.17	-186.19
675.368	399.52
675.565	303.27
675.763	-149.33
675.96	-159.57
676.158	403.62
676.355	170.15
676.553	-104.28
676.75	-61.27
676.947	211.11
677.145	159.91
677.342	94.38
677.539	55.47
677.737	264.36
677.934	606.37
678.131	45.23
678.329	-61.27
678.526	522.4
678.723	379.04
678.92	86.19
679.118	-42.84
679.315	-100.18
679.512	489.64
679.709	-53.08
679.906	32.94
680.104	442.53
680.301	145.58
680.498	-116.56
680.695	-139.09
680.892	71.85
681.089	0.17
681.286	71.85
681.483	-218.96
681.68	293.03
681.877	428.2
682.075	16.55
682.272	153.77
682.469	235.69
682.665	98.47
682.862	-75.6
683.059	-173.91
683.256	290.98
683.453	174.25
683.65	98.47
683.847	-22.36
684.044	133.29
684.241	-100.18
684.438	-79.7
684.635	-132.95
684.831	669.86
685.028	620.71
685.225	-32.6
685.422	131.24
685.619	137.38
685.815	147.62
686.012	32.94
686.209	41.13
686.405	-73.56
686.602	325.8
686.799	-161.62
686.996	-126.8
687.192	-98.13
687.389	659.62
687.586	-108.37
687.782	-75.6
687.979	602.27
688.175	440.48
688.372	39.08
688.568	0.17
688.765	55.47
688.962	493.73
689.158	157.86
689.355	-175.95
689.551	399.52
689.748	86.19
689.944	55.47
690.14	-130.9
690.337	448.68
690.533	16.55
690.73	184.49
690.926	26.79
691.123	377
691.319	213.16
691.515	-122.71
691.712	98.47
691.908	284.84
692.104	268.45
692.301	102.57
692.497	-132.95
692.693	391.33
692.889	364.71
693.086	121
693.282	-243.54
693.478	258.21
693.674	514.21
693.87	49.32
694.067	-110.42
694.263	196.78
694.459	96.43
694.655	112.81
694.851	94.38
695.047	403.62
695.243	440.48
695.439	149.67
695.635	20.65
695.831	368.81
696.027	280.74
696.224	-38.74
696.42	256.17
696.615	491.68
696.811	366.76
697.007	-192.34
697.203	14.51
697.399	239.78
697.595	432.29
697.791	47.27
697.987	49.32
698.183	-155.47
698.379	-18.26
698.575	6.31
698.77	-12.12
698.966	383.14
699.162	540.83
699.358	41.13
699.554	-26.45
699.749	342.18
699.945	340.13
700.141	98.47
700.337	153.77
700.532	155.82
700.728	28.84
700.924	-42.84
701.119	-108.37
701.315	452.77
701.511	215.21
701.706	84.14
701.902	-147.28
702.097	258.21
702.293	362.66
702.489	149.67
702.684	22.7
702.88	190.63
703.075	211.11
703.271	-1.88
703.466	-151.38
703.662	161.96
703.857	282.79
704.053	-48.98
704.248	-38.74
704.443	379.04
704.639	424.1
704.834	55.47
705.03	-22.36
705.225	403.62
705.42	540.83
705.616	116.9
705.811	-59.22
706.006	133.29
706.202	260.26
706.397	125.1
706.592	-124.76
706.787	268.45
706.983	258.21
707.178	358.57
707.373	94.38
707.568	434.34
707.763	481.44
707.959	-28.5
708.154	-71.51
708.349	360.61
708.544	399.52
708.739	252.07
708.934	43.18
709.129	399.52
709.324	585.89
709.519	-3.93
709.714	-171.86
709.909	520.35
710.104	368.81
710.299	96.43
710.494	112.81
710.689	436.39
710.884	319.65
711.079	92.33
711.274	256.17
711.469	311.46
711.664	309.41
711.859	-42.84
712.054	219.3
712.249	444.58
712.443	589.99
712.638	-24.4
712.833	-30.55
713.028	186.54
713.223	196.78
713.417	389.28
713.612	0.17
713.807	370.85
714.002	837.79
714.196	278.69
714.391	26.79
714.586	377
714.78	194.73
714.975	127.14
715.17	-30.55
715.364	254.12
715.559	458.92
715.754	-206.67
715.948	14.51
716.143	819.36
716.337	401.57
716.532	321.7
716.726	47.27
716.921	456.87
717.115	657.57
717.31	-65.36
717.504	512.16
717.699	190.63
717.893	506.02
718.088	-28.5
718.282	-122.71
718.476	358.57
718.671	401.57
718.865	10.41
719.059	-5.97
719.254	350.37
719.448	606.37
719.642	1325.21
719.837	-204.63
720.031	575.65
720.225	516.26
720.419	108.71
720.614	26.79
720.808	467.11
721.002	264.36
721.196	-3.93
721.39	55.47
721.585	637.09
721.779	393.38
721.973	-20.31
722.167	-126.8
722.361	319.65
722.555	526.5
722.749	49.32
722.943	26.79
723.137	0.17
723.331	321.7
723.525	84.14
723.719	37.03
723.913	366.76
724.107	610.47
724.301	-55.12
724.495	84.14
724.689	682.14
724.883	592.03
725.077	16.55
725.271	47.27
725.465	589.99
725.659	272.55
725.853	184.49
726.046	-161.62
726.24	121
726.434	518.31
726.628	18.6
726.822	92.33
727.015	579.75
727.209	551.07
727.403	137.38
727.596	-57.17
727.79	495.78
727.984	508.07
728.177	106.67
728.371	131.24
728.565	571.55
728.758	6.31
728.952	53.42
729.146	69.8
729.339	561.31
729.533	260.26
729.726	51.37
729.92	-16.21
730.113	696.48
730.307	366.76
730.5	22.7
730.694	43.18
730.887	262.31
731.081	571.55
731.274	-53.08
731.468	178.34
731.661	325.8
731.854	141.48
732.048	69.8
732.241	-83.8
732.435	137.38
732.628	348.33
732.821	129.19
733.014	2.22
733.208	28.84
733.401	538.79
733.594	151.72
733.788	14.51
733.981	649.38
734.174	415.91
734.367	43.18
734.56	219.3
734.754	579.75
734.947	311.46
735.14	0.17
735.333	114.86
735.526	549.03
735.719	196.78
735.912	-30.55
736.105	0.17
736.298	233.64
736.491	196.78
736.684	0.17
736.877	12.46
737.07	377
737.263	624.8
737.456	4.27
737.649	100.52
737.842	252.07
738.035	403.62
738.228	235.69
738.421	247.97
738.614	645.28
738.807	477.35
739	-3.93
739.192	10.41
739.385	487.59
739.578	542.88
739.771	403.62
739.964	39.08
740.156	329.89
740.349	280.74
740.542	221.35
740.735	4.27
740.927	67.75
741.12	104.62
741.313	12.46
741.505	243.88
741.698	370.85
741.891	374.95
742.083	174.25
742.276	164.01
742.468	383.14
742.661	336.04
742.854	43.18
743.046	114.86
743.239	755.87
743.431	288.93
743.624	143.53
743.816	-87.89
744.009	211.11
744.201	415.91
744.393	264.36
744.586	-30.55
744.778	596.13
744.971	346.28
745.163	170.15
745.355	194.73
745.548	309.41
745.74	290.98
745.932	100.52
746.125	61.61
746.317	825.5
746.509	407.72
746.702	168.1
746.894	198.82
747.086	452.77
747.278	612.51
747.471	424.1
747.663	204.97
747.855	352.42
748.047	764.06
748.239	59.56
748.431	39.08
748.623	714.91
748.815	768.16
749.008	39.08
749.2	26.79
749.392	485.54
749.584	501.92
749.776	166.06
749.968	178.34
750.16	882.85
750.352	327.85
750.544	229.54
750.736	77.99
750.928	530.59
751.12	264.36
751.311	133.29
751.503	145.58
751.695	465.06
751.887	368.81
752.079	-71.51
752.271	241.83
752.463	1161.37
752.654	508.07
752.846	229.54
753.038	170.15
753.23	151.72
753.421	503.97
753.613	147.62
753.805	305.32
753.997	620.71
754.188	598.18
754.38	71.85
754.572	174.25
754.763	327.85
754.955	420
755.146	227.5
755.338	256.17
755.53	379.04
755.721	315.56
755.913	47.27
756.104	69.8
756.296	276.65
756.487	583.84
756.679	94.38
756.87	133.29
757.062	307.37
757.253	542.88
757.445	161.96
757.636	295.08
757.827	295.08
758.019	1075.35
758.21	34.99
758.401	137.38
758.593	850.08
758.784	686.24
758.975	80.04
759.167	30.89
759.358	387.24
759.549	608.42
759.74	174.25
759.932	161.96
760.123	678.05
760.314	305.32
760.505	274.6
760.696	114.86
760.888	821.41
761.079	370.85
761.27	159.91
761.461	-57.17
761.652	825.5
761.843	327.85
762.034	211.11
762.225	442.53
762.416	467.11
762.607	469.16
762.798	198.82
762.989	104.62
763.18	1161.37
763.371	305.32
763.562	39.08
763.753	172.2
763.944	616.61
764.135	696.48
764.326	262.31
764.517	168.1
764.708	557.22
764.899	561.31
765.089	215.21
765.28	-12.12
765.471	393.38
765.662	512.16
765.853	262.31
766.043	47.27
766.234	696.48
766.425	719.01
766.615	196.78
766.806	39.08
766.997	733.34
767.187	489.64
767.378	106.67
767.569	-75.6
767.759	526.5
767.95	407.72
768.141	327.85
768.331	98.47
768.522	391.33
768.712	643.23
768.903	30.89
769.093	118.95
769.284	843.93
769.474	596.13
769.665	-5.97
769.855	-28.5
770.046	534.69
770.236	301.22
770.426	301.22
770.617	131.24
770.807	553.12
770.998	344.23
771.188	329.89
771.378	170.15
771.569	542.88
771.759	626.85
771.949	47.27
772.139	-106.32
772.33	530.59
772.52	854.17
772.71	170.15
772.9	-10.07
773.09	897.18
773.281	714.91
773.471	141.48
773.661	71.85
773.851	620.71
774.041	399.52
774.231	90.28
774.421	319.65
774.611	719.01
774.802	424.1
774.992	180.39
775.182	94.38
775.372	446.63
775.562	565.41
775.752	188.58
775.942	108.71
776.131	768.16
776.321	579.75
776.511	129.19
776.701	47.27
776.891	727.2
777.081	258.21
777.271	229.54
777.461	143.53
777.651	661.66
777.84	678.05
778.03	333.99
778.22	168.1
778.41	661.66
778.599	237.74
778.789	231.59
778.979	10.41
779.169	606.37
779.358	385.19
779.548	417.96
779.738	26.79
779.927	503.97
780.117	196.78
780.307	172.2
780.496	-61.27
780.686	549.03
780.875	948.38
781.065	153.77
781.254	121
781.444	465.06
781.633	551.07
781.823	139.43
782.012	69.8
782.202	338.09
782.391	356.52
782.581	6.31
782.77	391.33
782.96	688.29
783.149	420
783.338	168.1
783.528	-10.07
783.717	612.51
783.906	714.91
784.096	356.52
784.285	102.57
784.474	321.7
784.663	247.97
784.853	213.16
785.042	155.82
785.231	325.8
785.42	659.62
785.61	256.17
785.799	116.9
785.988	366.76
786.177	426.15
786.366	192.68
786.555	366.76
786.744	690.34
786.933	442.53
787.122	157.86
787.312	26.79
787.501	336.04
787.69	481.44
787.879	155.82
788.068	178.34
788.257	147.62
788.445	366.76
788.634	219.3
788.823	-14.17
789.012	1036.44
789.201	837.79
789.39	305.32
789.579	190.63
789.768	401.57
789.957	399.52
790.145	182.44
790.334	-130.9
790.523	366.76
790.712	415.91
790.9	231.59
791.089	77.99
791.278	702.62
791.467	487.59
791.655	465.06
791.844	751.78
792.033	233.64
792.221	456.87
792.41	223.4
792.599	127.14
792.787	594.08
792.976	616.61
793.164	45.23
793.353	278.69
793.541	669.86
793.73	534.69
793.918	223.4
794.107	194.73
794.295	518.31
794.484	532.64
794.672	202.92
794.861	235.69
795.049	637.09
795.238	954.52
795.426	57.51
795.614	252.07
795.803	589.99
795.991	768.16
796.179	176.3
796.368	239.78
796.556	845.98
796.744	235.69
796.932	202.92
797.121	100.52
797.309	465.06
797.497	661.66
797.685	139.43
797.874	139.43
798.062	327.85
798.25	874.65
798.438	159.91
798.626	194.73
798.814	561.31
799.002	923.8
799.19	432.29
799.378	225.45
799.566	692.38
799.755	817.31
799.943	428.2
800.131	219.3
800.318	522.4
800.506	612.51
800.694	194.73
800.882	331.94
801.07	794.78
801.258	473.25
801.446	252.07
801.634	161.96
801.822	403.62
802.01	465.06
802.197	223.4
802.385	479.4
802.573	563.36
802.761	284.84
802.949	319.65
803.136	112.81
803.324	805.02
803.512	475.3
803.699	327.85
803.887	98.47
804.075	833.69
804.262	395.43
804.45	153.77
804.638	303.27
804.825	213.16
805.013	436.39
805.201	260.26
805.388	86.19
805.576	604.32
805.763	850.08
805.951	297.13
806.138	450.72
806.326	981.15
806.513	694.43
806.701	252.07
806.888	227.5
807.075	546.98
807.263	997.53
807.45	159.91
807.638	387.24
807.825	911.52
808.012	755.87
808.2	297.13
808.387	489.64
808.574	653.47
808.761	854.17
808.949	149.67
809.136	342.18
809.323	397.48
809.51	417.96
809.698	551.07
809.885	561.31
810.072	612.51
810.259	884.89
810.446	364.71
810.633	213.16
810.82	852.13
811.008	899.23
811.195	393.38
811.382	340.13
811.569	460.96
811.756	315.56
811.943	276.65
812.13	209.06
812.317	438.44
812.504	417.96
812.691	366.76
812.878	272.55
813.064	977.05
813.251	608.42
813.438	86.19
813.625	450.72
813.812	540.83
813.999	489.64
814.186	333.99
814.372	377
814.559	565.41
814.746	909.47
814.933	424.1
815.12	456.87
815.306	460.96
815.493	401.57
815.68	274.6
815.866	340.13
816.053	811.17
816.24	1097.88
816.426	426.15
816.613	147.62
816.799	821.41
816.986	790.69
817.173	325.8
817.359	299.17
817.546	688.29
817.732	315.56
817.919	114.86
818.105	317.61
818.292	522.4
818.478	735.39
818.665	407.72
818.851	295.08
819.037	1224.86
819.224	514.21
819.41	196.78
819.597	297.13
819.783	946.33
819.969	770.21
820.156	372.9
820.342	235.69
820.528	1247.38
820.714	456.87
820.901	571.55
821.087	393.38
821.273	972.96
821.459	524.45
821.646	225.45
821.832	190.63
822.018	596.13
822.204	653.47
822.39	237.74
822.576	213.16
822.762	620.71
822.948	712.86
823.134	479.4
823.32	354.47
823.507	440.48
823.693	657.57
823.879	665.76
824.065	260.26
824.25	688.29
824.436	321.7
824.622	264.36
824.808	123.05
824.994	493.73
825.18	336.04
825.366	190.63
825.552	274.6
825.738	600.23
825.923	870.56
826.109	471.2
826.295	336.04
826.481	489.64
826.667	465.06
826.852	401.57
827.038	307.37
827.224	792.73
827.409	956.57
827.595	139.43
827.781	530.59
827.966	917.66
828.152	891.04
828.338	333.99
828.523	268.45
828.709	432.29
828.894	850.08
829.08	409.76
829.266	223.4
829.451	542.88
829.637	686.24
829.822	454.82
830.008	309.41
830.193	960.67
830.378	1044.63
830.564	422.05
830.749	243.88
830.935	735.39
831.12	755.87
831.305	288.93
831.491	465.06
831.676	370.85
831.861	821.41
832.047	311.46
832.232	264.36
832.417	899.23
832.602	665.76
832.788	288.93
832.973	250.02
833.158	546.98
833.343	663.71
833.528	372.9
833.714	368.81
833.899	815.26
834.084	1038.49
834.269	557.22
834.454	397.48
834.639	862.37
834.824	575.65
835.009	587.94
835.194	475.3
835.379	866.46
835.564	977.05
835.749	518.31
835.934	354.47
836.119	907.42
836.304	583.84
836.489	360.61
836.674	678.05
836.859	364.71
837.044	960.67
837.228	299.17
837.413	297.13
837.598	727.2
837.783	866.46
837.968	458.92
838.152	280.74
838.337	186.54
838.522	1024.16
838.707	809.12
838.891	567.46
839.076	864.41
839.261	852.13
839.445	465.06
839.63	391.33
839.815	1083.55
839.999	542.88
840.184	356.52
840.368	444.58
840.553	817.31
840.737	915.61
840.922	323.75
841.106	317.61
841.291	342.18
841.475	729.25
841.66	313.51
841.844	413.86
842.029	1353.88
842.213	401.57
842.397	467.11
842.582	340.13
842.766	993.44
842.951	854.17
843.135	350.37
843.319	372.9
843.504	643.23
843.688	843.93
843.872	237.74
844.056	262.31
844.241	759.97
844.425	581.79
844.609	499.88
844.793	235.69
844.977	831.65
845.161	684.19
845.346	325.8
845.53	399.52
845.714	592.03
845.898	1136.79
846.082	225.45
846.266	456.87
846.45	616.61
846.634	596.13
846.818	352.42
847.002	493.73
847.186	809.12
847.37	428.2
847.554	342.18
847.738	544.93
847.922	751.78
848.106	708.77
848.29	315.56
848.473	403.62
848.657	762.02
848.841	608.42
849.025	432.29
849.209	209.06
849.392	766.11
849.576	655.52
849.76	118.95
849.944	551.07
850.127	1026.2
850.311	342.18
850.495	309.41
850.678	241.83
850.862	972.96
851.046	1030.3
851.229	667.81
851.413	352.42
851.596	657.57
851.78	682.14
851.964	643.23
852.147	393.38
852.331	1370.26
852.514	888.99
852.698	544.93
852.881	172.2
853.065	952.48
853.248	614.56
853.431	555.17
853.615	485.54
853.798	1239.19
853.982	749.73
854.165	520.35
854.348	338.09
854.532	524.45
854.715	508.07
854.898	417.96
855.081	401.57
855.265	1065.11
855.448	1073.31
855.631	440.48
855.814	413.86
855.997	878.75
856.181	516.26
856.364	458.92
856.547	262.31
856.73	741.54
856.913	710.82
857.096	258.21
857.279	526.5
857.462	612.51
857.645	907.42
857.828	477.35
858.011	544.93
858.194	583.84
858.377	819.36
858.56	272.55
858.743	391.33
858.926	377
859.109	796.83
859.292	288.93
859.475	278.69
859.658	1003.68
859.841	833.69
860.023	274.6
860.206	245.93
860.389	696.48
860.572	1069.21
860.755	403.62
860.937	286.89
861.12	612.51
861.303	721.06
861.486	546.98
861.668	290.98
861.851	899.23
862.034	751.78
862.216	463.01
862.399	237.74
862.581	792.73
862.764	1091.74
862.947	479.4
863.129	311.46
863.312	426.15
863.494	1126.55
863.677	759.97
863.859	202.92
864.042	866.46
864.224	987.29
864.406	587.94
864.589	264.36
864.771	805.02
864.954	458.92
865.136	436.39
865.318	176.3
865.501	815.26
865.683	264.36
865.865	430.24
866.048	377
866.23	788.64
866.412	714.91
866.594	321.7
866.777	524.45
866.959	821.41
867.141	532.64
867.323	612.51
867.505	583.84
867.687	878.75
867.869	694.43
868.052	458.92
868.234	295.08
868.416	719.01
868.598	802.97
868.78	411.81
868.962	327.85
869.144	938.14
869.326	874.65
869.508	364.71
869.69	450.72
869.872	532.64
870.054	944.28
870.236	252.07
870.417	372.9
870.599	602.27
870.781	1056.92
870.963	626.85
871.145	280.74
871.327	444.58
871.508	905.37
871.69	399.52
871.872	440.48
872.054	565.41
872.235	774.3
872.417	540.83
872.599	364.71
872.78	1138.84
872.962	776.35
873.144	266.41
873.325	413.86
873.507	1159.32
873.689	821.41
873.87	315.56
874.052	538.79
874.233	632.99
874.415	1065.11
874.596	393.38
874.778	379.04
874.959	733.34
875.141	929.95
875.322	422.05
875.503	370.85
875.685	800.93
875.866	344.23
876.048	297.13
876.229	268.45
876.41	635.04
876.592	784.54
876.773	456.87
876.954	356.52
877.136	1061.02
877.317	637.09
877.498	319.65
877.679	510.11
877.86	784.54
878.042	774.3
878.223	454.82
878.404	749.73
878.585	909.47
878.766	1106.07
878.947	655.52
879.128	606.37
879.309	845.98
879.49	972.96
879.672	532.64
879.853	481.44
880.034	542.88
880.215	714.91
880.396	536.74
880.576	403.62
880.757	538.79
880.938	1001.63
881.119	372.9
881.3	420
881.481	506.02
881.662	1530
881.843	245.93
882.023	299.17
882.204	764.06
882.385	762.02
882.566	389.28
882.747	422.05
882.927	751.78
883.108	751.78
883.289	432.29
883.469	647.33
883.65	598.18
883.831	770.21
884.011	669.86
884.192	417.96
884.373	897.18
884.553	802.97
884.734	606.37
884.914	784.54
885.095	1482.9
885.275	1181.85
885.456	739.49
885.636	354.47
885.817	786.59
885.997	721.06
886.178	475.3
886.358	501.92
886.538	759.97
886.719	1865.87
886.899	553.12
887.08	522.4
887.26	1001.63
887.44	534.69
887.621	415.91
887.801	673.95
887.981	1347.73
888.161	960.67
888.342	501.92
888.522	542.88
888.702	1015.96
888.882	1142.94
889.062	573.6
889.242	354.47
889.423	1190.04
889.603	966.81
889.783	759.97
889.963	415.91
890.143	923.8
890.323	1144.99
890.503	516.26
890.683	544.93
890.863	831.65
891.043	768.16
891.223	622.75
891.403	690.34
891.583	759.97
891.763	852.13
891.943	577.7
892.122	493.73
892.302	895.13
892.482	725.15
892.662	639.14
892.842	592.03
893.022	927.9
893.201	637.09
893.381	747.68
893.561	530.59
893.741	1032.35
893.92	932
894.1	653.47
894.28	596.13
894.459	1183.9
894.639	917.66
894.819	551.07
894.998	649.38
895.178	903.32
895.357	848.03
895.537	493.73
895.716	532.64
895.896	899.23
896.075	1206.42
896.255	587.94
896.434	391.33
896.614	981.15
896.793	1183.9
896.973	710.82
897.152	692.38
897.331	958.62
897.511	1116.31
897.69	444.58
897.87	706.72
898.049	1022.11
898.228	778.4
898.407	825.5
898.587	710.82
898.766	698.53
898.945	1089.69
899.124	874.65
899.304	721.06
899.483	1042.59
899.662	1333.4
899.841	530.59
900.02	514.21
900.199	1151.13
900.378	948.38
900.557	477.35
900.737	526.5
900.916	1030.3
901.095	1034.39
901.274	968.86
901.453	428.2
901.632	637.09
901.811	811.17
901.989	551.07
902.168	493.73
902.347	1036.44
902.526	798.88
902.705	669.86
902.884	704.67
903.063	1157.27
903.242	1243.29
903.42	516.26
903.599	741.54
903.778	1089.69
903.957	1165.46
904.135	735.39
904.314	749.73
904.493	880.8
904.672	1022.11
904.85	661.66
905.029	665.76
905.207	1028.25
905.386	1564.82
905.565	522.4
905.743	549.03
905.922	837.79
906.1	1181.85
906.279	489.64
906.457	571.55
906.636	751.78
906.814	719.01
906.993	628.9
907.171	614.56
907.35	977.05
907.528	987.29
907.707	813.21
907.885	489.64
908.063	1323.16
908.242	635.04
908.42	692.38
908.598	420
908.777	1028.25
908.955	676
909.133	671.9
909.311	477.35
909.49	809.12
909.668	819.36
909.846	641.18
910.024	336.04
910.202	819.36
910.38	975
910.559	544.93
910.737	483.49
910.915	938.14
911.093	993.44
911.271	538.79
911.449	809.12
911.627	1030.3
911.805	1366.17
911.983	546.98
912.161	592.03
912.339	952.48
912.517	1210.52
912.695	731.3
912.872	688.29
913.05	727.2
913.228	966.81
913.406	635.04
913.584	508.07
913.762	979.1
913.939	733.34
914.117	522.4
914.295	559.27
914.473	940.19
914.65	1003.68
914.828	581.79
915.006	475.3
915.184	544.93
915.361	977.05
915.539	682.14
915.716	886.94
915.894	960.67
916.072	1046.68
916.249	802.97
916.427	755.87
916.604	637.09
916.782	1034.39
916.959	485.54
917.137	567.46
917.314	934.04
917.492	1038.49
917.669	819.36
917.847	719.01
918.024	1052.83
918.201	676
918.379	665.76
918.556	661.66
918.733	1015.96
918.911	829.6
919.088	938.14
919.265	563.36
919.442	919.71
919.62	868.51
919.797	522.4
919.974	579.75
920.151	895.13
920.328	772.25
920.506	553.12
920.683	790.69
920.86	589.99
921.037	686.24
921.214	571.55
921.391	536.74
921.568	995.48
921.745	639.14
921.922	649.38
922.099	532.64
922.276	1030.3
922.453	862.37
922.63	528.55
922.807	923.8
922.984	891.04
923.161	669.86
923.338	680.1
923.514	424.1
923.691	800.93
923.868	884.89
924.045	520.35
924.222	499.88
924.399	866.46
924.575	1108.12
924.752	632.99
924.929	571.55
925.105	972.96
925.282	616.61
925.459	606.37
925.635	665.76
925.812	850.08
925.989	764.06
926.165	657.57
926.342	370.85
926.518	563.36
926.695	723.1
926.871	501.92
927.048	379.04
927.224	1110.17
927.401	596.13
927.577	682.14
927.754	424.1
927.93	1036.44
928.107	944.28
928.283	524.45
928.459	682.14
928.636	899.23
928.812	694.43
928.988	506.02
929.165	358.57
929.341	751.78
929.517	850.08
929.693	858.27
929.87	379.04
930.046	917.66
930.222	647.33
930.398	456.87
930.574	581.79
930.751	800.93
930.927	663.71
931.103	534.69
931.279	544.93
931.455	534.69
931.631	870.56
931.807	301.22
931.983	454.82
932.159	358.57
932.335	753.82
932.511	514.21
932.687	436.39
932.863	800.93
933.039	751.78
933.215	325.8
933.391	204.97
933.566	719.01
933.742	688.29
933.918	448.68
934.094	290.98
934.27	682.14
934.445	749.73
934.621	565.41
934.797	407.72
934.973	915.61
935.148	770.21
935.324	338.09
935.5	135.34
935.675	835.74
935.851	676
936.027	393.38
936.202	473.25
936.378	766.11
936.553	540.83
936.729	809.12
936.904	344.23
937.08	409.76
937.255	485.54
937.431	327.85
937.606	239.78
937.782	520.35
937.957	622.75
938.133	354.47
938.308	260.26
938.483	559.27
938.659	381.09
938.834	311.46
939.009	254.12
939.185	536.74
939.36	356.52
939.535	10.41
939.71	370.85
939.886	825.5
940.061	700.58
940.236	407.72
940.411	258.21
940.586	604.32
940.761	649.38
940.937	266.41
941.112	170.15
941.287	546.98
941.462	471.2
941.637	153.77
941.812	303.27
941.987	530.59
942.162	471.2
942.337	399.52
942.512	272.55
942.687	686.24
942.862	622.75
943.037	47.27
943.212	-51.03
943.386	344.23
943.561	448.68
943.736	360.61
943.911	493.73
944.086	561.31
944.26	434.34
944.435	215.21
944.61	319.65
944.785	698.53
944.959	927.9
945.134	233.64
945.309	90.28
945.483	211.11
945.658	694.43
945.833	-51.03
946.007	-8.02
946.182	772.25
946.357	170.15
946.531	121
946.706	213.16
946.88	141.48
947.055	483.49
947.229	127.14
947.404	98.47
947.578	653.47
947.752	270.5
947.927	26.79
948.101	32.94
948.276	413.86
948.45	493.73
948.624	374.95
948.799	147.62
948.973	501.92
949.147	100.52
949.321	207.02
949.496	178.34
949.67	698.53
949.844	340.13
950.018	280.74
950.193	196.78
950.367	932
950.541	364.71
950.715	250.02
950.889	293.03
951.063	364.71
951.237	632.99
951.411	-53.08
951.585	51.37
951.759	487.59
951.933	374.95
952.107	131.24
952.281	350.37
952.455	749.73
952.629	565.41
952.803	127.14
952.977	82.09
953.151	569.51
953.325	442.53
953.499	338.09
953.672	43.18
953.846	219.3
954.02	274.6
954.194	106.67
954.368	182.44
954.541	501.92
954.715	282.79
954.889	272.55
955.062	88.23
955.236	395.43
955.41	368.81
955.583	360.61
955.757	92.33
955.93	235.69
956.104	141.48
956.278	157.86
956.451	170.15
956.625	508.07
956.798	845.98
956.972	438.44
957.145	28.84
957.319	329.89
957.492	282.79
957.665	329.89
957.839	112.81
958.012	471.2
958.185	245.93
958.359	221.35
958.532	313.51
958.705	622.75
958.879	542.88
959.052	245.93
959.225	-30.55
959.398	407.72
959.572	452.77
959.745	106.67
959.918	202.92
960.091	344.23
960.264	475.3
960.438	71.85
960.611	102.57
960.784	594.08
960.957	200.87
961.13	512.16
961.303	94.38
961.476	405.67
961.649	565.41
961.822	96.43
961.995	211.11
962.168	444.58
962.341	409.76
962.514	161.96
962.686	153.77
962.859	456.87
963.032	516.26
963.205	145.58
963.378	-22.36
963.551	405.67
963.723	409.76
963.896	272.55
964.069	293.03
964.242	415.91
964.414	637.09
964.587	266.41
964.76	204.97
964.932	403.62
965.105	342.18
965.278	157.86
965.45	71.85
965.623	485.54
965.795	592.03
965.968	170.15
966.14	170.15
966.313	358.57
966.485	415.91
966.658	131.24
966.83	37.03
967.003	686.24
967.175	618.66
967.348	112.81
967.52	182.44
967.692	741.54
967.865	544.93
968.037	157.86
968.209	510.11
968.382	424.1
968.554	628.9
968.726	239.78
968.898	106.67
969.071	489.64
969.243	571.55
969.415	231.59
969.587	317.61
969.759	899.23
969.932	546.98
970.104	278.69
970.276	-87.89
970.448	288.93
970.62	344.23
970.792	379.04
970.964	211.11
971.136	874.65
971.308	506.02
971.48	127.14
971.652	55.47
971.824	829.6
971.996	272.55
972.168	211.11
972.339	223.4
972.511	559.27
972.683	204.97
972.855	413.86
973.027	188.58
973.199	407.72
973.37	549.03
973.542	295.08
973.714	411.81
973.886	374.95
974.057	604.32
974.229	110.76
974.401	100.52
974.572	190.63
974.744	-24.4
974.915	82.09
975.087	71.85
975.259	653.47
975.43	272.55
975.602	141.48
975.773	-26.45
975.945	262.31
976.116	477.35
976.288	86.19
976.459	270.5
976.63	321.7
976.802	456.87
976.973	110.76
977.145	323.75
977.316	739.49
977.487	512.16
977.659	288.93
977.83	219.3
978.001	764.06
978.172	473.25
978.344	80.04
978.515	180.39
978.686	247.97
978.857	686.24
979.028	180.39
979.2	86.19
979.371	612.51
979.542	374.95
979.713	319.65
979.884	-139.09
980.055	262.31
980.226	325.8
980.397	22.7
980.568	18.6
980.739	577.7
980.91	336.04
981.081	333.99
981.252	41.13
981.423	473.25
981.594	676
981.765	63.66
981.936	241.83
982.106	409.76
982.277	628.9
982.448	166.06
982.619	245.93
982.79	266.41
982.96	696.48
983.131	321.7
983.302	-24.4
983.472	286.89
983.643	403.62
983.814	258.21
983.984	106.67
984.155	317.61
984.326	665.76
984.496	245.93
984.667	110.76
984.837	233.64
985.008	678.05
985.178	430.24
985.349	229.54
985.519	420
985.69	207.02
985.86	129.19
986.031	8.36
986.201	473.25
986.371	538.79
986.542	41.13
986.712	-116.56
986.882	561.31
987.053	436.39
987.223	34.99
987.393	233.64
987.563	276.65
987.734	506.02
987.904	477.35
988.074	51.37
988.244	452.77
988.414	241.83
988.585	145.58
988.755	272.55
988.925	293.03
989.095	764.06
989.265	80.04
989.435	186.54
989.605	479.4
989.775	546.98
989.945	420
990.115	22.7
990.285	364.71
990.455	401.57
990.625	202.92
990.795	-14.17
990.965	735.39
991.134	239.78
991.304	84.14
991.474	-18.26
991.644	501.92
991.814	624.8
991.984	6.31
992.153	-14.17
992.323	245.93
992.493	383.14
992.662	-165.71
992.832	235.69
993.002	405.67
993.171	397.48
993.341	-87.89
993.511	331.94
993.68	166.06
993.85	549.03
994.019	-57.17
994.189	-1.88
994.358	385.19
994.528	217.26
994.697	-167.76
994.867	6.31
995.036	506.02
995.206	211.11
995.375	-14.17
995.544	194.73
995.714	389.28
995.883	235.69
996.052	108.71
996.222	-112.47
996.391	813.21
996.56	374.95
996.73	-55.12
996.899	-77.65
997.068	620.71
997.237	288.93
997.406	6.31
997.576	-186.19
997.745	440.48
997.914	358.57
998.083	-249.68
998.252	65.71
998.421	327.85
998.59	166.06
998.759	2.22
998.928	-124.76
999.097	567.46
999.266	395.43
999.435	137.38
999.604	-106.32
999.773	823.45
999.942	321.7
1000.111	-126.8
1000.28	-231.25
1000.448	137.38
1000.617	84.14
1000.786	219.3
1000.955	-190.29
1001.124	268.45
1001.292	993.44
1001.461	-42.84
1001.63	-94.04
1001.798	778.4
1001.967	557.22
1002.136	-184.15
1002.304	-89.94
1002.473	333.99
1002.642	370.85
1002.81	121
1002.979	-30.55
1003.147	506.02
1003.316	862.37
1003.484	34.99
1003.653	26.79
1003.821	493.73
1003.99	196.78
1004.158	135.34
1004.327	16.55
1004.495	368.81
1004.663	149.67
1004.832	80.04
1005	-149.33
1005.168	428.2
1005.337	387.24
1005.505	-251.73
1005.673	161.96
1005.842	477.35
1006.01	510.11
1006.178	-180.05
1006.346	69.8
1006.514	383.14
1006.683	587.94
1006.851	-85.84
1007.019	-135
1007.187	104.62
1007.355	-175.95
1007.523	-198.48
1007.691	-159.57
1007.859	-51.03
1008.027	546.98
1008.195	6.31
1008.363	-157.52
1008.531	465.06
1008.699	127.14
1008.867	-204.63
1009.035	-155.47
1009.203	600.23
1009.37	358.57
1009.538	2.22
1009.706	368.81
1009.874	313.51
1010.042	237.74
1010.209	-210.77
1010.377	-165.71
1010.545	434.34
1010.713	239.78
1010.88	-102.23
1011.048	-46.93
1011.216	145.58
1011.383	669.86
1011.551	-53.08
1011.718	-206.67
1011.886	499.88
1012.054	274.6
1012.221	-48.98
1012.389	-198.48
1012.556	278.69
1012.724	688.29
1012.891	-79.7
1013.058	-231.25
1013.226	508.07
1013.393	387.24
1013.561	-198.48
1013.728	-200.53
1013.895	477.35
1014.063	452.77
1014.23	-210.77
1014.397	-190.29
1014.565	493.73
1014.732	180.39
1014.899	-157.52
1015.066	-247.63
1015.233	309.41
1015.401	436.39
1015.568	-26.45
1015.735	-26.45
1015.902	198.82
1016.069	346.28
1016.236	-73.56
1016.403	-169.81
1016.57	88.23
1016.737	395.43
1016.904	-65.36
1017.071	-182.1
1017.238	77.99
1017.405	387.24
1017.572	-100.18
1017.739	80.04
1017.906	399.52
1018.073	501.92
1018.24	-196.43
1018.407	53.42
1018.573	563.36
1018.74	137.38
1018.907	-98.13
1019.074	-270.16
1019.241	508.07
1019.407	309.41
1019.574	-223.06
1019.741	-173.91
1019.907	264.36
1020.074	409.76
1020.241	-327.5
1020.407	-249.68
1020.574	356.52
1020.74	385.19
1020.907	-59.22
1021.073	-188.24
1021.24	706.72
1021.406	571.55
1021.573	-112.47
1021.739	-196.43
1021.906	487.59
1022.072	356.52
1022.239	-202.58
1022.405	-100.18
1022.571	315.56
1022.738	104.62
1022.904	-89.94
1023.07	-100.18
1023.237	321.7
1023.403	424.1
1023.569	-120.66
1023.735	-75.6
1023.902	272.55
1024.068	333.99
1024.234	-163.67
1024.4	-149.33
1024.566	348.33
1024.732	358.57
1024.898	-149.33
1025.065	-225.11
1025.231	428.2
1025.397	-3.93
1025.563	-44.88
1025.729	-161.62
1025.895	-184.15
1026.061	43.18
1026.227	-259.92
1026.392	-204.63
1026.558	493.73
1026.724	346.28
1026.89	-204.63
1027.056	-59.22
1027.222	360.61
1027.388	202.92
1027.553	-196.43
1027.719	-110.42
1027.885	643.23
1028.051	366.76
1028.216	-327.5
1028.382	-83.8
1028.548	430.24
1028.713	116.9
1028.879	-231.25
1029.045	-16.21
1029.21	559.27
1029.376	532.64
1029.541	-87.89
1029.707	-71.51
1029.873	358.57
1030.038	471.2
1030.204	-182.1
1030.369	-98.13
1030.534	374.95
1030.7	73.9
1030.865	-155.47
1031.031	-229.2
1031.196	266.41
1031.361	229.54
1031.527	-106.32
1031.692	-253.78
1031.857	-169.81
1032.023	432.29
1032.188	-243.54
1032.353	-190.29
1032.518	614.56
1032.684	239.78
1032.849	-339.79
1033.014	-128.85
1033.179	411.81
1033.344	327.85
1033.509	-83.8
1033.674	-151.38
1033.839	360.61
1034.004	374.95
1034.17	-124.76
1034.335	-286.54
1034.5	129.19
1034.664	43.18
1034.829	-200.53
1034.994	-145.24
1035.159	313.51
1035.324	262.31
1035.489	-85.84
1035.654	-190.29
1035.819	485.54
1035.984	331.94
1036.148	-163.67
1036.313	-116.56
1036.478	420
1036.643	252.07
1036.807	-182.1
1036.972	-261.97
1037.137	493.73
1037.301	245.93
1037.466	-378.7
1037.631	-71.51
1037.795	530.59
1037.96	297.13
1038.124	77.99
1038.289	-237.39
1038.454	403.62
1038.618	313.51
1038.783	-165.71
1038.947	-44.88
1039.111	256.17
1039.276	96.43
1039.44	-210.77
1039.605	235.69
1039.769	200.87
1039.933	110.76
1040.098	-96.08
1040.262	49.32
1040.426	413.86
1040.591	354.47
1040.755	-202.58
1040.919	-214.87
1041.083	340.13
1041.248	225.45
1041.412	-300.88
1041.576	-225.11
1041.74	250.02
1041.904	446.63
1042.068	-243.54
1042.232	-81.75
1042.397	379.04
1042.561	301.22
1042.725	-354.13
1042.889	-1.88
1043.053	458.92
1043.217	346.28
1043.381	-24.4
1043.544	-223.06
1043.708	485.54
1043.872	37.03
1044.036	-427.85
1044.2	-212.82
1044.364	497.83
1044.528	561.31
1044.691	4708.45
1044.855	-362.32
1045.019	450.72
1045.183	311.46
1045.346	-63.32
1045.51	-257.87
1045.674	436.39
1045.837	413.86
1046.001	-69.46
1046.165	-231.25
1046.328	747.68
1046.492	313.51
1046.655	39.08
1046.819	-18.26
1046.983	14.51
1047.146	342.18
1047.31	-81.75
1047.473	-309.07
1047.636	258.21
1047.8	71.85
1047.963	-227.15
1048.127	-229.2
1048.29	61.61
