Data from Ink_Intensity_USB4F045381__20__00020.txt Node

Date: Mon Jul 17 09:38:52 EDT 2023
User: mmckonesweet
Spectrometer: USB4F04538
Trigger mode: 4
Integration Time (sec): 9.000000E-1
Scans to average: 1
Electric dark correction enabled: true
Nonlinearity correction enabled: false
Boxcar width: 0
XAxis mode: Wavelengths
Number of Pixels in Spectrum: 3648
>>>>>Begin Spectral Data<<<<<
345.52	-920.39
345.736	-920.39
345.952	-920.39
346.168	-990.02
346.384	-899.91
346.6	-101.2
346.816	-240.47
347.032	-109.4
347.248	183.46
347.464	-117.59
347.68	-82.77
347.896	97.45
348.112	353.45
348.328	-11.09
348.544	-125.78
348.76	-45.91
348.975	199.85
349.191	-187.22
349.407	-144.21
349.623	7.34
349.839	-140.12
350.055	-23.38
350.27	36.01
350.486	208.04
350.702	347.3
350.918	119.98
351.133	-230.23
351.349	87.21
351.565	341.16
351.781	-191.31
351.996	19.63
352.212	367.78
352.428	-121.68
352.644	-219.99
352.859	-228.18
353.075	298.15
353.291	-52.05
353.506	-50
353.722	-226.13
353.938	-68.44
354.153	457.89
354.369	158.89
354.584	-152.4
354.8	246.95
355.016	-293.71
355.231	-156.5
355.447	-76.63
355.662	48.3
355.878	863.39
356.093	-330.58
356.309	25.77
356.524	-172.88
356.74	265.38
356.955	-103.25
357.171	-9.05
357.386	38.06
357.602	-267.09
357.817	-76.63
358.033	-133.97
358.248	341.16
358.464	103.59
358.679	-129.88
358.895	-324.43
359.11	13.48
359.325	363.69
359.541	257.19
359.756	148.65
359.972	-267.09
360.187	220.33
360.402	-203.6
360.618	-138.07
360.833	976.03
361.048	60.59
361.264	-99.16
361.479	-62.29
361.694	-21.33
361.909	113.83
362.125	-215.89
362.34	-154.45
362.555	181.42
362.77	11.43
362.986	-226.13
363.201	-131.92
363.416	68.78
363.631	-2.9
363.847	-117.59
364.062	-105.3
364.277	169.13
364.492	146.6
364.707	-97.11
364.922	-328.53
365.138	214.18
365.353	271.53
365.568	-215.89
365.783	-136.02
365.998	103.59
366.213	472.23
366.428	-205.65
366.643	64.68
366.858	259.24
367.073	160.94
367.288	-86.87
367.503	-250.71
367.718	11.43
367.933	335.01
368.148	-277.33
368.363	-39.76
368.578	-78.68
368.793	400.55
369.008	-154.45
369.223	-133.97
369.438	197.8
369.653	433.32
369.868	-201.55
370.083	-191.31
370.298	48.3
370.513	339.11
370.728	56.49
370.943	-244.56
371.157	-136.02
371.372	429.22
371.587	-238.42
371.802	-242.51
372.017	23.72
372.232	507.04
372.446	-74.58
372.661	-246.61
372.876	165.03
373.091	111.78
373.306	-156.5
373.52	-228.18
373.735	-256.85
373.95	326.82
374.165	-125.78
374.379	-148.31
374.594	-127.83
374.809	72.87
375.023	122.02
375.238	-189.27
375.453	187.56
375.667	-234.32
375.882	-113.49
376.097	-238.42
376.311	9.39
376.526	7.34
376.741	-215.89
376.955	62.63
377.17	601.25
377.384	507.04
377.599	-113.49
377.813	-232.27
378.028	515.23
378.242	165.03
378.457	-27.48
378.672	-306
378.886	158.89
379.101	1.19
379.315	-320.34
379.53	-121.68
379.744	138.41
379.958	140.46
380.173	-97.11
380.387	-72.53
380.602	101.55
380.816	-103.25
381.031	-156.5
381.245	-74.58
381.459	60.59
381.674	2454.66
381.888	-82.77
382.103	179.37
382.317	-162.64
382.531	441.51
382.746	-2.9
382.96	-101.2
383.174	-113.49
383.388	404.64
383.603	122.02
383.817	-242.51
384.031	81.07
384.246	412.84
384.46	-29.52
384.674	398.5
384.888	42.15
385.103	23.72
385.317	-232.27
385.531	-62.29
385.745	285.86
385.959	306.34
386.174	-158.55
386.388	-226.13
386.602	-88.92
386.816	-125.78
387.03	-0.85
387.244	-2.9
387.458	-88.92
387.672	298.15
387.887	-228.18
388.101	-191.31
388.315	306.34
388.529	154.79
388.743	-97.11
388.957	-170.83
389.171	304.29
389.385	-156.5
389.599	-113.49
389.813	144.55
390.027	169.13
390.241	634.02
390.455	-41.81
390.669	-109.4
390.883	-60.24
391.097	298.15
391.311	38.06
391.525	-168.79
391.738	189.61
391.952	199.85
392.166	-0.85
392.38	-179.03
392.594	279.72
392.808	314.53
393.022	-45.91
393.236	-150.36
393.449	132.26
393.663	175.27
393.877	-168.79
394.091	-50
394.305	-121.68
394.518	-154.45
394.732	-187.22
394.946	-142.16
395.16	349.35
395.373	83.11
395.587	-187.22
395.801	-183.12
396.015	214.18
396.228	167.08
396.442	-228.18
396.656	-318.29
396.869	269.48
397.083	380.07
397.297	-56.15
397.51	-183.12
397.724	335.01
397.938	95.4
398.151	-197.46
398.365	-228.18
398.578	169.13
398.792	378.02
399.005	36.01
399.219	-74.58
399.433	154.79
399.646	152.74
399.86	66.73
400.073	66.73
400.287	218.28
400.5	-7
400.714	-41.81
400.927	-101.2
401.141	199.85
401.354	890.01
401.567	160.94
401.781	-250.71
401.994	337.06
402.208	609.44
402.421	-47.96
402.635	-68.44
402.848	17.58
403.061	318.63
403.275	21.67
403.488	-127.83
403.701	548
403.915	244.9
404.128	25.77
404.341	-129.88
404.555	173.22
404.768	-78.68
404.981	42.15
405.195	-58.2
405.408	455.84
405.621	156.84
405.834	44.2
406.048	-224.08
406.261	322.73
406.474	427.17
406.687	-185.17
406.9	9.39
407.114	-33.62
407.327	44.2
407.54	-232.27
407.753	-150.36
407.966	-99.16
408.179	275.62
408.392	-158.55
408.605	-211.79
408.819	134.31
409.032	183.46
409.245	-107.35
409.458	58.54
409.671	203.94
409.884	279.72
410.097	-281.43
410.31	64.68
410.523	62.63
410.736	-4.95
410.949	-25.43
411.162	-11.09
411.375	425.12
411.588	249
411.801	132.26
412.014	-181.07
412.227	60.59
412.44	-97.11
412.653	-101.2
412.865	79.02
413.078	150.7
413.291	191.66
413.504	66.73
413.717	-80.72
413.93	232.62
414.143	-156.5
414.356	-111.44
414.568	-240.47
414.781	302.25
414.994	111.78
415.207	-37.72
415.42	-33.62
415.632	314.53
415.845	455.84
416.058	-199.51
416.271	-254.8
416.483	103.59
416.696	455.84
416.909	-66.39
417.121	-113.49
417.334	257.19
417.547	552.1
417.759	-86.87
417.972	-170.83
418.185	-21.33
418.397	308.39
418.61	-101.2
418.823	-113.49
419.035	380.07
419.248	64.68
419.46	-17.24
419.673	58.54
419.885	310.44
420.098	3.24
420.311	-148.31
420.523	-324.43
420.736	183.46
420.948	44.2
421.161	-103.25
421.373	-273.23
421.586	130.22
421.798	-64.34
422.01	-238.42
422.223	68.78
422.435	-86.87
422.648	175.27
422.86	-88.92
423.073	-185.17
423.285	322.73
423.497	-170.83
423.71	-41.81
423.922	-185.17
424.134	199.85
424.347	431.27
424.559	124.07
424.771	201.9
424.984	-56.15
425.196	175.27
425.408	-303.95
425.621	-160.59
425.833	277.67
426.045	431.27
426.257	-195.41
426.47	-148.31
426.682	138.41
426.894	122.02
427.106	-68.44
427.318	-90.96
427.531	-80.72
427.743	314.53
427.955	-158.55
428.167	257.19
428.379	169.13
428.591	42.15
428.804	19.63
429.016	-50
429.228	-21.33
429.44	187.56
429.652	122.02
429.864	-248.66
430.076	52.39
430.288	-58.2
430.5	-11.09
430.712	-25.43
430.924	416.93
431.136	136.36
431.348	-181.07
431.56	-150.36
431.772	91.31
431.984	31.91
432.196	-158.55
432.408	-107.35
432.62	38.06
432.832	189.61
433.044	76.97
433.256	91.31
433.468	265.38
433.679	-152.4
433.891	-158.55
434.103	60.59
434.315	445.6
434.527	187.56
434.739	46.25
434.95	-66.39
435.162	261.29
435.374	-45.91
435.586	-68.44
435.798	-35.67
436.009	-142.16
436.221	89.26
436.433	-146.26
436.645	-68.44
436.856	-41.81
437.068	300.2
437.28	-82.77
437.491	224.42
437.703	203.94
437.915	181.42
438.126	-33.62
438.338	232.62
438.55	74.92
438.761	216.23
438.973	42.15
439.184	19.63
439.396	117.93
439.608	378.02
439.819	-176.98
440.031	48.3
440.242	251.05
440.454	306.34
440.665	-29.52
440.877	95.4
441.088	148.65
441.3	17.58
441.511	-144.21
441.723	-47.96
441.934	273.57
442.146	150.7
442.357	124.07
442.569	263.33
442.78	158.89
442.991	550.05
443.203	316.58
443.414	-172.88
443.626	447.65
443.837	60.59
444.048	-97.11
444.26	-193.36
444.471	197.8
444.682	406.69
444.894	-197.46
445.105	-195.41
445.316	457.89
445.528	210.09
445.739	85.16
445.95	-66.39
446.161	154.79
446.373	484.52
446.584	36.01
446.795	-29.52
447.006	251.05
447.217	541.86
447.429	-131.92
447.64	-50
447.851	398.5
448.062	234.66
448.273	-209.75
448.484	7.34
448.695	228.52
448.907	-13.14
449.118	109.74
449.329	189.61
449.54	-27.48
449.751	-9.05
449.962	-97.11
450.173	-43.86
450.384	418.98
450.595	539.81
450.806	15.53
451.017	-27.48
451.228	548
451.439	302.25
451.65	-21.33
451.861	-258.9
452.072	-58.2
452.283	76.97
452.494	158.89
452.705	-56.15
452.915	486.56
453.126	261.29
453.337	81.07
453.548	-64.34
453.759	421.03
453.97	668.83
454.181	201.9
454.391	-70.48
454.602	218.28
454.813	220.33
455.024	27.82
455.235	-78.68
455.445	240.81
455.656	289.96
455.867	142.5
456.078	-23.38
456.288	109.74
456.499	197.8
456.71	-47.96
456.921	345.25
457.131	249
457.342	304.29
457.553	62.63
457.763	27.82
457.974	392.36
458.184	404.64
458.395	-121.68
458.606	-150.36
458.816	355.49
459.027	644.26
459.237	197.8
459.448	-109.4
459.659	476.32
459.869	674.98
460.08	-142.16
460.29	234.66
460.501	689.31
460.711	130.22
460.922	-37.72
461.132	83.11
461.343	746.66
461.553	-66.39
461.764	91.31
461.974	9.39
462.184	425.12
462.395	386.21
462.605	171.18
462.816	23.72
463.026	285.86
463.236	533.67
463.447	31.91
463.657	134.31
463.867	470.18
464.078	195.75
464.288	93.35
464.498	40.11
464.709	275.62
464.919	197.8
465.129	117.93
465.339	-60.24
465.55	361.64
465.76	341.16
465.97	107.69
466.18	87.21
466.391	494.76
466.601	388.26
466.811	193.7
467.021	76.97
467.231	410.79
467.441	580.77
467.651	208.04
467.862	-144.21
468.072	343.21
468.282	599.2
468.492	95.4
468.702	160.94
468.912	414.88
469.122	855.2
469.332	394.4
469.542	72.87
469.752	548
469.962	326.82
470.172	103.59
470.382	177.32
470.592	502.95
470.802	691.36
471.012	257.19
471.222	218.28
471.432	560.29
471.642	545.95
471.852	236.71
472.062	167.08
472.272	304.29
472.482	175.27
472.691	87.21
472.901	99.5
473.111	443.56
473.321	930.97
473.531	150.7
473.741	337.06
473.95	591.01
474.16	560.29
474.37	335.01
474.58	103.59
474.79	875.68
474.999	642.21
475.209	212.14
475.419	337.06
475.628	343.21
475.838	687.26
476.048	267.43
476.258	226.47
476.467	769.18
476.677	392.36
476.886	574.63
477.096	388.26
477.306	335.01
477.515	867.49
477.725	421.03
477.935	365.73
478.144	847.01
478.354	488.61
478.563	402.6
478.773	292.01
478.982	746.66
479.192	887.97
479.401	556.19
479.611	287.91
479.82	363.69
480.03	591.01
480.239	371.88
480.449	355.49
480.658	976.03
480.868	464.04
481.077	455.84
481.287	449.7
481.496	840.86
481.705	951.45
481.915	779.42
482.124	783.52
482.333	824.48
482.543	1000.6
482.752	531.62
482.961	521.38
483.171	832.67
483.38	691.36
483.589	572.58
483.799	470.18
484.008	634.02
484.217	984.22
484.426	488.61
484.636	433.32
484.845	820.38
485.054	447.65
485.263	840.86
485.472	607.39
485.682	1119.39
485.891	853.15
486.1	402.6
486.309	560.29
486.518	881.82
486.727	1158.3
486.936	568.48
487.146	769.18
487.355	1176.73
487.564	636.06
487.773	662.69
487.982	634.02
488.191	726.18
488.4	883.87
488.609	611.49
488.818	777.37
489.027	1361.05
489.236	1131.67
489.445	781.47
489.654	707.74
489.863	1186.97
490.072	955.55
490.281	971.93
490.49	769.18
490.698	1332.37
490.907	1399.96
491.116	808.09
491.325	498.85
491.534	1303.7
491.743	1090.71
491.952	816.29
492.16	933.02
492.369	1168.54
492.578	1162.39
492.787	916.64
492.996	720.03
493.204	928.92
493.413	1488.02
493.622	597.15
493.831	732.32
494.039	1393.81
494.248	877.73
494.457	767.13
494.665	748.7
494.874	1211.54
495.083	1465.49
495.291	834.72
495.5	830.62
495.709	1313.94
495.917	1148.06
496.126	1107.1
496.335	879.77
496.543	1047.71
496.752	1105.05
496.96	1150.11
497.169	904.35
497.377	1135.77
497.586	1412.25
497.794	1070.23
498.003	838.81
498.211	1062.04
498.42	1555.6
498.628	1115.29
498.837	953.5
499.045	1256.6
499.254	1246.36
499.462	961.69
499.671	955.55
499.879	1610.9
500.087	1526.93
500.296	1016.99
500.504	1031.32
500.713	1332.37
500.921	1842.32
501.129	1043.61
501.338	1070.23
501.546	1346.71
501.754	1377.43
501.962	1236.12
502.171	1098.91
502.379	1488.02
502.587	1721.49
502.795	1146.01
503.004	1055.9
503.212	1338.52
503.42	1612.95
503.628	1191.06
503.837	1250.46
504.045	1537.17
504.253	1686.67
504.461	1078.43
504.669	949.4
504.877	1526.93
505.085	1768.59
505.294	1076.38
505.502	1326.23
505.71	1299.61
505.918	1545.36
506.126	1078.43
506.334	1197.21
506.542	1371.29
506.75	1490.07
506.958	1395.86
507.166	1256.6
507.374	1375.38
507.582	1934.48
507.79	1371.29
507.998	1227.93
508.206	1518.74
508.414	1641.62
508.622	1156.25
508.83	1277.08
509.037	1909.9
509.245	1356.95
509.453	1195.16
509.661	1236.12
509.869	1655.95
510.077	1516.69
510.285	1354.9
510.492	1012.89
510.7	2096.27
510.908	1485.97
511.116	1430.68
511.324	1342.61
511.531	1555.6
511.739	1694.86
511.947	1479.83
512.155	1737.87
512.362	1643.67
512.57	1174.68
512.778	1297.56
512.985	1203.35
513.193	1877.13
513.401	1928.33
513.608	1424.53
513.816	1375.38
514.024	1758.35
514.231	1983.63
514.439	1436.82
514.646	1494.16
514.854	1963.15
515.061	1944.72
515.269	1440.92
515.477	1424.53
515.684	1559.7
515.892	1950.86
516.099	1299.61
516.307	1307.8
516.514	1797.26
516.722	1932.43
516.929	1475.73
517.136	1420.44
517.344	2116.75
517.551	1750.16
517.759	1526.93
517.966	1647.76
518.173	1614.99
518.381	1711.25
518.588	1653.91
518.796	1535.12
519.003	1860.75
519.21	1625.23
519.418	1485.97
519.625	1936.53
519.832	1805.46
520.039	1846.41
520.247	1397.91
520.454	1744.02
520.661	2004.11
520.868	2008.2
521.076	1604.75
521.283	1711.25
521.49	2399.37
521.697	1957
521.904	1731.73
522.112	1625.23
522.319	2079.88
522.526	1963.15
522.733	1746.06
522.94	1643.67
523.147	1914
523.354	2118.79
523.561	1457.3
523.768	1635.47
523.975	2276.49
524.183	1973.39
524.39	1803.41
524.597	1641.62
524.804	2059.4
525.011	1821.84
525.218	1748.11
525.425	1748.11
525.632	2200.71
525.838	1875.09
526.045	1842.32
526.252	1791.12
526.459	2948.22
526.666	2811.01
526.873	1948.81
527.08	1836.17
527.287	2485.38
527.494	2239.62
527.701	1723.54
527.907	1746.06
528.114	2268.3
528.321	2069.64
528.528	1870.99
528.735	1866.89
528.941	1969.29
529.148	1926.29
529.355	2016.4
529.562	1694.86
529.768	2444.42
529.975	2000.01
530.182	1950.86
530.388	2012.3
530.595	2325.64
530.802	1848.46
531.008	2075.79
531.215	2069.64
531.422	2921.6
531.628	2845.82
531.835	2145.42
532.042	1989.77
532.248	2067.6
532.455	2231.43
532.661	2094.22
532.868	1973.39
533.074	2290.82
533.281	2485.38
533.487	2188.43
533.694	1959.05
533.9	2051.21
534.107	2425.99
534.313	2055.31
534.52	2051.21
534.726	2677.89
534.933	2655.36
535.139	2047.12
535.345	2065.55
535.552	2407.56
535.758	2272.39
535.965	2169.99
536.171	2096.27
536.377	2536.58
536.584	2702.47
536.79	2186.38
536.996	2221.19
537.203	2444.42
537.409	2497.67
537.615	2327.69
537.821	2444.42
538.028	2593.92
538.234	2645.12
538.44	2301.06
538.646	2448.52
538.853	2544.77
539.059	2417.8
539.265	2761.86
539.471	2186.38
539.677	2540.68
539.883	2423.94
540.09	2331.78
540.296	2569.35
540.502	2518.15
540.708	2309.26
540.914	2622.59
541.12	2370.69
541.326	2649.22
541.532	2675.84
541.738	2516.1
541.944	2466.95
542.15	2915.45
542.356	2751.62
542.562	2262.15
542.768	2393.22
542.974	3382.39
543.18	3173.5
543.386	2419.85
543.592	2305.16
543.798	2960.51
544.004	2919.55
544.21	2385.03
544.415	2555.01
544.621	2718.85
544.827	2931.84
545.033	2358.41
545.239	2847.87
545.445	2598.02
545.651	2815.1
545.856	2548.87
546.062	2624.64
546.268	2669.7
546.474	2784.38
546.679	2491.52
546.885	2514.05
547.091	2624.64
547.297	3279.99
547.502	2628.74
547.708	2552.96
547.914	2643.07
548.119	2870.4
548.325	2440.33
548.531	2469
548.736	3251.32
548.942	2595.97
549.147	2552.96
549.353	2743.42
549.559	3054.72
549.764	2923.65
549.97	2612.35
550.175	2774.14
550.381	2931.84
550.586	2649.22
550.792	2772.1
550.997	2731.14
551.203	3079.29
551.408	3040.38
551.614	2700.42
551.819	2731.14
552.025	3277.94
552.23	3433.59
552.435	2821.25
552.641	2948.22
552.846	2985.09
553.052	3282.04
553.257	2845.82
553.462	2741.38
553.668	3007.61
553.873	3316.86
554.078	2794.62
554.283	2878.59
554.489	3017.85
554.694	3048.57
554.899	2778.24
555.105	3015.8
555.31	3148.92
555.515	3228.79
555.72	3110.01
555.925	2880.64
556.131	3361.91
556.336	2987.13
556.541	3097.72
556.746	2837.63
556.951	3464.31
557.156	3466.36
557.361	3097.72
557.567	3036.28
557.772	3671.15
557.977	3294.33
558.182	2983.04
558.387	2866.3
558.592	3021.95
558.797	3552.37
559.002	3099.77
559.207	3234.94
559.412	3120.25
559.617	3529.84
559.822	3126.39
560.027	2978.94
560.232	3263.61
560.437	3515.51
560.642	3052.67
560.847	3042.43
561.051	3452.02
561.256	3361.91
561.461	3124.35
561.666	3157.11
561.871	3312.76
562.076	3468.41
562.281	3193.98
562.485	2956.41
562.69	3488.89
562.895	3552.37
563.1	3189.88
563.305	2978.94
563.509	3748.98
563.714	3914.86
563.919	3202.17
564.123	3150.97
564.328	3361.91
564.533	3701.87
564.737	3243.13
564.942	3116.16
565.147	3771.51
565.351	4021.36
565.556	3288.18
565.761	3480.69
565.965	3523.7
566.17	3212.41
566.374	3230.84
566.579	3159.16
566.784	3478.65
566.988	3478.65
567.193	3157.11
567.397	3286.14
567.602	3314.81
567.806	3445.88
568.011	3337.34
568.215	3390.58
568.42	3480.69
568.624	3509.37
568.828	3492.98
569.033	3552.37
569.237	3773.55
569.442	3906.67
569.646	3382.39
569.85	3533.94
570.055	3458.17
570.259	3628.15
570.463	3640.44
570.668	3535.99
570.872	3650.67
571.076	3634.29
571.281	3505.27
571.485	3560.56
571.689	3658.87
571.893	3818.61
572.098	3644.53
572.302	3554.42
572.506	3937.39
572.71	3722.35
572.914	3544.18
573.119	3593.33
573.323	4041.84
573.527	4142.19
573.731	3572.85
573.935	3531.89
574.139	3791.98
574.343	3638.39
574.547	3611.76
574.751	3624.05
574.955	4000.88
575.159	4181.1
575.364	3597.43
575.568	3480.69
575.772	3927.15
575.976	4234.35
576.18	3529.84
576.383	3574.9
576.587	4109.42
576.791	4035.69
576.995	3544.18
577.199	3546.23
577.403	4119.66
577.607	4297.83
577.811	3599.48
578.015	3894.38
578.219	4007.02
578.422	4060.27
578.626	3945.58
578.83	3871.86
579.034	4301.93
579.238	3992.69
579.442	3720.31
579.645	4101.23
579.849	3982.45
580.053	3994.73
580.257	3882.1
580.46	3894.38
580.664	4193.39
580.868	4172.91
581.071	4062.32
581.275	4037.74
581.479	3699.83
581.682	4197.48
581.886	3839.09
582.09	3988.59
582.293	4394.09
582.497	4312.17
582.7	4185.19
582.904	3871.86
583.107	4346.98
583.311	4174.95
583.515	3976.3
583.718	4058.22
583.922	4217.96
584.125	4516.97
584.329	3888.24
584.532	4230.25
584.735	4535.4
584.939	4353.13
585.142	3837.04
585.346	3996.78
585.549	4322.41
585.753	4181.1
585.956	4148.33
586.159	3982.45
586.363	4777.06
586.566	4455.53
586.769	3992.69
586.973	4023.41
587.176	4500.58
587.379	4635.75
587.582	4502.63
587.786	4363.37
587.989	4359.27
588.192	4977.76
588.395	4342.89
588.599	4510.82
588.802	4416.62
589.005	4441.19
589.208	4258.92
589.411	4299.88
589.615	4619.36
589.818	4904.03
590.021	4596.84
590.224	4297.83
590.427	4713.57
590.63	4701.28
590.833	4127.85
591.036	4078.7
591.239	4525.16
591.442	4389.99
591.645	4531.3
591.848	4353.13
592.051	4713.57
592.254	4777.06
592.457	4420.71
592.66	4346.98
592.863	4484.2
593.066	4729.95
593.269	4342.89
593.472	4418.66
593.675	4365.42
593.878	4961.37
594.081	4504.68
594.284	4398.18
594.486	4895.84
594.689	4805.73
594.892	4510.82
595.095	4523.11
595.298	4947.04
595.5	4498.53
595.703	4668.52
595.906	4684.9
596.109	5063.77
596.311	4877.41
596.514	4193.39
596.717	4693.09
596.92	5207.13
597.122	4897.89
597.325	4373.61
597.528	4713.57
597.73	5217.37
597.933	4908.13
598.136	4736.1
598.338	4394.09
598.541	4938.85
598.743	5080.16
598.946	4502.63
599.148	4682.85
599.351	5100.64
599.554	5205.08
599.756	4822.11
599.959	4805.73
600.161	5235.8
600.363	5444.7
600.566	5086.3
600.768	4682.85
600.971	5299.29
601.173	5084.25
601.376	4799.59
601.578	4799.59
601.78	5059.68
601.983	5399.64
602.185	4666.47
602.388	4944.99
602.59	5088.35
602.792	4920.42
602.995	5074.01
603.197	4779.11
603.399	5198.94
603.601	5076.06
603.804	4895.84
604.006	4830.3
604.208	5098.59
604.41	4658.28
604.613	4961.37
604.815	4906.08
605.017	5649.49
605.219	5080.16
605.421	5080.16
605.623	4961.37
605.826	5303.39
606.028	5454.94
606.23	4895.84
606.432	5012.57
606.634	5784.66
606.836	5418.07
607.038	4732
607.24	5123.16
607.442	5160.03
607.644	5088.35
607.846	5264.47
608.048	4953.18
608.25	5510.23
608.452	5020.77
608.654	5119.07
608.856	4770.91
609.058	5180.51
609.26	5413.98
609.462	5037.15
609.664	5033.05
609.866	5641.3
610.067	5448.79
610.269	5229.66
610.471	5141.6
610.673	5151.84
610.875	5409.88
611.077	4832.35
611.278	5219.42
611.48	5356.63
611.682	5733.46
611.884	5340.25
612.085	5205.08
612.287	5076.06
612.489	5416.02
612.69	5037.15
612.892	5278.81
613.094	5551.19
613.295	5274.71
613.497	5098.59
613.699	5131.36
613.9	5882.96
614.102	5692.5
614.304	5205.08
614.505	5063.77
614.707	5254.23
614.908	5481.56
615.11	4928.61
615.311	5278.81
615.513	5690.45
615.714	5639.25
615.916	5260.38
616.117	5198.94
616.319	5520.47
616.52	5600.34
616.722	5278.81
616.923	5280.86
617.124	5710.93
617.326	5590.1
617.527	5354.58
617.729	5616.72
617.93	5708.88
618.131	5725.27
618.333	5293.15
618.534	5483.61
618.735	5336.15
618.937	5782.61
619.138	5213.28
619.339	5229.66
619.54	5608.53
619.742	5508.18
619.943	5602.39
620.144	5368.92
620.345	5637.2
620.546	5786.71
620.748	5256.28
620.949	5514.33
621.15	5626.96
621.351	5610.58
621.552	5536.85
621.753	5297.24
621.954	5307.48
622.155	6157.39
622.356	5282.91
622.558	5606.49
622.759	5770.32
622.96	5999.7
623.161	5395.54
623.362	5528.66
623.563	5633.11
623.764	5614.68
623.965	5579.86
624.166	5692.5
624.366	5678.16
624.567	5704.79
624.768	5192.8
624.969	5493.85
625.17	5723.22
625.371	5923.92
625.572	5514.33
625.773	5446.74
625.973	6024.27
626.174	5819.47
626.375	5653.59
626.576	5717.08
626.777	5893.2
626.977	6186.06
627.178	5524.57
627.379	5626.96
627.58	5631.06
627.78	5583.96
627.981	5702.74
628.182	5895.25
628.382	6202.44
628.583	5588.05
628.784	5581.91
628.984	5821.52
629.185	6016.08
629.386	5878.86
629.586	5586.01
629.787	5848.15
629.987	5962.83
630.188	6009.93
630.388	5651.54
630.589	5747.79
630.79	6476.87
630.99	5987.41
631.191	5819.47
631.391	5876.82
631.591	6141
631.792	6448.2
631.992	5971.02
632.193	5993.55
632.393	6452.3
632.594	5893.2
632.794	5788.75
632.994	5895.25
633.195	6050.89
633.395	5997.65
633.595	5788.75
633.796	6173.77
633.996	5950.54
634.196	6378.57
634.397	5731.41
634.597	5825.62
634.797	5880.91
634.997	6487.11
635.198	6261.84
635.398	5809.23
635.598	6351.95
635.798	6407.24
635.998	6300.75
636.199	5747.79
636.399	6024.27
636.599	6136.91
636.799	5860.43
636.999	6227.02
637.199	6276.17
637.399	6347.85
637.599	5977.17
637.799	5909.58
637.999	5999.7
638.199	6362.19
638.399	5907.54
638.599	5889.1
638.799	6442.06
638.999	6855.75
639.199	6073.42
639.399	6222.92
639.599	6614.09
639.799	5870.67
639.999	5962.83
640.199	5913.68
640.399	6362.19
640.599	6009.93
640.799	6132.81
640.998	6171.72
641.198	6448.2
641.398	6360.14
641.598	6245.45
641.798	6143.05
641.997	7304.25
642.197	6321.23
642.397	6188.11
642.597	6177.87
642.796	6511.69
642.996	6644.81
643.196	6167.63
643.395	6087.76
643.595	6487.11
643.795	6134.86
643.994	6286.41
644.194	6323.27
644.394	6413.38
644.593	6515.78
644.793	6044.75
644.992	6462.54
645.192	6509.64
645.392	6077.52
645.591	6485.06
645.791	6212.68
645.99	6505.54
646.19	6462.54
646.389	6302.79
646.589	6237.26
646.788	6646.85
646.987	6526.02
647.187	6550.6
647.386	6554.69
647.586	6536.26
647.785	6837.31
647.984	6425.67
648.184	6433.86
648.383	6433.86
648.582	6550.6
648.782	6435.91
648.981	6562.89
649.18	6224.97
649.38	6716.48
649.579	6419.53
649.778	6243.4
649.977	6671.43
650.177	6898.75
650.376	6480.97
650.575	6351.95
650.774	7099.45
650.973	6478.92
651.173	6155.34
651.372	6601.8
651.571	6655.05
651.77	6845.51
651.969	6431.82
652.168	6575.17
652.367	6360.14
652.566	6718.53
652.765	6339.66
652.964	6800.45
653.163	7023.68
653.362	6628.42
653.561	6458.44
653.76	6642.76
653.959	6726.72
654.158	6952
654.357	6788.16
654.556	6702.15
654.755	6921.28
654.954	7064.64
655.153	6609.99
655.352	6747.2
655.551	7103.55
655.749	6622.28
655.948	6739.01
656.147	6743.11
656.346	6888.51
656.545	6751.3
656.743	6724.68
656.942	6622.28
657.141	6833.22
657.34	6564.93
657.538	6700.1
657.737	6609.99
657.936	6825.03
658.135	7066.69
658.333	6628.42
658.532	6773.83
658.731	7320.63
658.929	7148.61
659.128	6890.56
659.326	6622.28
659.525	7205.95
659.724	6786.12
659.922	6534.21
660.121	6497.35
660.319	7269.44
660.518	6794.31
660.716	6589.51
660.915	6808.64
661.113	7277.63
661.312	6730.82
661.51	7083.07
661.709	6659.14
661.907	7081.02
662.105	7363.64
662.304	6892.61
662.502	6984.77
662.701	7345.21
662.899	6952
663.097	7277.63
663.296	6784.07
663.494	7173.18
663.692	7476.28
663.891	6868.03
664.089	6841.41
664.287	6978.62
664.485	7371.83
664.684	6806.59
664.882	6988.86
665.08	7085.12
665.278	7050.3
665.476	6941.76
665.675	7027.78
665.873	7502.9
666.071	7377.98
666.269	6696
666.467	6986.82
666.665	7148.61
666.863	7083.07
667.061	7052.35
667.259	6857.79
667.457	7103.55
667.655	7224.38
667.853	6911.04
668.051	6888.51
668.249	6782.02
668.447	7490.62
668.645	6759.49
668.843	7105.6
669.041	7287.87
669.239	6995.01
669.437	6980.67
669.635	7138.37
669.833	7083.07
670.031	7255.1
670.229	6945.86
670.426	7138.37
670.624	7093.31
670.822	7044.16
671.02	6876.23
671.218	6995.01
671.415	6898.75
671.613	7271.48
671.811	7195.71
672.009	7093.31
672.206	7334.97
672.404	7345.21
672.602	7113.79
672.799	7158.85
672.997	7365.69
673.195	7459.9
673.392	7162.94
673.59	7025.73
673.788	7332.92
673.985	6837.31
674.183	7017.54
674.38	7095.36
674.578	7492.66
674.775	7031.87
674.973	6896.71
675.17	7044.16
675.368	7646.26
675.565	7490.62
675.763	6913.09
675.96	6980.67
676.158	7470.14
676.355	7154.75
676.553	6978.62
676.75	7146.56
676.947	7353.4
677.145	7056.45
677.342	7064.64
677.539	7101.5
677.737	7208
677.934	7867.44
678.131	7337.02
678.329	7009.34
678.526	7433.27
678.723	7590.97
678.92	7138.37
679.118	7062.59
679.315	7072.83
679.512	7638.07
679.709	7189.56
679.906	7193.66
680.104	7457.85
680.301	7392.31
680.498	6919.23
680.695	7019.58
680.892	7107.65
681.089	7296.06
681.286	7169.09
681.483	6939.71
681.68	7396.41
681.877	7416.89
682.075	6974.53
682.272	7269.44
682.469	7373.88
682.665	7197.76
682.862	6876.23
683.059	6982.72
683.256	7453.75
683.453	7326.78
683.65	7222.33
683.847	7167.04
684.044	7345.21
684.241	7148.61
684.438	7035.97
684.635	6874.18
684.831	7836.72
685.028	7801.91
685.225	7124.03
685.422	7208
685.619	7255.1
685.815	7367.74
686.012	7138.37
686.209	6952
686.405	6894.66
686.602	7517.24
686.799	6917.19
686.996	7048.26
687.192	7035.97
687.389	7713.84
687.586	7046.21
687.782	7248.96
687.979	7619.64
688.175	7427.13
688.372	7189.56
688.568	7236.67
688.765	7224.38
688.962	7574.58
689.158	7216.19
689.355	6958.14
689.551	7533.62
689.748	7115.84
689.944	7312.44
690.14	6884.42
690.337	7439.42
690.533	7240.76
690.73	7263.29
690.926	7093.31
691.123	7183.42
691.319	7359.55
691.515	7023.68
691.712	7242.81
691.908	7398.46
692.104	7369.79
692.301	7291.96
692.497	6911.04
692.693	7674.93
692.889	7517.24
693.086	7058.49
693.282	6980.67
693.478	7220.28
693.674	7728.18
693.87	7162.94
694.067	6949.95
694.263	7533.62
694.459	7191.61
694.655	7138.37
694.851	7076.93
695.047	7486.52
695.243	7388.22
695.439	7279.68
695.635	7007.3
695.831	7253.05
696.027	7265.34
696.224	7023.68
696.42	7529.53
696.615	7697.46
696.811	7343.16
697.007	6990.91
697.203	7171.13
697.399	7431.23
697.595	7595.06
697.791	7244.86
697.987	7277.63
698.183	7007.3
698.379	7052.35
698.575	7187.52
698.77	6999.1
698.966	7255.1
699.162	7650.36
699.358	7195.71
699.554	7029.82
699.749	7494.71
699.945	7388.22
700.141	7179.33
700.337	6949.95
700.532	7308.35
700.728	7074.88
700.924	7117.89
701.119	6863.94
701.315	7263.29
701.511	7294.01
701.706	7138.37
701.902	6962.24
702.097	7197.76
702.293	7345.21
702.489	7267.39
702.684	7124.03
702.88	7197.76
703.075	7173.18
703.271	6947.9
703.466	6982.72
703.662	7078.97
703.857	7457.85
704.053	7212.09
704.248	7048.26
704.443	7593.01
704.639	7423.03
704.834	7281.72
705.03	7230.52
705.225	7535.67
705.42	7590.97
705.616	7205.95
705.811	6898.75
706.006	7093.31
706.202	7179.33
706.397	7111.74
706.592	6976.58
706.787	7113.79
706.983	7396.41
707.178	7339.07
707.373	7171.13
707.568	7400.51
707.763	7420.99
707.959	7169.09
708.154	7099.45
708.349	7167.04
708.544	7324.73
708.739	7212.09
708.934	6939.71
709.129	7408.7
709.324	7615.54
709.519	7150.65
709.714	7019.58
709.909	7672.89
710.104	7369.79
710.299	7212.09
710.494	7070.78
710.689	7568.44
710.884	7312.44
711.079	7140.41
711.274	7142.46
711.469	7529.53
711.664	7279.68
711.859	7126.08
712.054	7461.94
712.249	7382.07
712.443	7535.67
712.638	6724.68
712.833	7078.97
713.028	7138.37
713.223	7396.41
713.417	7337.02
713.612	7203.9
713.807	7564.34
714.002	7838.77
714.196	7298.11
714.391	7128.13
714.586	7574.58
714.78	7328.83
714.975	7087.17
715.17	7144.51
715.364	7042.11
715.559	7545.91
715.754	7025.73
715.948	7091.26
716.143	7779.38
716.337	7304.25
716.532	7492.66
716.726	7115.84
716.921	7380.03
717.115	7568.44
717.31	6898.75
717.504	7531.58
717.699	7105.6
717.893	7285.82
718.088	7003.2
718.282	7064.64
718.476	7208
718.671	7398.46
718.865	6980.67
719.059	7029.82
719.254	7220.28
719.448	7566.39
719.642	7193.66
719.837	6710.34
720.031	7437.37
720.225	7494.71
720.419	7169.09
720.614	6960.19
720.808	7418.94
721.002	7212.09
721.196	6833.22
721.39	6999.1
721.585	7490.62
721.779	7255.1
721.973	6941.76
722.167	6888.51
722.361	7203.9
722.555	7367.74
722.749	7003.2
722.943	7001.15
723.137	6730.82
723.331	7132.22
723.525	7050.3
723.719	6911.04
723.913	7373.88
724.107	7365.69
724.301	6933.57
724.495	6986.82
724.689	7623.73
724.883	7523.38
725.077	6949.95
725.271	6972.48
725.465	7457.85
725.659	7263.29
725.853	7107.65
726.046	6743.11
726.24	7048.26
726.434	7210.04
726.628	6831.17
726.822	7070.78
727.015	7527.48
727.209	7556.15
727.403	7136.32
727.596	6968.38
727.79	7484.47
727.984	7537.72
728.177	7029.82
728.371	6990.91
728.565	7498.81
728.758	6886.47
728.952	6974.53
729.146	7115.84
729.339	7588.92
729.533	7124.03
729.726	7083.07
729.92	7052.35
730.113	7527.48
730.307	7466.04
730.5	6913.09
730.694	6878.27
730.887	6941.76
731.081	7334.97
731.274	7060.54
731.468	7128.13
731.661	7236.67
731.854	7115.84
732.048	6990.91
732.241	6941.76
732.435	6968.38
732.628	7345.21
732.821	7181.37
733.014	6999.1
733.208	6876.23
733.401	7468.09
733.594	6941.76
733.788	6968.38
733.981	7529.53
734.174	7334.97
734.367	7078.97
734.56	7193.66
734.754	7210.04
734.947	7289.92
735.14	6904.9
735.333	6947.9
735.526	7472.18
735.719	6954.05
735.912	7058.49
736.105	6976.58
736.298	7177.28
736.491	7236.67
736.684	6886.47
736.877	6884.42
737.07	7173.18
737.263	7396.41
737.456	6820.93
737.649	6827.07
737.842	7152.7
738.035	7169.09
738.228	7070.78
738.421	7291.96
738.614	7476.28
738.807	7566.39
739	6851.65
739.192	7064.64
739.385	7287.87
739.578	7343.16
739.771	7416.89
739.964	7042.11
740.156	7144.51
740.349	7126.08
740.542	7164.99
740.735	6831.17
740.927	7011.39
741.12	7031.87
741.313	7029.82
741.505	7255.1
741.698	7236.67
741.891	7167.04
742.083	7226.43
742.276	7119.93
742.468	7228.48
742.661	7357.5
742.854	7095.36
743.046	6968.38
743.239	7646.26
743.431	7117.89
743.624	7013.44
743.816	6827.07
744.009	7027.78
744.201	7304.25
744.393	7119.93
744.586	6978.62
744.778	7547.96
744.971	7285.82
745.163	7035.97
745.355	7373.88
745.548	7097.41
745.74	7052.35
745.932	7218.24
746.125	7144.51
746.317	7689.27
746.509	7189.56
746.702	7078.97
746.894	7066.69
747.086	7201.85
747.278	7291.96
747.471	7124.03
747.663	6851.65
747.855	7154.75
748.047	7703.61
748.239	6995.01
748.431	7134.27
748.623	7537.72
748.815	7509.05
749.008	6972.48
749.2	6931.52
749.392	7156.8
749.584	7275.58
749.776	7068.73
749.968	7228.48
750.16	7576.63
750.352	7185.47
750.544	7015.49
750.736	6882.37
750.928	7236.67
751.12	7097.41
751.311	6900.8
751.503	7062.59
751.695	7228.48
751.887	7027.78
752.079	6798.4
752.271	6829.12
752.463	7820.34
752.654	7201.85
752.846	6915.14
753.038	7093.31
753.23	6956.1
753.421	7222.33
753.613	7048.26
753.805	7134.27
753.997	7484.47
754.188	7105.6
754.38	6878.27
754.572	7115.84
754.763	6886.47
754.955	7306.3
755.146	6913.09
755.338	7005.25
755.53	6962.24
755.721	7103.55
755.913	6767.68
756.104	6716.48
756.296	7054.4
756.487	7230.52
756.679	6904.9
756.87	6954.05
757.062	6958.14
757.253	7185.47
757.445	7017.54
757.636	7154.75
757.827	7072.83
758.019	7574.58
758.21	6782.02
758.401	6792.26
758.593	7404.6
758.784	7404.6
758.975	6767.68
759.167	6767.68
759.358	7005.25
759.549	7197.76
759.74	6736.96
759.932	6853.7
760.123	7371.83
760.314	6638.66
760.505	6865.99
760.696	6736.96
760.888	7568.44
761.079	6841.41
761.27	6894.66
761.461	6691.91
761.652	7373.88
761.843	6696
762.034	6806.59
762.225	7068.73
762.416	6917.19
762.607	6759.49
762.798	6837.31
762.989	6814.79
763.18	7609.4
763.371	6839.36
763.562	6849.6
763.753	6835.27
763.944	7167.04
764.135	7078.97
764.326	6818.88
764.517	6806.59
764.708	7025.73
764.899	7017.54
765.089	6702.15
765.28	6616.13
765.471	6997.06
765.662	6933.57
765.853	6827.07
766.043	6478.92
766.234	7054.4
766.425	7085.12
766.615	6679.62
766.806	6532.17
766.997	7027.78
767.187	6870.08
767.378	6655.05
767.569	6370.38
767.759	6999.1
767.95	6954.05
768.141	6884.42
768.331	6618.18
768.522	6679.62
768.712	6845.51
768.903	6698.05
769.093	6480.97
769.284	7210.04
769.474	6732.87
769.665	6347.85
769.855	6284.36
770.046	6917.19
770.236	6775.88
770.426	6503.5
770.617	6329.42
770.807	6689.86
770.998	6673.48
771.188	6759.49
771.378	6372.43
771.569	6773.83
771.759	6913.09
771.949	6362.19
772.139	6470.73
772.33	6773.83
772.52	7158.85
772.71	6440.01
772.9	6290.51
773.09	7171.13
773.281	6872.13
773.471	6304.84
773.661	6507.59
773.851	6904.9
774.041	6593.61
774.231	6450.25
774.421	6521.93
774.611	7216.19
774.802	6712.39
774.992	6466.63
775.182	6401.1
775.372	6583.37
775.562	6722.63
775.752	6448.2
775.942	6282.31
776.131	6859.84
776.321	6620.23
776.511	6278.22
776.701	6276.17
776.891	6693.96
777.081	6247.5
777.271	6382.67
777.461	6435.91
777.651	6851.65
777.84	6796.35
778.03	6306.89
778.22	6181.96
778.41	6874.18
778.599	6446.15
778.789	6382.67
778.979	6358.09
779.169	6687.81
779.358	6607.94
779.548	6528.07
779.738	6067.28
779.927	6499.4
780.117	6372.43
780.307	6333.51
780.496	5876.82
780.686	6571.08
780.875	6755.4
781.065	6233.16
781.254	6114.38
781.444	6636.61
781.633	6444.1
781.823	6190.16
782.012	6251.6
782.202	6483.02
782.391	6444.1
782.581	6128.72
782.77	6331.47
782.96	6640.71
783.149	6476.87
783.338	6098
783.528	6054.99
783.717	6626.37
783.906	6624.33
784.096	6319.18
784.285	6038.61
784.474	6386.76
784.663	6276.17
784.853	6132.81
785.042	6167.63
785.231	6241.36
785.42	6661.19
785.61	6267.98
785.799	6046.8
785.988	6231.12
786.177	6177.87
786.366	6054.99
786.555	6298.7
786.744	6444.1
786.933	6204.49
787.122	5987.41
787.312	5958.74
787.501	6212.68
787.69	6386.76
787.879	6130.77
788.068	6016.08
788.257	6057.04
788.445	6409.29
788.634	6001.74
788.823	5887.06
789.012	6843.46
789.201	6462.54
789.39	6157.39
789.579	5856.34
789.768	6173.77
789.957	6165.58
790.145	6034.51
790.334	5586.01
790.523	6161.48
790.712	6059.09
790.9	6112.33
791.089	5792.85
791.278	6333.51
791.467	6163.53
791.655	6233.16
791.844	6458.44
792.033	5995.6
792.221	6007.89
792.41	5940.3
792.599	5811.28
792.787	6485.06
792.976	6321.23
793.164	5968.98
793.353	5876.82
793.541	6427.72
793.73	6128.72
793.918	5985.36
794.107	5878.86
794.295	6210.64
794.484	6143.05
794.672	5962.83
794.861	5887.06
795.049	6276.17
795.238	6466.63
795.426	5778.51
795.614	6003.79
795.803	6063.18
795.991	6480.97
796.179	5817.43
796.368	5962.83
796.556	6368.33
796.744	5655.64
796.932	5930.06
797.121	5731.41
797.309	5979.22
797.497	6190.16
797.685	5925.97
797.874	5991.5
798.062	6014.03
798.25	6337.61
798.438	5715.03
798.626	5975.12
798.814	6331.47
799.002	6591.56
799.19	6091.85
799.378	6155.34
799.566	6261.84
799.755	6507.59
799.943	5952.59
800.131	5856.34
800.318	5979.22
800.506	6302.79
800.694	5747.79
800.882	5919.82
801.07	6499.4
801.258	6077.52
801.446	5893.2
801.634	5856.34
801.822	5913.68
802.01	6257.74
802.197	5803.09
802.385	6026.32
802.573	6190.16
802.761	5860.43
802.949	5794.9
803.136	5596.25
803.324	6405.19
803.512	6190.16
803.699	5796.95
803.887	5829.71
804.075	6433.86
804.262	6177.87
804.45	5944.4
804.638	5897.3
804.825	5997.65
805.013	5874.77
805.201	5870.67
805.388	5878.86
805.576	6083.66
805.763	6679.62
805.951	6050.89
806.138	6206.54
806.326	6616.13
806.513	6347.85
806.701	6112.33
806.888	5842
807.075	6143.05
807.263	6753.35
807.45	5915.73
807.638	6063.18
807.825	6605.89
808.012	6448.2
808.2	6003.79
808.387	6159.44
808.574	6409.29
808.761	6601.8
808.949	6007.89
809.136	6255.69
809.323	6257.74
809.51	6208.59
809.698	6372.43
809.885	6085.71
810.072	6300.75
810.259	6638.66
810.446	6065.23
810.633	6063.18
810.82	6681.67
811.008	6503.5
811.195	6288.46
811.382	6282.31
811.569	6386.76
811.756	6151.24
811.943	6108.24
812.13	6192.2
812.317	6181.96
812.504	6145.1
812.691	6241.36
812.878	6175.82
813.064	6485.06
813.251	6532.17
813.438	6032.46
813.625	6083.66
813.812	6270.03
813.999	6116.43
814.186	6253.64
814.372	6069.33
814.559	6411.34
814.746	6640.71
814.933	6175.82
815.12	6274.12
815.306	6280.27
815.493	5971.02
815.68	6124.62
815.866	6175.82
816.053	6700.1
816.24	6822.98
816.426	6382.67
816.613	6020.17
816.799	6517.83
816.986	6628.42
817.173	6198.35
817.359	6046.8
817.546	6333.51
817.732	6007.89
817.919	6005.84
818.105	6333.51
818.292	6147.15
818.478	6526.02
818.665	6327.37
818.851	6085.71
819.037	6974.53
819.224	6468.68
819.41	5952.59
819.597	5983.31
819.783	6593.61
819.969	6558.79
820.156	6284.36
820.342	5997.65
820.528	6949.95
820.714	6214.73
820.901	6349.9
821.087	6141
821.273	6827.07
821.459	6319.18
821.646	5905.49
821.832	6169.68
822.018	6372.43
822.204	6227.02
822.39	5987.41
822.576	5913.68
822.762	6376.52
822.948	6315.08
823.134	5975.12
823.32	6151.24
823.507	5971.02
823.693	6329.42
823.879	6472.78
824.065	6011.98
824.25	6184.01
824.436	6065.23
824.622	6145.1
824.808	5915.73
824.994	6218.83
825.18	5917.78
825.366	5913.68
825.552	6077.52
825.738	6184.01
825.923	6575.17
826.109	6251.6
826.295	6036.56
826.481	5962.83
826.667	6161.48
826.852	6216.78
827.038	5925.97
827.224	6501.45
827.409	6691.91
827.595	5915.73
827.781	6190.16
827.966	6417.48
828.152	6300.75
828.338	5880.91
828.523	5723.22
828.709	5989.46
828.894	6267.98
829.08	5901.39
829.266	5817.43
829.451	5864.53
829.637	6210.64
829.822	6044.75
830.008	5835.86
830.193	6382.67
830.378	6470.73
830.564	5999.7
830.749	5755.99
830.935	6136.91
831.12	6106.19
831.305	5665.88
831.491	5966.93
831.676	5868.63
831.861	6290.51
832.047	5964.88
832.232	5653.59
832.417	6130.77
832.602	6130.77
832.788	5739.6
832.973	5717.08
833.158	5995.6
833.343	6032.46
833.528	5817.43
833.714	6009.93
833.899	6249.55
834.084	6333.51
834.269	5975.12
834.454	5807.19
834.639	6237.26
834.824	5987.41
835.009	5919.82
835.194	5911.63
835.379	5983.31
835.564	6337.61
835.749	5932.11
835.934	5684.31
836.119	6138.96
836.304	5887.06
836.489	5651.54
836.674	5723.22
836.859	5706.84
837.044	6048.85
837.228	5866.58
837.413	5563.48
837.598	5958.74
837.783	6186.06
837.968	5766.23
838.152	5551.19
838.337	5459.03
838.522	6034.51
838.707	6116.43
838.891	5774.42
839.076	5868.63
839.261	6177.87
839.445	5815.38
839.63	5717.08
839.815	6157.39
839.999	5772.37
840.184	5575.77
840.368	5657.68
840.553	6018.13
840.737	5966.93
840.922	5577.81
841.106	5610.58
841.291	5416.02
841.475	6005.84
841.66	5688.4
841.844	5397.59
842.029	6532.17
842.213	5479.51
842.397	5553.24
842.582	5385.3
842.766	6040.65
842.951	5764.18
843.135	5506.13
843.319	5569.62
843.504	5903.44
843.688	6034.51
843.872	5309.53
844.056	5405.78
844.241	5860.43
844.425	5651.54
844.609	5659.73
844.793	5258.33
844.977	6059.09
845.161	5610.58
845.346	5424.22
845.53	5377.11
845.714	5622.87
845.898	6102.09
846.082	5180.51
846.266	5416.02
846.45	5590.1
846.634	5411.93
846.818	5512.28
847.002	5559.38
847.186	5805.14
847.37	5463.13
847.554	5194.84
847.738	5575.77
847.922	5758.03
848.106	5788.75
848.29	5223.51
848.473	5264.47
848.657	5618.77
848.841	5641.3
849.025	5246.04
849.209	5192.8
849.392	5706.84
849.576	5461.08
849.76	5031.01
849.944	5459.03
850.127	5895.25
850.311	5213.28
850.495	5270.62
850.678	5196.89
850.862	5880.91
851.046	5737.56
851.229	5508.18
851.413	5080.16
851.596	5444.7
851.78	5489.75
851.964	5518.42
852.147	5307.48
852.331	6177.87
852.514	5686.36
852.698	5506.13
852.881	5272.67
853.065	5653.59
853.248	5375.06
853.431	5434.46
853.615	5383.26
853.798	6042.7
853.982	5461.08
854.165	5305.43
854.348	5219.42
854.532	5198.94
854.715	5473.37
854.898	5227.61
855.081	5137.5
855.265	5751.89
855.448	5751.89
855.631	5020.77
855.814	5164.12
855.997	5467.22
856.181	5440.6
856.364	5172.32
856.547	5010.53
856.73	5422.17
856.913	5227.61
857.096	4926.56
857.279	5198.94
857.462	5063.77
857.645	5594.2
857.828	5291.1
858.011	5198.94
858.194	5018.72
858.377	5571.67
858.56	5022.81
858.743	5252.19
858.926	5022.81
859.109	5420.12
859.292	5106.78
859.475	4848.74
859.658	5401.69
859.841	5499.99
860.023	4992.09
860.206	4828.26
860.389	5467.22
860.572	5567.57
860.755	4906.08
860.937	5061.73
861.12	5092.44
861.303	5211.23
861.486	4906.08
861.668	4942.94
861.851	5325.91
862.034	5336.15
862.216	4932.7
862.399	4732
862.581	5184.6
862.764	5465.18
862.947	5198.94
863.129	4906.08
863.312	4852.83
863.494	5346.39
863.677	5094.49
863.859	4869.22
864.042	5344.35
864.224	5545.05
864.406	4828.26
864.589	4758.63
864.771	5096.54
864.954	4729.95
865.136	4746.34
865.318	4715.62
865.501	5047.39
865.683	4650.08
865.865	4732
866.048	4844.64
866.23	5205.08
866.412	5039.2
866.594	4740.19
866.777	4785.25
866.959	5311.58
867.141	4830.3
867.323	4901.98
867.505	4951.14
867.687	5057.63
867.869	5061.73
868.052	4734.05
868.234	4799.59
868.416	5000.29
868.598	5117.02
868.78	4521.06
868.962	4668.52
869.144	5332.06
869.326	5145.69
869.508	4729.95
869.69	4605.03
869.872	4893.79
870.054	5239.9
870.236	4576.36
870.417	4496.49
870.599	4934.75
870.781	5379.16
870.963	4709.47
871.145	4521.06
871.327	4783.2
871.508	5043.29
871.69	4736.1
871.872	4766.82
872.054	4953.18
872.235	5096.54
872.417	4785.25
872.599	4543.59
872.78	5067.87
872.962	4918.37
873.144	4615.27
873.325	4793.44
873.507	5385.3
873.689	4975.71
873.87	4498.53
874.052	4848.74
874.233	4742.24
874.415	5076.06
874.596	4772.96
874.778	4529.25
874.959	4879.46
875.141	5074.01
875.322	4727.91
875.503	4615.27
875.685	5127.26
875.866	4609.12
876.048	4617.32
876.229	4494.44
876.41	4750.43
876.592	5106.78
876.773	4742.24
876.954	4396.14
877.136	5321.82
877.317	4875.36
877.498	4492.39
877.679	4832.35
877.86	5080.16
878.042	4715.62
878.223	4680.8
878.404	5055.58
878.585	5180.51
878.766	5192.8
878.947	4920.42
879.128	4863.07
879.309	5344.35
879.49	5295.19
879.672	4875.36
879.853	4912.22
880.034	4807.78
880.215	4963.42
880.396	5065.82
880.576	4824.16
880.757	4881.5
880.938	5450.84
881.119	4904.03
881.3	4803.68
881.481	4920.42
881.662	5745.75
881.843	4625.51
882.023	4764.77
882.204	5067.87
882.385	5145.69
882.566	5014.62
882.747	4787.3
882.927	4928.61
883.108	5221.47
883.289	4781.15
883.469	5065.82
883.65	5114.97
883.831	5114.97
884.011	5002.33
884.192	4893.79
884.373	5309.53
884.553	5168.22
884.734	5037.15
884.914	5092.44
885.095	5768.27
885.275	5360.73
885.456	5215.32
885.636	4815.97
885.817	5125.21
885.997	5051.49
886.178	4854.88
886.358	5178.46
886.538	5180.51
886.719	6003.79
886.899	4877.41
887.08	5035.1
887.26	5483.61
887.44	5035.1
887.621	4932.7
887.801	5127.26
887.981	5760.08
888.161	5502.04
888.342	5172.32
888.522	5301.34
888.702	5583.96
888.882	5487.7
889.062	5377.11
889.242	4721.76
889.423	5766.23
889.603	5358.68
889.783	5112.92
889.963	4994.14
890.143	5483.61
890.323	5596.25
890.503	5022.81
890.683	5137.5
890.863	5336.15
891.043	5332.06
891.223	5160.03
891.403	5319.77
891.583	5342.3
891.763	5395.54
891.943	5157.98
892.122	5043.29
892.302	5475.42
892.482	5342.3
892.662	5438.55
892.842	5270.62
893.022	5499.99
893.201	5237.85
893.381	5403.74
893.561	5145.69
893.741	5796.95
893.92	5663.83
894.1	5454.94
894.28	5323.87
894.459	5606.49
894.639	5622.87
894.819	5061.73
894.998	5246.04
895.178	5481.56
895.357	5477.46
895.537	5082.21
895.716	5119.07
895.896	5461.08
896.075	5565.53
896.255	5127.26
896.434	4928.61
896.614	5719.12
896.793	5614.68
896.973	5352.54
897.152	5385.3
897.331	5510.23
897.511	5497.94
897.69	5012.57
897.87	5284.95
898.049	5622.87
898.228	5330.01
898.407	5358.68
898.587	5354.58
898.766	5241.95
898.945	5473.37
899.124	5174.36
899.304	5182.56
899.483	5497.94
899.662	5837.91
899.841	5168.22
900.02	5061.73
900.199	5565.53
900.378	5508.18
900.557	5041.25
900.737	5076.06
900.916	5311.58
901.095	5520.47
901.274	5383.26
901.453	5110.88
901.632	5053.53
901.811	5313.63
901.989	5143.64
902.168	4930.66
902.347	5475.42
902.526	5100.64
902.705	5031.01
902.884	5143.64
903.063	5629.01
903.242	5698.64
903.42	4877.41
903.599	5043.29
903.778	5395.54
903.957	5463.13
904.135	5104.73
904.314	5047.39
904.493	5305.43
904.672	5330.01
904.85	5076.06
905.029	4981.85
905.207	5301.34
905.386	6048.85
905.565	4717.67
905.743	4912.22
905.922	5211.23
906.1	5256.28
906.279	4691.04
906.457	4783.2
906.636	4932.7
906.814	4947.04
906.993	4877.41
907.171	4932.7
907.35	5385.3
907.528	5370.97
907.707	5162.08
907.885	4904.03
908.063	5540.95
908.242	4840.54
908.42	4772.96
908.598	4607.08
908.777	5153.88
908.955	4924.51
909.133	4957.28
909.311	4643.94
909.49	4947.04
909.668	4908.13
909.846	4748.39
910.024	4566.12
910.202	5106.78
910.38	5235.8
910.559	4547.69
910.737	4717.67
910.915	4992.09
911.093	5008.48
911.271	4865.12
911.449	4959.33
911.627	5069.92
911.805	5389.4
911.983	4873.31
912.161	4699.23
912.339	5100.64
912.517	5131.36
912.695	4650.08
912.872	4668.52
913.05	4478.05
913.228	4822.11
913.406	4555.88
913.584	4705.38
913.762	4942.94
913.939	4576.36
914.117	4539.49
914.295	4453.48
914.473	4848.74
914.65	4826.21
914.828	4508.77
915.006	4476.01
915.184	4494.44
915.361	4617.32
915.539	4598.88
915.716	4811.87
915.894	4670.56
916.072	4822.11
916.249	4793.44
916.427	4564.07
916.604	4480.1
916.782	4928.61
916.959	4342.89
917.137	4271.21
917.314	4641.89
917.492	4719.71
917.669	4375.66
917.847	4445.29
918.024	4576.36
918.201	4383.85
918.379	4426.86
918.556	4359.27
918.733	4840.54
918.911	4502.63
919.088	4617.32
919.265	4265.07
919.442	4570.21
919.62	4269.16
919.797	4183.15
919.974	4095.08
920.151	4539.49
920.328	4344.94
920.506	4213.87
920.683	4168.81
920.86	4299.88
921.037	4267.11
921.214	4066.41
921.391	4090.99
921.568	4639.84
921.745	4203.63
921.922	4064.36
922.099	4039.79
922.276	4568.16
922.453	4314.22
922.63	3880.05
922.807	4123.76
922.984	4207.72
923.161	4109.42
923.338	3957.87
923.514	4009.07
923.691	4119.66
923.868	4308.07
924.045	3894.38
924.222	3943.53
924.399	4242.54
924.575	4451.43
924.752	4068.46
924.929	4023.41
925.105	4056.17
925.282	3826.8
925.459	3841.14
925.635	3966.06
925.812	3994.73
925.989	4103.28
926.165	3929.2
926.342	3619.96
926.518	3654.77
926.695	4119.66
926.871	3751.03
927.048	3595.38
927.224	4095.08
927.401	3880.05
927.577	3798.13
927.754	3572.85
927.93	4193.39
928.107	3933.29
928.283	3554.42
928.459	3705.97
928.636	3959.92
928.812	3710.07
928.988	3558.52
929.165	3390.58
929.341	3820.66
929.517	3673.2
929.693	3757.17
929.87	3298.42
930.046	3918.96
930.222	3495.03
930.398	3329.14
930.574	3472.5
930.751	3683.44
930.927	3394.68
931.103	3517.56
931.279	3452.02
931.455	3447.93
931.631	3478.65
931.807	3189.88
931.983	3263.61
932.159	3267.7
932.335	3544.18
932.511	3296.38
932.687	3163.26
932.863	3648.63
933.039	3431.54
933.215	3126.39
933.391	3107.96
933.566	3298.42
933.742	3380.34
933.918	3067
934.094	2909.31
934.27	3296.38
934.445	3361.91
934.621	3124.35
934.797	2821.25
934.973	3331.19
935.148	3239.03
935.324	2706.56
935.5	2624.64
935.675	3306.62
935.851	3017.85
936.027	2718.85
936.202	2788.48
936.378	3077.24
936.553	2845.82
936.729	3060.86
936.904	2575.49
937.08	2481.28
937.255	2495.62
937.431	2475.14
937.606	2256.01
937.782	2423.94
937.957	2612.35
938.133	2395.27
938.308	2342.02
938.483	2552.96
938.659	2253.96
938.834	2280.58
939.009	2153.61
939.185	2272.39
939.36	2008.2
939.535	1780.88
939.71	2178.19
939.886	2413.7
940.061	2245.77
940.236	2153.61
940.411	2026.64
940.586	2079.88
940.761	2169.99
940.937	1993.87
941.112	1735.82
941.287	2047.12
941.462	1993.87
941.637	1830.03
941.812	1764.5
941.987	2129.03
942.162	1954.96
942.337	1885.33
942.512	1897.61
942.687	2026.64
942.862	2030.73
943.037	1682.58
943.212	1402.01
943.386	1819.79
943.561	1938.57
943.736	1905.81
943.911	1854.61
944.086	1946.76
944.26	1920.14
944.435	1696.91
944.61	1834.13
944.785	2217.1
944.959	2131.08
945.134	1612.95
945.309	1535.12
945.483	1604.75
945.658	2045.07
945.833	1510.55
946.007	1457.3
946.182	2196.62
946.357	1676.43
946.531	1496.21
946.706	1559.7
946.88	1506.45
947.055	1840.27
947.229	1651.86
947.404	1549.46
947.578	1981.58
947.752	1719.44
947.927	1471.64
948.101	1369.24
948.276	1834.13
948.45	1827.98
948.624	1719.44
948.799	1608.85
948.973	1821.84
949.147	1457.3
949.321	1748.11
949.496	1596.56
949.67	2022.54
949.844	1643.67
950.018	1596.56
950.193	1598.61
950.367	2305.16
950.541	1789.07
950.715	1748.11
950.889	1770.64
951.063	1725.58
951.237	1815.69
951.411	1399.96
951.585	1416.34
951.759	1903.76
951.933	1780.88
952.107	1502.36
952.281	1760.4
952.455	2075.79
952.629	1948.81
952.803	1629.33
952.977	1522.84
953.151	1918.09
953.325	1926.29
953.499	1709.2
953.672	1553.55
953.846	1477.78
954.02	1612.95
954.194	1510.55
954.368	1592.47
954.541	1830.03
954.715	1617.04
954.889	1643.67
955.062	1547.41
955.236	1805.46
955.41	1707.15
955.583	1735.82
955.757	1457.3
955.93	1633.43
956.104	1635.47
956.278	1598.61
956.451	1520.79
956.625	1862.8
956.798	2112.65
956.972	1764.5
957.145	1471.64
957.319	1764.5
957.492	1641.62
957.665	1807.5
957.839	1502.36
958.012	1973.39
958.185	1682.58
958.359	1684.62
958.532	1694.86
958.705	2016.4
958.879	1707.15
959.052	1594.51
959.225	1395.86
959.398	1639.57
959.572	1651.86
959.745	1465.49
959.918	1674.39
960.091	1627.28
960.264	1760.4
960.438	1514.64
960.611	1520.79
960.784	1811.6
960.957	1451.16
961.13	1899.66
961.303	1449.11
961.476	1649.81
961.649	1897.61
961.822	1406.1
961.995	1526.93
962.168	1864.85
962.341	1668.24
962.514	1467.54
962.686	1373.33
962.859	1832.08
963.032	1744.02
963.205	1422.48
963.378	1287.32
963.551	1848.46
963.723	1739.92
963.896	1629.33
964.069	1537.17
964.242	1580.18
964.414	1879.18
964.587	1528.98
964.76	1506.45
964.932	1733.78
965.105	1592.47
965.278	1481.88
965.45	1371.29
965.623	1662.1
965.795	1801.36
965.968	1557.65
966.14	1432.72
966.313	1617.04
966.485	1582.23
966.658	1461.4
966.83	1471.64
967.003	1885.33
967.175	1846.41
967.348	1412.25
967.52	1438.87
967.692	1957
967.865	1690.77
968.037	1531.03
968.209	1692.82
968.382	1623.19
968.554	1965.2
968.726	1453.2
968.898	1379.48
969.071	1631.38
969.243	1707.15
969.415	1547.41
969.587	1531.03
969.759	2202.76
969.932	1748.11
970.104	1537.17
970.276	1272.98
970.448	1371.29
970.62	1547.41
970.792	1543.32
970.964	1528.98
971.136	2133.13
971.308	1731.73
971.48	1367.19
971.652	1373.33
971.824	1868.94
971.996	1469.59
972.168	1469.59
972.339	1451.16
972.511	1780.88
972.683	1416.34
972.855	1555.6
973.027	1326.23
973.199	1504.4
973.37	1604.75
973.542	1457.3
973.714	1483.92
973.886	1592.47
974.057	1631.38
974.229	1156.25
974.401	1264.79
974.572	1320.09
974.744	1103
974.915	1250.46
975.087	1305.75
975.259	1895.57
975.43	1348.76
975.602	1420.44
975.773	1227.93
975.945	1242.26
976.116	1588.37
976.288	1338.52
976.459	1543.32
976.63	1381.53
976.802	1551.51
976.973	1291.41
977.145	1399.96
977.316	1866.89
977.487	1737.87
977.659	1463.44
977.83	1305.75
978.001	1883.28
978.172	1574.03
978.344	1174.68
978.515	1197.21
978.686	1352.85
978.857	1823.89
979.028	1348.76
979.2	1268.89
979.371	1819.79
979.542	1377.43
979.713	1402.01
979.884	988.32
980.055	1289.37
980.226	1391.77
980.397	1279.13
980.568	1182.87
980.739	1506.45
980.91	1315.99
981.081	1436.82
981.252	1107.1
981.423	1535.12
981.594	1696.91
981.765	1109.15
981.936	1291.41
982.106	1422.48
982.277	1565.84
982.448	1154.2
982.619	1275.03
982.79	1287.32
982.96	1694.86
983.131	1289.37
983.302	1094.81
983.472	1344.66
983.643	1418.39
983.814	1232.02
983.984	1096.86
984.155	1260.7
984.326	1584.27
984.496	1225.88
984.667	1115.29
984.837	1178.78
985.008	1614.99
985.178	1326.23
985.349	1223.83
985.519	1375.38
985.69	1178.78
985.86	1137.82
986.031	1141.91
986.201	1338.52
986.371	1555.6
986.542	1055.9
986.712	1002.65
986.882	1365.14
987.053	1367.19
987.223	971.93
987.393	1164.44
987.563	1152.15
987.734	1481.88
987.904	1416.34
988.074	1143.96
988.244	1451.16
988.414	1074.33
988.585	1059.99
988.755	1191.06
988.925	1246.36
989.095	1631.38
989.265	1025.18
989.435	1158.3
989.605	1361.05
989.775	1406.1
989.945	1254.55
990.115	984.22
990.285	1256.6
990.455	1219.74
990.625	1100.95
990.795	1039.51
990.965	1496.21
991.134	1055.9
991.304	898.2
991.474	1031.32
991.644	1395.86
991.814	1674.39
991.984	922.78
992.153	1041.56
992.323	1260.7
992.493	1252.5
992.662	875.68
992.832	1092.76
993.002	1217.69
993.171	1203.35
993.341	945.31
993.511	1197.21
993.68	1010.84
993.85	1404.05
994.019	810.14
994.189	840.86
994.358	1191.06
994.528	1059.99
994.697	705.7
994.867	855.2
995.036	1330.33
995.206	1031.32
995.375	887.97
995.544	1051.8
995.714	1154.2
995.883	1039.51
996.052	1084.57
996.222	722.08
996.391	1662.1
996.56	1184.92
996.73	799.9
996.899	672.93
997.068	1436.82
997.237	1064.09
997.406	793.76
997.576	756.9
997.745	1160.34
997.914	1148.06
998.083	683.17
998.252	808.09
998.421	1066.14
998.59	1021.08
998.759	750.75
998.928	621.73
999.097	1238.17
999.266	1217.69
999.435	918.68
999.604	640.16
999.773	1524.88
999.942	930.97
1000.111	691.36
1000.28	724.13
1000.448	806.05
1000.617	881.82
1000.786	963.74
1000.955	648.35
1001.124	947.36
1001.292	1721.49
1001.461	736.42
1001.63	836.77
1001.798	1387.67
1001.967	1293.46
1002.136	777.37
1002.304	750.75
1002.473	1152.15
1002.642	1059.99
1002.81	791.71
1002.979	679.07
1003.147	1131.67
1003.316	1633.43
1003.484	726.18
1003.653	793.76
1003.821	1334.42
1003.99	898.2
1004.158	828.57
1004.327	840.86
1004.495	1090.71
1004.663	855.2
1004.832	908.44
1005	498.85
1005.168	1156.25
1005.337	1045.66
1005.505	580.77
1005.673	785.57
1005.842	1115.29
1006.01	1008.8
1006.178	660.64
1006.346	779.42
1006.514	1039.51
1006.683	1221.78
1006.851	595.11
1007.019	511.14
1007.187	701.6
1007.355	449.7
1007.523	492.71
1007.691	562.34
1007.859	595.11
1008.027	1246.36
1008.195	693.41
1008.363	511.14
1008.531	1150.11
1008.699	783.52
1008.867	521.38
1009.035	629.92
1009.203	1121.43
1009.37	875.68
1009.538	627.87
1009.706	1006.75
1009.874	978.08
1010.042	877.73
1010.209	548
1010.377	617.63
1010.545	1092.76
1010.713	916.64
1010.88	595.11
1011.048	611.49
1011.216	836.77
1011.383	1170.58
1011.551	572.58
1011.718	414.88
1011.886	1047.71
1012.054	894.11
1012.221	642.21
1012.389	496.8
1012.556	740.51
1012.724	1330.33
1012.891	607.39
1013.058	439.46
1013.226	957.6
1013.393	1016.99
1013.561	380.07
1013.728	378.02
1013.895	928.92
1014.063	953.5
1014.23	328.87
1014.397	408.74
1014.565	1051.8
1014.732	754.85
1014.899	468.13
1015.066	476.32
1015.233	734.37
1015.401	976.03
1015.568	584.87
1015.735	543.91
1015.902	847.01
1016.069	871.58
1016.236	515.23
1016.403	371.88
1016.57	548
1016.737	1016.99
1016.904	453.8
1017.071	294.05
1017.238	631.97
1017.405	941.21
1017.572	494.76
1017.739	572.58
1017.906	851.1
1018.073	1002.65
1018.24	410.79
1018.407	484.52
1018.573	941.21
1018.74	679.07
1018.907	498.85
1019.074	314.53
1019.241	947.36
1019.407	709.79
1019.574	373.92
1019.741	357.54
1019.907	711.84
1020.074	814.24
1020.241	201.9
1020.407	388.26
1020.574	828.57
1020.74	842.91
1020.907	447.65
1021.073	263.33
1021.24	1162.39
1021.406	1029.27
1021.573	277.67
1021.739	361.64
1021.906	849.05
1022.072	724.13
1022.239	335.01
1022.405	408.74
1022.571	703.65
1022.738	541.86
1022.904	388.26
1023.07	406.69
1023.237	636.06
1023.403	904.35
1023.569	431.27
1023.735	418.98
1023.902	789.66
1024.068	783.52
1024.234	292.01
1024.4	445.6
1024.566	677.02
1024.732	779.42
1024.898	406.69
1025.065	347.3
1025.231	812.19
1025.397	588.96
1025.563	330.92
1025.729	267.43
1025.895	277.67
1026.061	408.74
1026.227	210.09
1026.392	273.57
1026.558	922.78
1026.724	662.69
1026.89	316.58
1027.056	345.25
1027.222	787.61
1027.388	509.09
1027.553	255.14
1027.719	322.73
1027.885	998.56
1028.051	703.65
1028.216	193.7
1028.382	244.9
1028.548	777.37
1028.713	507.04
1028.879	216.23
1029.045	378.02
1029.21	855.2
1029.376	795.81
1029.541	312.49
1029.707	351.4
1029.873	736.42
1030.038	793.76
1030.204	201.9
1030.369	378.02
1030.534	834.72
1030.7	537.76
1030.865	378.02
1031.031	238.76
1031.196	562.34
1031.361	642.21
1031.527	265.38
1031.692	212.14
1031.857	177.32
1032.023	765.09
1032.188	177.32
1032.353	302.25
1032.518	951.45
1032.684	644.26
1032.849	81.07
1033.014	308.39
1033.179	781.47
1033.344	756.9
1033.509	378.02
1033.674	283.81
1033.839	679.07
1034.004	781.47
1034.17	201.9
1034.335	103.59
1034.5	480.42
1034.664	427.17
1034.829	175.27
1034.994	289.96
1035.159	656.54
1035.324	537.76
1035.489	269.48
1035.654	130.22
1035.819	894.11
1035.984	580.77
1036.148	283.81
1036.313	177.32
1036.478	814.24
1036.643	685.22
1036.807	171.18
1036.972	103.59
1037.137	869.53
1037.301	500.9
1037.466	134.31
1037.631	244.9
1037.795	816.29
1037.96	531.62
1038.124	392.36
1038.289	140.46
1038.454	711.84
1038.618	646.3
1038.783	255.14
1038.947	302.25
1039.111	568.48
1039.276	388.26
1039.44	58.54
1039.605	611.49
1039.769	330.92
1039.933	470.18
1040.098	240.81
1040.262	427.17
1040.426	715.94
1040.591	648.35
1040.755	99.5
1040.919	199.85
1041.083	619.68
1041.248	457.89
1041.412	85.16
1041.576	138.41
1041.74	519.33
1041.904	691.36
1042.068	97.45
1042.232	201.9
1042.397	693.41
1042.561	582.82
1042.725	-21.33
1042.889	347.3
1043.053	634.02
1043.217	623.78
1043.381	304.29
1043.544	-45.91
1043.708	799.9
1043.872	253.09
1044.036	-78.68
1044.2	-17.24
1044.364	674.98
1044.528	855.2
1044.691	3607.67
1044.855	36.01
1045.019	674.98
1045.183	566.43
1045.346	246.95
1045.51	62.63
1045.674	447.65
1045.837	703.65
1046.001	85.16
1046.165	27.82
1046.328	947.36
1046.492	591.01
1046.655	322.73
1046.819	140.46
1046.983	267.43
1047.146	574.63
1047.31	216.23
1047.473	-121.68
1047.636	429.22
1047.8	251.05
1047.963	144.55
1048.127	203.94
1048.29	320.68
