Data from Ink_Intensity_USB4F045381__189__00189.txt Node

Date: Mon Jul 17 11:44:51 EDT 2023
User: mmckonesweet
Spectrometer: USB4F04538
Trigger mode: 4
Integration Time (sec): 9.000000E-1
Scans to average: 1
Electric dark correction enabled: true
Nonlinearity correction enabled: false
Boxcar width: 0
XAxis mode: Wavelengths
Number of Pixels in Spectrum: 3648
>>>>>Begin Spectral Data<<<<<
345.52	-1003.68
345.736	-1003.68
345.952	-1003.68
346.168	-1015.96
346.384	-1063.07
346.6	-96.43
346.816	-268.45
347.032	-194.73
347.248	206.67
347.464	-231.59
347.68	-133.29
347.896	98.13
348.112	393.04
348.328	-12.46
348.544	-67.75
348.76	53.08
348.975	253.78
349.191	-194.73
349.407	-231.59
349.623	-39.08
349.839	-106.67
350.055	-213.16
350.27	-14.51
350.486	137.04
350.702	325.46
350.918	264.02
351.133	-211.11
351.349	112.47
351.565	366.42
351.781	-278.69
351.996	-30.89
352.212	302.93
352.428	-131.24
352.644	-295.08
352.859	-305.32
353.075	235.35
353.291	53.08
353.506	-161.96
353.722	-301.22
353.938	-45.23
354.153	407.38
354.369	55.12
354.584	-274.6
354.8	243.54
355.016	-463.01
355.231	-245.93
355.447	-118.95
355.662	10.07
355.878	798.54
356.093	-323.75
356.309	-75.95
356.524	-276.65
356.74	249.68
356.955	-313.51
357.171	-112.81
357.386	104.28
357.602	-233.64
357.817	-73.9
358.033	-196.78
358.248	288.59
358.464	135
358.679	-235.69
358.895	-399.52
359.11	-82.09
359.325	227.15
359.541	-75.95
359.756	-57.51
359.972	-333.99
360.187	149.33
360.402	-290.98
360.618	-221.35
360.833	1042.25
361.048	182.1
361.264	-217.26
361.479	-59.56
361.694	-45.23
361.909	143.19
362.125	-180.39
362.34	-155.82
362.555	227.15
362.77	20.31
362.986	-305.32
363.201	-153.77
363.416	182.1
363.631	-63.66
363.847	-268.45
364.062	-159.91
364.277	175.95
364.492	120.66
364.707	-276.65
364.922	-432.29
365.138	206.67
365.353	317.26
365.568	-258.21
365.783	-168.1
365.998	-6.31
366.213	505.68
366.428	-333.99
366.643	87.89
366.858	214.87
367.073	153.43
367.288	-92.33
367.503	-270.5
367.718	69.46
367.933	337.74
368.148	-362.66
368.363	-96.43
368.578	-53.42
368.793	403.28
369.008	-194.73
369.223	-284.84
369.438	184.15
369.653	331.6
369.868	-303.27
370.083	-333.99
370.298	63.32
370.513	360.27
370.728	83.8
370.943	-243.88
371.157	-157.86
371.372	563.02
371.587	-389.28
371.802	-379.04
372.017	139.09
372.232	354.13
372.446	1.88
372.661	-223.4
372.876	135
373.091	149.33
373.306	-153.77
373.52	-307.37
373.735	-252.07
373.95	366.42
374.165	-88.23
374.379	-221.35
374.594	-121
374.809	96.08
375.023	18.26
375.238	-333.99
375.453	266.07
375.667	-366.76
375.882	-129.19
376.097	-247.97
376.311	-30.89
376.526	-22.7
376.741	-231.59
376.955	71.51
377.17	429.9
377.384	538.45
377.599	-155.82
377.813	-313.51
378.028	517.97
378.242	192.34
378.457	-114.86
378.672	-387.24
378.886	5.97
379.101	-213.16
379.315	-338.09
379.53	-198.82
379.744	94.04
379.958	165.71
380.173	-176.3
380.387	-245.93
380.602	153.43
380.816	-137.38
381.031	-143.53
381.245	-196.78
381.459	116.56
381.674	2764.59
381.888	-297.13
382.103	-39.08
382.317	-219.3
382.531	442.19
382.746	-153.77
382.96	-301.22
383.174	-149.67
383.388	427.85
383.603	34.64
383.817	-231.59
384.031	91.99
384.246	460.62
384.46	-129.19
384.674	268.11
384.888	-71.85
385.103	85.84
385.317	-356.52
385.531	-45.23
385.745	345.94
385.959	186.19
386.174	-207.02
386.388	-327.85
386.602	-41.13
386.816	-200.87
387.03	-198.82
387.244	-53.42
387.458	-6.31
387.672	225.11
387.887	-344.23
388.101	-432.29
388.315	337.74
388.529	141.14
388.743	-96.43
388.957	-288.93
389.171	325.46
389.385	-198.82
389.599	-161.96
389.813	36.69
390.027	192.34
390.241	579.4
390.455	-159.91
390.669	-157.86
390.883	-112.81
391.097	309.07
391.311	24.4
391.525	-219.3
391.738	192.34
391.952	190.29
392.166	-178.34
392.38	-319.65
392.594	333.65
392.808	247.63
393.022	-123.05
393.236	-170.15
393.449	124.76
393.663	59.22
393.877	-393.38
394.091	-137.38
394.305	-139.43
394.518	-104.62
394.732	-340.13
394.946	-209.06
395.16	403.28
395.373	-18.6
395.587	-276.65
395.801	-186.54
396.015	243.54
396.228	235.35
396.442	-278.69
396.656	-460.96
396.869	282.45
397.083	401.23
397.297	-75.95
397.51	-219.3
397.724	397.14
397.938	79.7
398.151	-297.13
398.365	-374.95
398.578	169.81
398.792	370.51
399.005	-63.66
399.219	-137.38
399.433	112.47
399.646	247.63
399.86	-30.89
400.073	-4.27
400.287	214.87
400.5	-34.99
400.714	-96.43
400.927	-102.57
401.141	214.87
401.354	1009.48
401.567	218.96
401.781	-284.84
401.994	216.91
402.208	534.35
402.421	-170.15
402.635	-215.21
402.848	-4.27
403.061	274.26
403.275	-98.47
403.488	-290.98
403.701	323.41
403.915	223.06
404.128	40.79
404.341	-143.53
404.555	196.43
404.768	-30.89
404.981	-14.51
405.195	-157.86
405.408	427.85
405.621	151.38
405.834	-39.08
406.048	-295.08
406.261	415.57
406.474	425.81
406.687	-276.65
406.9	-86.19
407.114	-14.51
407.327	231.25
407.54	-260.26
407.753	-383.14
407.966	-243.88
408.179	227.15
408.392	-129.19
408.605	-329.89
408.819	24.4
409.032	102.23
409.245	-219.3
409.458	-12.46
409.671	192.34
409.884	192.34
410.097	-348.33
410.31	-10.41
410.523	196.43
410.736	-32.94
410.949	-39.08
411.162	-184.49
411.375	347.98
411.588	221.01
411.801	65.36
412.014	-254.12
412.227	-94.38
412.44	-67.75
412.653	-184.49
412.865	-98.47
413.078	313.17
413.291	116.56
413.504	-141.48
413.717	-215.21
413.93	227.15
414.143	-223.4
414.356	-207.02
414.568	-436.39
414.781	329.55
414.994	104.28
415.207	-178.34
415.42	-194.73
415.632	233.3
415.845	493.39
416.058	-413.86
416.271	-317.61
416.483	71.51
416.696	485.2
416.909	-266.41
417.121	-227.5
417.334	171.86
417.547	415.57
417.759	-272.55
417.972	-215.21
418.185	-80.04
418.397	257.87
418.61	-270.5
418.823	-217.26
419.035	313.17
419.248	51.03
419.46	-88.23
419.673	-157.86
419.885	63.32
420.098	-59.56
420.311	-137.38
420.523	-391.33
420.736	186.19
420.948	34.64
421.161	-217.26
421.373	-415.91
421.586	122.71
421.798	-112.81
422.01	-370.85
422.223	-137.38
422.435	-149.67
422.648	225.11
422.86	-227.5
423.073	-215.21
423.285	208.72
423.497	-256.17
423.71	-223.4
423.922	-262.31
424.134	186.19
424.347	384.85
424.559	-26.79
424.771	-6.31
424.984	-112.81
425.196	57.17
425.408	-393.38
425.621	-342.18
425.833	212.82
426.045	304.98
426.257	-342.18
426.47	-141.48
426.682	112.47
426.894	182.1
427.106	-211.11
427.318	-202.92
427.531	-151.72
427.743	243.54
427.955	-233.64
428.167	198.48
428.379	163.67
428.591	-14.51
428.804	-143.53
429.016	-280.74
429.228	-137.38
429.44	184.15
429.652	-12.46
429.864	-395.43
430.076	-49.32
430.288	-80.04
430.5	-141.48
430.712	-112.81
430.924	290.64
431.136	184.15
431.348	-372.9
431.56	-247.97
431.772	28.5
431.984	-145.58
432.196	-284.84
432.408	-233.64
432.62	-118.95
432.832	55.12
433.044	63.32
433.256	-112.81
433.468	98.13
433.679	-366.76
433.891	-272.55
434.103	34.64
434.315	264.02
434.527	178
434.739	-153.77
434.95	-186.54
435.162	204.63
435.374	-182.44
435.586	-243.88
435.798	-190.63
436.009	-272.55
436.221	20.31
436.433	-276.65
436.645	-184.49
436.856	-26.79
437.068	266.07
437.28	-336.04
437.491	-0.17
437.703	83.8
437.915	51.03
438.126	-215.21
438.338	-41.13
438.55	-26.79
438.761	173.91
438.973	-211.11
439.184	-186.54
439.396	-110.76
439.608	235.35
439.819	-313.51
440.031	-77.99
440.242	231.25
440.454	178
440.665	-221.35
440.877	-192.68
441.088	83.8
441.3	-43.18
441.511	-372.9
441.723	-315.56
441.934	128.85
442.146	87.89
442.357	-104.62
442.569	73.56
442.78	26.45
442.991	341.84
443.203	61.27
443.414	-309.41
443.626	321.36
443.837	-202.92
444.048	-389.28
444.26	-405.67
444.471	-20.65
444.682	188.24
444.894	-344.23
445.105	-333.99
445.316	227.15
445.528	85.84
445.739	-59.56
445.95	-204.97
446.161	100.18
446.373	196.43
446.584	-225.45
446.795	-211.11
447.006	216.91
447.217	378.7
447.429	-372.9
447.64	-356.52
447.851	300.88
448.062	-8.36
448.273	-415.91
448.484	-284.84
448.695	171.86
448.907	-18.6
449.118	-127.14
449.329	-47.27
449.54	-137.38
449.751	-235.69
449.962	-327.85
450.173	-297.13
450.384	290.64
450.595	304.98
450.806	-290.98
451.017	-290.98
451.228	390.99
451.439	239.44
451.65	-133.29
451.861	-454.82
452.072	-225.45
452.283	38.74
452.494	-45.23
452.705	-348.33
452.915	358.22
453.126	120.66
453.337	-145.58
453.548	-317.61
453.759	247.63
453.97	581.45
454.181	-22.7
454.391	-270.5
454.602	3.93
454.813	94.04
455.024	-235.69
455.235	-293.03
455.445	87.89
455.656	94.04
455.867	-108.71
456.078	-194.73
456.288	-86.19
456.499	59.22
456.71	-301.22
456.921	1.88
457.131	87.89
457.342	20.31
457.553	-178.34
457.763	-178.34
457.974	91.99
458.184	161.62
458.395	-391.33
458.606	-354.47
458.816	241.49
459.027	431.95
459.237	-157.86
459.448	-440.48
459.659	249.68
459.869	616.27
460.08	-415.91
460.29	-145.58
460.501	427.85
460.711	-166.06
460.922	-395.43
461.132	-245.93
461.343	683.85
461.553	-227.5
461.764	-305.32
461.974	-250.02
462.184	157.52
462.395	145.24
462.605	-200.87
462.816	-342.18
463.026	96.08
463.236	223.06
463.447	-356.52
463.657	-278.69
463.867	178
464.078	-178.34
464.288	-176.3
464.498	-309.41
464.709	-59.56
464.919	-6.31
465.129	-256.17
465.339	-333.99
465.55	145.24
465.76	200.53
465.97	-235.69
466.18	-215.21
466.391	200.53
466.601	57.17
466.811	-235.69
467.021	-417.96
467.231	106.32
467.441	317.26
467.651	-254.12
467.862	-487.59
468.072	-10.41
468.282	296.78
468.492	-260.26
468.702	-264.36
468.912	-30.89
469.122	616.27
469.332	-53.42
469.542	-321.7
469.752	204.63
469.962	-2.22
470.172	-290.98
470.382	-366.76
470.592	147.28
470.802	276.31
471.012	-45.23
471.222	-331.94
471.432	141.14
471.642	237.39
471.852	-153.77
472.062	-299.17
472.272	5.97
472.482	-241.83
472.691	-362.66
472.901	-383.14
473.111	104.28
473.321	462.67
473.531	-315.56
473.741	-161.96
473.95	100.18
474.16	141.14
474.37	-215.21
474.58	-356.52
474.79	517.97
474.999	202.58
475.209	-358.57
475.419	-278.69
475.628	-90.28
475.838	343.89
476.048	-239.78
476.258	-417.96
476.467	200.53
476.677	-145.58
476.886	-26.79
477.096	-235.69
477.306	-112.81
477.515	266.07
477.725	-192.68
477.935	-243.88
478.144	395.09
478.354	-108.71
478.563	-254.12
478.773	-377
478.982	214.87
479.192	280.4
479.401	-190.63
479.611	-336.04
479.82	-145.58
480.03	-39.08
480.239	-293.03
480.449	-379.04
480.658	409.42
480.868	-262.31
481.077	-145.58
481.287	-309.41
481.496	169.81
481.705	354.13
481.915	20.31
482.124	85.84
482.333	149.33
482.543	347.98
482.752	-147.62
482.961	-342.18
483.171	218.96
483.38	46.93
483.589	-153.77
483.799	-331.94
484.008	-71.85
484.217	163.67
484.426	-256.17
484.636	-342.18
484.845	114.52
485.054	-290.98
485.263	51.03
485.472	-252.07
485.682	370.51
485.891	14.17
486.1	-315.56
486.309	-340.13
486.518	151.38
486.727	386.9
486.936	-381.09
487.146	-161.96
487.355	296.78
487.564	-102.57
487.773	-219.3
487.982	-290.98
488.191	-118.95
488.4	94.04
488.609	-288.93
488.818	-290.98
489.027	517.97
489.236	393.04
489.445	-260.26
489.654	-278.69
489.863	259.92
490.072	159.57
490.281	83.8
490.49	-194.73
490.698	472.91
490.907	249.68
491.116	-215.21
491.325	-366.76
491.534	354.13
491.743	110.42
491.952	-198.82
492.16	-157.86
492.369	149.33
492.578	190.29
492.787	-149.67
492.996	-372.9
493.204	-145.58
493.413	454.48
493.622	-477.35
493.831	-379.04
494.039	429.9
494.248	-268.45
494.457	-344.23
494.665	-403.62
494.874	223.06
495.083	450.38
495.291	-161.96
495.5	-319.65
495.709	173.91
495.917	83.8
496.126	-227.5
496.335	-223.4
496.543	-34.99
496.752	34.64
496.96	3.93
497.169	-440.48
497.377	-6.31
497.586	202.58
497.794	-127.14
498.003	-403.62
498.211	-39.08
498.42	284.5
498.628	-153.77
498.837	-290.98
499.045	110.42
499.254	38.74
499.462	-258.21
499.671	-350.37
499.879	376.66
500.087	190.29
500.296	-200.87
500.504	-247.97
500.713	14.17
500.921	452.43
501.129	-252.07
501.338	-278.69
501.546	171.86
501.754	51.03
501.962	-217.26
502.171	-420
502.379	91.99
502.587	485.2
502.795	-297.13
503.004	-239.78
503.212	36.69
503.42	198.48
503.628	-325.8
503.837	-235.69
504.045	171.86
504.253	415.57
504.461	-293.03
504.669	-434.34
504.877	225.11
505.085	415.57
505.294	-458.92
505.502	-129.19
505.71	94.04
505.918	202.58
506.126	-383.14
506.334	-323.75
506.542	-28.84
506.75	118.61
506.958	-149.67
507.166	-247.97
507.374	-73.9
507.582	468.81
507.79	-161.96
507.998	-288.93
508.206	141.14
508.414	85.84
508.622	-344.23
508.83	-278.69
509.037	444.24
509.245	-102.57
509.453	-407.72
509.661	-428.2
509.869	165.71
510.077	-20.65
510.285	-166.06
510.492	-614.56
510.7	612.17
510.908	-123.05
511.116	-247.97
511.324	-280.74
511.531	-69.8
511.739	5.97
511.947	-108.71
512.155	-0.17
512.362	157.52
512.57	-241.83
512.778	-313.51
512.985	-499.88
513.193	274.26
513.401	339.79
513.608	-325.8
513.816	-374.95
514.024	165.71
514.231	243.54
514.439	-358.57
514.646	-276.65
514.854	169.81
515.061	329.55
515.269	-325.8
515.477	-309.41
515.684	-241.83
515.892	243.54
516.099	-534.69
516.307	-407.72
516.514	120.66
516.722	399.18
516.929	-315.56
517.136	-387.24
517.344	270.16
517.551	24.4
517.759	-305.32
517.966	-370.85
518.173	-32.94
518.381	-37.03
518.588	-194.73
518.796	-342.18
519.003	233.3
519.21	61.27
519.418	-329.89
519.625	-26.79
519.832	-43.18
520.039	-45.23
520.247	-463.01
520.454	-256.17
520.661	192.34
520.868	104.28
521.076	-276.65
521.283	-227.5
521.49	612.17
521.697	165.71
521.904	-250.02
522.112	-276.65
522.319	225.11
522.526	108.37
522.733	-405.67
522.94	-247.97
523.147	14.17
523.354	182.1
523.561	-485.54
523.768	-207.02
523.975	251.73
524.183	14.17
524.39	-227.5
524.597	-440.48
524.804	30.55
525.011	-250.02
525.218	-344.23
525.425	-295.08
525.632	321.36
525.838	-164.01
526.045	-362.66
526.252	-379.04
526.459	1120.07
526.666	880.46
526.873	-327.85
527.08	-331.94
527.287	290.64
527.494	169.81
527.701	-403.62
527.907	-350.37
528.114	137.04
528.321	-53.42
528.528	-268.45
528.735	-370.85
528.941	-114.86
529.148	-121
529.355	-151.72
529.562	-366.76
529.768	347.98
529.975	-55.47
530.182	-268.45
530.388	-340.13
530.595	186.19
530.802	-309.41
531.008	-194.73
531.215	-237.74
531.422	407.38
531.628	620.36
531.835	-223.4
532.042	-225.45
532.248	-178.34
532.455	24.4
532.661	-174.25
532.868	-280.74
533.074	24.4
533.281	268.11
533.487	-241.83
533.694	-395.43
533.9	-166.06
534.107	106.32
534.313	-295.08
534.52	-415.91
534.726	290.64
534.933	370.51
535.139	-374.95
535.345	-434.34
535.552	89.94
535.758	1.88
535.965	-276.65
536.171	-331.94
536.377	218.96
536.584	284.5
536.79	-256.17
536.996	-204.97
537.203	24.4
537.409	169.81
537.615	-239.78
537.821	-166.06
538.028	223.06
538.234	221.01
538.44	-260.26
538.646	-233.64
538.853	153.43
539.059	-39.08
539.265	96.08
539.471	-465.06
539.677	161.62
539.883	-80.04
540.09	-276.65
540.296	91.99
540.502	-53.42
540.708	-196.78
540.914	-182.44
541.12	-309.41
541.326	192.34
541.532	-133.29
541.738	-276.65
541.944	-317.61
542.15	223.06
542.356	-137.38
542.562	-385.19
542.768	-258.21
542.974	624.46
543.18	501.58
543.386	-352.42
543.592	-497.83
543.798	294.74
544.004	337.74
544.21	-344.23
544.415	-200.87
544.621	42.84
544.827	251.73
545.033	-377
545.239	-69.8
545.445	-215.21
545.651	63.32
545.856	-307.37
546.062	-229.54
546.268	-49.32
546.474	59.22
546.679	-323.75
546.885	-180.39
547.091	-202.92
547.297	530.25
547.502	-258.21
547.708	-417.96
547.914	-129.19
548.119	135
548.325	-327.85
548.531	-364.71
548.736	321.36
548.942	-209.06
549.147	-305.32
549.353	-96.43
549.559	245.59
549.764	36.69
549.97	-274.6
550.175	-303.27
550.381	208.72
550.586	-166.06
550.792	-317.61
550.997	-346.28
551.203	48.98
551.408	81.75
551.614	-434.34
551.819	-389.28
552.025	395.09
552.23	397.14
552.435	-395.43
552.641	-190.63
552.846	-125.1
553.052	206.67
553.257	-131.24
553.462	-340.13
553.668	-94.38
553.873	165.71
554.078	-336.04
554.283	-358.57
554.489	20.31
554.694	-28.84
554.899	-440.48
555.105	-161.96
555.31	145.24
555.515	221.01
555.72	-268.45
555.925	-358.57
556.131	251.73
556.336	-90.28
556.541	-368.81
556.746	-360.61
556.951	331.6
557.156	374.61
557.361	-225.45
557.567	-186.54
557.772	526.16
557.977	210.77
558.182	-327.85
558.387	-403.62
558.592	-151.72
558.797	298.83
559.002	-170.15
559.207	-170.15
559.412	1.88
559.617	397.14
559.822	-303.27
560.027	-397.48
560.232	22.36
560.437	173.91
560.642	-403.62
560.847	-321.7
561.051	94.04
561.256	102.23
561.461	-243.88
561.666	-344.23
561.871	42.84
562.076	112.47
562.281	-325.8
562.485	-413.86
562.69	145.24
562.895	255.83
563.1	-333.99
563.305	-485.54
563.509	251.73
563.714	597.84
563.919	-301.22
564.123	-321.7
564.328	-34.99
564.533	298.83
564.737	-237.74
564.942	-268.45
565.147	309.07
565.351	487.25
565.556	-202.92
565.761	-213.16
565.965	51.03
566.17	-159.91
566.374	-274.6
566.579	-385.19
566.784	63.32
566.988	-86.19
567.193	-424.1
567.397	-329.89
567.602	-250.02
567.806	22.36
568.011	-307.37
568.215	-243.88
568.42	-49.32
568.624	-43.18
568.828	-272.55
569.033	-80.04
569.237	178
569.442	210.77
569.646	-546.98
569.85	-268.45
570.055	-51.37
570.259	44.88
570.463	-39.08
570.668	-268.45
570.872	-8.36
571.076	-86.19
571.281	-231.59
571.485	-260.26
571.689	-6.31
571.893	204.63
572.098	-194.73
572.302	-305.32
572.506	194.39
572.71	59.22
572.914	-207.02
573.119	-250.02
573.323	388.94
573.527	341.84
573.731	-338.09
573.935	-401.57
574.139	169.81
574.343	-139.43
574.547	-260.26
574.751	-336.04
574.955	345.94
575.159	257.87
575.364	-352.42
575.568	-366.76
575.772	-22.7
575.976	329.55
576.18	-362.66
576.383	-417.96
576.587	276.31
576.791	143.19
576.995	-487.59
577.199	-407.72
577.403	157.52
577.607	233.3
577.811	-424.1
578.015	-137.38
578.219	100.18
578.422	182.1
578.626	-211.11
578.83	-39.08
579.034	251.73
579.238	96.08
579.442	-374.95
579.645	100.18
579.849	18.26
580.053	59.22
580.257	-299.17
580.46	-219.3
580.664	184.15
580.868	42.84
581.071	-133.29
581.275	-182.44
581.479	-264.36
581.682	180.05
581.886	-313.51
582.09	-155.82
582.293	163.67
582.497	259.92
582.7	-57.51
582.904	-352.42
583.107	-32.94
583.311	-34.99
583.515	-153.77
583.718	-225.45
583.922	137.04
584.125	517.97
584.329	-313.51
584.532	-151.72
584.735	300.88
584.939	67.41
585.142	-415.91
585.346	-301.22
585.549	77.65
585.753	-102.57
585.956	-264.36
586.159	-145.58
586.363	372.56
586.566	141.14
586.769	-383.14
586.973	-321.7
587.176	89.94
587.379	216.91
587.582	73.56
587.786	-155.82
587.989	8.02
588.192	573.26
588.395	-252.07
588.599	34.64
588.802	91.99
589.005	137.04
589.208	-200.87
589.411	-192.68
589.615	255.83
589.818	388.94
590.021	-71.85
590.224	-178.34
590.427	214.87
590.63	126.8
590.833	-395.43
591.036	-313.51
591.239	-75.95
591.442	-116.9
591.645	-67.75
591.848	-297.13
592.051	106.32
592.254	145.24
592.457	-215.21
592.66	-202.92
592.863	42.84
593.066	130.9
593.269	-280.74
593.472	-129.19
593.675	-125.1
593.878	163.67
594.081	-141.48
594.284	-338.09
594.486	112.47
594.689	36.69
594.892	-80.04
595.095	-170.15
595.298	182.1
595.5	-192.68
595.703	-215.21
595.906	-121
596.109	374.61
596.311	214.87
596.514	-473.25
596.717	-182.44
596.92	288.59
597.122	139.09
597.325	-495.78
597.528	-290.98
597.73	325.46
597.933	-53.42
598.136	-309.41
598.338	-501.92
598.541	114.52
598.743	259.92
598.946	-235.69
599.148	-202.92
599.351	221.01
599.554	225.11
599.756	-157.86
599.959	-223.4
600.161	311.12
600.363	542.54
600.566	-12.46
600.768	-262.31
600.971	415.57
601.173	198.48
601.376	-303.27
601.578	-192.68
601.78	175.95
601.983	649.04
602.185	-295.08
602.388	-61.61
602.59	51.03
602.792	14.17
602.995	-39.08
603.197	-164.01
603.399	300.88
603.601	153.43
603.804	-288.93
604.006	-198.82
604.208	38.74
604.41	-374.95
604.613	-116.9
604.815	-313.51
605.017	542.54
605.219	-127.14
605.421	108.37
605.623	-325.8
605.826	304.98
606.028	356.18
606.23	-270.5
606.432	-245.93
606.634	413.52
606.836	401.23
607.038	-395.43
607.24	-127.14
607.442	75.6
607.644	61.27
607.846	-125.1
608.048	-231.59
608.25	431.95
608.452	-67.75
608.654	-192.68
608.856	-407.72
609.058	-69.8
609.26	175.95
609.462	-188.58
609.664	-202.92
609.866	485.2
610.067	276.31
610.269	1.88
610.471	-141.48
610.673	-71.85
610.875	186.19
611.077	-358.57
611.278	-161.96
611.48	57.17
611.682	452.43
611.884	-170.15
612.085	-176.3
612.287	-207.02
612.489	159.57
612.69	-272.55
612.892	-174.25
613.094	280.4
613.295	139.09
613.497	-346.28
613.699	-184.49
613.9	417.61
614.102	190.29
614.304	-247.97
614.505	-393.38
614.707	-30.89
614.908	-0.17
615.11	-344.23
615.311	-108.71
615.513	161.62
615.714	159.57
615.916	-352.42
616.117	-139.43
616.319	38.74
616.52	188.24
616.722	-268.45
616.923	-260.26
617.124	241.49
617.326	296.78
617.527	-86.19
617.729	-12.46
617.93	266.07
618.131	241.49
618.333	-223.4
618.534	-252.07
618.735	-164.01
618.937	444.24
619.138	-405.67
619.339	-309.41
619.54	108.37
619.742	-61.61
619.943	-20.65
620.144	-237.74
620.345	231.25
620.546	259.92
620.748	-311.46
620.949	-190.63
621.15	114.52
621.351	114.52
621.552	-260.26
621.753	-395.43
621.954	-245.93
622.155	550.73
622.356	-333.99
622.558	-20.65
622.759	135
622.96	460.62
623.161	-237.74
623.362	-217.26
623.563	-30.89
623.764	118.61
623.965	-223.4
624.166	40.79
624.366	-24.75
624.567	22.36
624.768	-438.44
624.969	-243.88
625.17	-59.56
625.371	208.72
625.572	-61.61
625.773	-293.03
625.973	276.31
626.174	223.06
626.375	-196.78
626.576	-202.92
626.777	288.59
626.977	632.65
627.178	-227.5
627.379	-172.2
627.58	3.93
627.78	124.76
627.981	-121
628.182	-51.37
628.382	311.12
628.583	-284.84
628.784	-301.22
628.984	-53.42
629.185	202.58
629.386	218.96
629.586	-116.9
629.787	-323.75
629.987	184.15
630.188	128.85
630.388	-184.49
630.589	-121
630.79	622.41
630.99	30.55
631.191	-135.34
631.391	-94.38
631.591	210.77
631.792	421.71
631.992	-67.75
632.193	-141.48
632.393	511.82
632.594	112.47
632.794	-227.5
632.994	-92.33
633.195	94.04
633.395	46.93
633.595	-198.82
633.796	30.55
633.996	-32.94
634.196	388.94
634.397	-366.76
634.597	-104.62
634.797	-96.43
634.997	378.7
635.198	22.36
635.398	-327.85
635.598	128.85
635.798	452.43
635.998	317.26
636.199	-254.12
636.399	-108.71
636.599	-172.2
636.799	-188.58
636.999	184.15
637.199	239.44
637.399	261.97
637.599	-231.59
637.799	-121
637.999	-28.84
638.199	466.77
638.399	-239.78
638.599	-186.54
638.799	212.82
638.999	569.16
639.199	-28.84
639.399	-170.15
639.599	452.43
639.799	-166.06
639.999	-252.07
640.199	-338.09
640.399	114.52
640.599	200.53
640.799	-110.76
640.998	-10.41
641.198	358.22
641.398	204.63
641.598	-57.51
641.798	-178.34
641.997	874.31
642.197	114.52
642.397	-32.94
642.597	-159.91
642.796	184.15
642.996	493.39
643.196	-45.23
643.395	-221.35
643.595	190.29
643.795	-342.18
643.994	-129.19
644.194	-49.32
644.394	272.21
644.593	46.93
644.793	-368.81
644.992	-12.46
645.192	243.54
645.392	-370.85
645.591	-67.75
645.791	-137.38
645.99	233.3
646.19	69.46
646.389	-123.05
646.589	-55.47
646.788	192.34
646.987	163.67
647.187	139.09
647.386	104.28
647.586	44.88
647.785	276.31
647.984	-131.24
648.184	-174.25
648.383	-16.55
648.582	28.5
648.782	-233.64
648.981	-26.79
649.18	-151.72
649.38	151.38
649.579	-182.44
649.778	-247.97
649.977	116.56
650.177	241.49
650.376	-157.86
650.575	-286.89
650.774	456.53
650.973	3.93
651.173	-313.51
651.372	-63.66
651.571	124.76
651.77	235.35
651.969	-204.97
652.168	-96.43
652.367	-104.62
652.566	77.65
652.765	-239.78
652.964	145.24
653.163	610.12
653.362	75.6
653.561	-159.91
653.76	-73.9
653.959	26.45
654.158	208.72
654.357	175.95
654.556	-98.47
654.755	202.58
654.954	249.68
655.153	-61.61
655.352	-10.41
655.551	462.67
655.749	-86.19
655.948	-75.95
656.147	-71.85
656.346	206.67
656.545	51.03
656.743	-73.9
656.942	-16.55
657.141	110.42
657.34	-139.43
657.538	-131.24
657.737	-118.95
657.936	14.17
658.135	198.48
658.333	-112.81
658.532	-73.9
658.731	534.35
658.929	304.98
659.128	237.39
659.326	-170.15
659.525	276.31
659.724	145.24
659.922	-374.95
660.121	-280.74
660.319	210.77
660.518	-102.57
660.716	-297.13
660.915	-211.11
661.113	329.55
661.312	-186.54
661.51	-10.41
661.709	-227.5
661.907	266.07
662.105	495.44
662.304	-135.34
662.502	-157.86
662.701	491.34
662.899	-12.46
663.097	284.5
663.296	-305.32
663.494	397.14
663.692	440.14
663.891	-213.16
664.089	-250.02
664.287	204.63
664.485	477.01
664.684	-166.06
664.882	-4.27
665.08	159.57
665.278	159.57
665.476	-280.74
665.675	218.96
665.873	526.16
666.071	452.43
666.269	-69.8
666.467	100.18
666.665	165.71
666.863	83.8
667.061	55.12
667.259	-112.81
667.457	85.84
667.655	268.11
667.853	-286.89
668.051	-26.79
668.249	-80.04
668.447	292.69
668.645	-219.3
668.843	14.17
669.041	223.06
669.239	-6.31
669.437	-18.6
669.635	18.26
669.833	55.12
670.031	282.45
670.229	22.36
670.426	8.02
670.624	-0.17
670.822	-47.27
671.02	-139.43
671.218	-6.31
671.415	-22.7
671.613	161.62
671.811	34.64
672.009	-108.71
672.206	368.46
672.404	104.28
672.602	89.94
672.799	36.69
672.997	239.44
673.195	427.85
673.392	83.8
673.59	-231.59
673.788	419.66
673.985	-288.93
674.183	48.98
674.38	-67.75
674.578	395.09
674.775	-92.33
674.973	-194.73
675.17	-137.38
675.368	450.38
675.565	253.78
675.763	-112.81
675.96	-207.02
676.158	497.49
676.355	194.39
676.553	-45.23
676.75	-82.09
676.947	198.48
677.145	36.69
677.342	24.4
677.539	-14.51
677.737	186.19
677.934	649.04
678.131	28.5
678.329	-110.76
678.526	546.64
678.723	370.51
678.92	-34.99
679.118	-96.43
679.315	-116.9
679.512	550.73
679.709	-86.19
679.906	3.93
680.104	448.33
680.301	110.42
680.498	-161.96
680.695	-190.63
680.892	1.88
681.089	-77.99
681.286	22.36
681.483	-297.13
681.68	286.54
681.877	280.4
682.075	-22.7
682.272	147.28
682.469	231.25
682.665	137.04
682.862	-170.15
683.059	-190.63
683.256	245.59
683.453	126.8
683.65	1.88
683.847	12.12
684.044	196.43
684.241	5.97
684.438	112.47
684.635	-75.95
684.831	610.12
685.028	698.19
685.225	-100.52
685.422	100.18
685.619	135
685.815	165.71
686.012	38.74
686.209	30.55
686.405	-143.53
686.602	335.7
686.799	-123.05
686.996	-202.92
687.192	1.88
687.389	644.94
687.586	-145.58
687.782	-55.47
687.979	554.83
688.175	481.1
688.372	91.99
688.568	87.89
688.765	-2.22
688.962	536.4
689.158	63.32
689.355	-151.72
689.551	386.9
689.748	102.23
689.944	10.07
690.14	-211.11
690.337	423.76
690.533	137.04
690.73	173.91
690.926	1.88
691.123	313.17
691.319	173.91
691.515	-153.77
691.712	137.04
691.908	304.98
692.104	329.55
692.301	20.31
692.497	-123.05
692.693	401.23
692.889	354.13
693.086	151.38
693.282	-225.45
693.478	186.19
693.674	579.4
693.87	38.74
694.067	-184.49
694.263	188.24
694.459	65.36
694.655	210.77
694.851	96.08
695.047	311.12
695.243	479.05
695.439	173.91
695.635	-182.44
695.831	288.59
696.027	284.5
696.224	-59.56
696.42	300.88
696.615	522.06
696.811	311.12
697.007	-137.38
697.203	-37.03
697.399	347.98
697.595	481.1
697.791	-118.95
697.987	83.8
698.183	5.97
698.379	61.27
698.575	28.5
698.77	-10.41
698.966	372.56
699.162	497.49
699.358	-39.08
699.554	79.7
699.749	343.89
699.945	438.09
700.141	77.65
700.337	132.95
700.532	223.06
700.728	-2.22
700.924	-30.89
701.119	-161.96
701.315	290.64
701.511	135
701.706	20.31
701.902	-166.06
702.097	216.91
702.293	337.74
702.489	-16.55
702.684	12.12
702.88	122.71
703.075	102.23
703.271	94.04
703.466	-61.61
703.662	171.86
703.857	374.61
704.053	-116.9
704.248	-55.47
704.443	264.02
704.639	356.18
704.834	108.37
705.03	-151.72
705.225	442.19
705.42	542.54
705.616	102.23
705.811	-102.57
706.006	255.83
706.202	229.2
706.397	169.81
706.592	-92.33
706.787	339.79
706.983	175.95
707.178	206.67
707.373	18.26
707.568	479.05
707.763	450.38
707.959	-53.42
708.154	-53.42
708.349	333.65
708.544	296.78
708.739	264.02
708.934	-67.75
709.129	436.05
709.324	489.29
709.519	-2.22
709.714	-178.34
709.909	468.81
710.104	358.22
710.299	-0.17
710.494	1.88
710.689	364.37
710.884	264.02
711.079	75.6
711.274	282.45
711.469	419.66
711.664	362.32
711.859	-20.65
712.054	137.04
712.249	384.85
712.443	513.87
712.638	-145.58
712.833	-59.56
713.028	202.58
713.223	218.96
713.417	255.83
713.612	-110.76
713.807	429.9
714.002	919.37
714.196	214.87
714.391	-43.18
714.586	485.2
714.78	186.19
714.975	38.74
715.17	59.22
715.364	206.67
715.559	454.48
715.754	-204.97
715.948	-10.41
716.143	636.75
716.337	264.02
716.532	276.31
716.726	-61.61
716.921	450.38
717.115	681.8
717.31	-108.71
717.504	595.79
717.699	135
717.893	444.24
718.088	-63.66
718.282	-145.58
718.476	386.9
718.671	431.95
718.865	-12.46
719.059	53.08
719.254	214.87
719.448	526.16
719.642	1421.12
719.837	-100.52
720.031	452.43
720.225	571.21
720.419	94.04
720.614	-49.32
720.808	487.25
721.002	272.21
721.196	-102.57
721.39	118.61
721.585	550.73
721.779	419.66
721.973	85.84
722.167	-159.91
722.361	288.59
722.555	487.25
722.749	120.66
722.943	59.22
723.137	3.93
723.331	304.98
723.525	112.47
723.719	-43.18
723.913	380.75
724.107	644.94
724.301	-26.79
724.495	110.42
724.689	786.25
724.883	634.7
725.077	22.36
725.271	91.99
725.465	548.68
725.659	302.93
725.853	69.46
726.046	-176.3
726.24	190.29
726.434	550.73
726.628	14.17
726.822	229.2
727.015	603.98
727.209	657.23
727.403	3.93
727.596	-67.75
727.79	489.29
727.984	497.49
728.177	51.03
728.371	145.24
728.565	550.73
728.758	89.94
728.952	-43.18
729.146	91.99
729.339	505.68
729.533	329.55
729.726	155.47
729.92	-34.99
730.113	622.41
730.307	304.98
730.5	71.51
730.694	-41.13
730.887	280.4
731.081	421.71
731.274	26.45
731.468	145.24
731.661	366.42
731.854	227.15
732.048	145.24
732.241	-10.41
732.435	124.76
732.628	364.37
732.821	159.57
733.014	12.12
733.208	-10.41
733.401	440.14
733.594	98.13
733.788	55.12
733.981	679.75
734.174	388.94
734.367	116.56
734.56	175.95
734.754	628.56
734.947	245.59
735.14	100.18
735.333	51.03
735.526	444.24
735.719	196.43
735.912	10.07
736.105	20.31
736.298	225.11
736.491	173.91
736.684	87.89
736.877	-16.55
737.07	472.91
737.263	573.26
737.456	3.93
737.649	-14.51
737.842	216.91
738.035	390.99
738.228	143.19
738.421	307.02
738.614	513.87
738.807	477.01
739	-20.65
739.192	-12.46
739.385	395.09
739.578	470.86
739.771	374.61
739.964	145.24
740.156	407.38
740.349	280.4
740.542	323.41
740.735	-116.9
740.927	141.14
741.12	192.34
741.313	-39.08
741.505	241.49
741.698	413.52
741.891	421.71
742.083	280.4
742.276	165.71
742.468	294.74
742.661	304.98
742.854	151.38
743.046	155.47
743.239	706.38
743.431	333.65
743.624	178
743.816	-98.47
744.009	221.01
744.201	458.57
744.393	241.49
744.586	34.64
744.778	577.36
744.971	407.38
745.163	135
745.355	231.25
745.548	311.12
745.74	278.35
745.932	116.56
746.125	53.08
746.317	956.23
746.509	448.33
746.702	118.61
746.894	266.07
747.086	386.9
747.278	651.08
747.471	159.57
747.663	149.33
747.855	249.68
748.047	677.71
748.239	91.99
748.431	42.84
748.623	651.08
748.815	675.66
749.008	26.45
749.2	16.21
749.392	530.25
749.584	522.06
749.776	135
749.968	198.48
750.16	716.62
750.352	315.22
750.544	196.43
750.736	67.41
750.928	558.92
751.12	315.22
751.311	169.81
751.503	167.76
751.695	468.81
751.887	401.23
752.079	-28.84
752.271	91.99
752.463	1148.74
752.654	567.12
752.846	159.57
753.038	30.55
753.23	235.35
753.421	501.58
753.613	157.52
753.805	272.21
753.997	520.01
754.188	573.26
754.38	96.08
754.572	71.51
754.763	343.89
754.955	532.3
755.146	218.96
755.338	167.76
755.53	503.63
755.721	288.59
755.913	-14.51
756.104	42.84
756.296	317.26
756.487	567.12
756.679	42.84
756.87	223.06
757.062	272.21
757.253	575.31
757.445	182.1
757.636	288.59
757.827	423.76
758.019	851.78
758.21	87.89
758.401	153.43
758.593	866.12
758.784	661.32
758.975	-39.08
759.167	3.93
759.358	411.47
759.549	706.38
759.74	114.52
759.932	96.08
760.123	714.57
760.314	331.6
760.505	296.78
760.696	141.14
760.888	739.15
761.079	274.26
761.27	69.46
761.461	24.4
761.652	745.29
761.843	407.38
762.034	161.62
762.225	358.22
762.416	356.18
762.607	460.62
762.798	159.57
762.989	108.37
763.18	1253.19
763.371	272.21
763.562	94.04
763.753	245.59
763.944	646.99
764.135	616.27
764.326	274.26
764.517	151.38
764.708	429.9
764.899	485.2
765.089	71.51
765.28	-39.08
765.471	456.53
765.662	571.21
765.853	190.29
766.043	-22.7
766.234	624.46
766.425	677.71
766.615	190.29
766.806	75.6
766.997	685.9
767.187	520.01
767.378	61.27
767.569	-26.79
767.759	526.16
767.95	423.76
768.141	341.84
768.331	137.04
768.522	423.76
768.712	587.6
768.903	108.37
769.093	91.99
769.284	743.24
769.474	546.64
769.665	28.5
769.855	-10.41
770.046	526.16
770.236	307.02
770.426	264.02
770.617	42.84
770.807	534.35
770.998	341.84
771.188	386.9
771.378	157.52
771.569	698.19
771.759	624.46
771.949	14.17
772.139	-141.48
772.33	530.25
772.52	784.2
772.71	161.62
772.9	-22.7
773.09	880.46
773.281	757.58
773.471	67.41
773.661	108.37
773.851	638.8
774.041	431.95
774.231	100.18
774.421	315.22
774.611	730.95
774.802	415.57
774.992	231.25
775.182	178
775.372	380.75
775.562	636.75
775.752	186.19
775.942	145.24
776.131	743.24
776.321	634.7
776.511	153.43
776.701	98.13
776.891	640.84
777.081	192.34
777.271	227.15
777.461	73.56
777.651	606.03
777.84	708.43
778.03	245.59
778.22	155.47
778.41	745.29
778.599	251.73
778.789	276.31
778.979	159.57
779.169	489.29
779.358	509.77
779.548	452.43
779.738	55.12
779.927	413.52
780.117	184.15
780.307	235.35
780.496	-55.47
780.686	556.88
780.875	931.66
781.065	145.24
781.254	132.95
781.444	493.39
781.633	528.21
781.823	98.13
782.012	83.8
782.202	321.36
782.391	388.94
782.581	83.8
782.77	380.75
782.96	679.75
783.149	390.99
783.338	155.47
783.528	-49.32
783.717	632.65
783.906	683.85
784.096	280.4
784.285	143.19
784.474	380.75
784.663	276.31
784.853	194.39
785.042	208.72
785.231	352.08
785.42	784.2
785.61	315.22
785.799	118.61
785.988	436.05
786.177	347.98
786.366	190.29
786.555	335.7
786.744	659.28
786.933	446.29
787.122	110.42
787.312	24.4
787.501	231.25
787.69	587.6
787.879	112.47
788.068	79.7
788.257	218.96
788.445	372.56
788.634	276.31
788.823	53.08
789.012	1115.97
789.201	806.73
789.39	311.12
789.579	145.24
789.768	479.05
789.957	524.11
790.145	266.07
790.334	-55.47
790.523	300.88
790.712	304.98
790.9	268.11
791.089	16.21
791.278	741.19
791.467	558.92
791.655	415.57
791.844	689.99
792.033	296.78
792.221	360.27
792.41	247.63
792.599	38.74
792.787	583.5
792.976	694.09
793.164	79.7
793.353	190.29
793.541	681.8
793.73	663.37
793.918	155.47
794.107	159.57
794.295	413.52
794.484	470.86
794.672	288.59
794.861	233.3
795.049	583.5
795.238	831.3
795.426	83.8
795.614	302.93
795.803	468.81
795.991	825.16
796.179	120.66
796.368	157.52
796.556	825.16
796.744	161.62
796.932	108.37
797.121	102.23
797.309	493.39
797.497	673.61
797.685	206.67
797.874	180.05
798.062	411.47
798.25	825.16
798.438	61.27
798.626	241.49
798.814	515.92
799.002	966.47
799.19	345.94
799.378	268.11
799.566	669.52
799.755	782.15
799.943	460.62
800.131	167.76
800.318	489.29
800.506	509.77
800.694	194.39
800.882	331.6
801.07	673.61
801.258	380.75
801.446	165.71
801.634	180.05
801.822	470.86
802.01	491.34
802.197	210.77
802.385	315.22
802.573	577.36
802.761	270.16
802.949	251.73
803.136	59.22
803.324	735.05
803.512	456.53
803.699	227.15
803.887	59.22
804.075	823.11
804.262	362.32
804.45	132.95
804.638	376.66
804.825	223.06
805.013	356.18
805.201	216.91
805.388	161.62
805.576	487.25
805.763	845.64
805.951	257.87
806.138	434
806.326	896.84
806.513	661.32
806.701	239.44
806.888	163.67
807.075	640.84
807.263	1034.05
807.45	130.9
807.638	386.9
807.825	960.33
808.012	765.77
808.2	374.61
808.387	577.36
808.574	669.52
808.761	845.64
808.949	145.24
809.136	337.74
809.323	337.74
809.51	431.95
809.698	571.21
809.885	468.81
810.072	667.47
810.259	726.86
810.446	341.84
810.633	284.5
810.82	843.59
811.008	872.26
811.195	370.51
811.382	266.07
811.569	431.95
811.756	266.07
811.943	247.63
812.13	282.45
812.317	446.29
812.504	343.89
812.691	401.23
812.878	329.55
813.064	827.21
813.251	593.74
813.438	204.63
813.625	366.42
813.812	413.52
813.999	419.66
814.186	321.36
814.372	386.9
814.559	522.06
814.746	1025.86
814.933	309.07
815.12	458.57
815.306	546.64
815.493	403.28
815.68	233.3
815.866	358.22
816.053	788.3
816.24	1019.72
816.426	464.72
816.613	251.73
816.799	692.04
816.986	802.63
817.173	296.78
817.359	214.87
817.546	655.18
817.732	350.03
817.919	32.6
818.105	419.66
818.292	399.18
818.478	651.08
818.665	452.43
818.851	192.34
819.037	1029.96
819.224	577.36
819.41	180.05
819.597	204.63
819.783	972.61
819.969	718.67
820.156	368.46
820.342	261.97
820.528	1263.43
820.714	409.42
820.901	567.12
821.087	266.07
821.273	960.33
821.459	460.62
821.646	216.91
821.832	194.39
822.018	601.93
822.204	628.56
822.39	304.98
822.576	157.52
822.762	726.86
822.948	681.8
823.134	497.49
823.32	362.32
823.507	327.5
823.693	661.32
823.879	708.43
824.065	278.35
824.25	616.27
824.436	390.99
824.622	280.4
824.808	202.58
824.994	456.53
825.18	407.38
825.366	204.63
825.552	229.2
825.738	517.97
825.923	737.1
826.109	542.54
826.295	261.97
826.481	468.81
826.667	419.66
826.852	423.76
827.038	261.97
827.224	796.49
827.409	950.09
827.595	102.23
827.781	583.5
827.966	816.97
828.152	782.15
828.338	405.33
828.523	255.83
828.709	456.53
828.894	890.7
829.08	386.9
829.266	268.11
829.451	477.01
829.637	831.3
829.822	436.05
830.008	268.11
830.193	896.84
830.378	882.5
830.564	456.53
830.749	259.92
830.935	694.09
831.12	726.86
831.305	227.15
831.491	390.99
831.676	259.92
831.861	796.49
832.047	399.18
832.232	186.19
832.417	843.59
832.602	540.49
832.788	264.02
832.973	243.54
833.158	618.32
833.343	683.85
833.528	462.67
833.714	399.18
833.899	675.66
834.084	1048.39
834.269	577.36
834.454	393.04
834.639	771.91
834.824	603.98
835.009	507.73
835.194	583.5
835.379	763.72
835.564	999.24
835.749	452.43
835.934	249.68
836.119	823.11
836.304	577.36
836.489	423.76
836.674	563.02
836.859	413.52
837.044	890.7
837.228	431.95
837.413	243.54
837.598	696.14
837.783	890.7
837.968	368.46
838.152	231.25
838.337	284.5
838.522	982.85
838.707	874.31
838.891	567.12
839.076	640.84
839.261	935.75
839.445	362.32
839.63	413.52
839.815	1093.44
839.999	571.21
840.184	386.9
840.368	444.24
840.553	876.36
840.737	767.82
840.922	382.8
841.106	352.08
841.291	427.85
841.475	667.47
841.66	335.7
841.844	317.26
842.029	1347.39
842.213	372.56
842.397	378.7
842.582	200.53
842.766	911.18
842.951	855.88
843.135	427.85
843.319	360.27
843.504	739.15
843.688	905.03
843.872	264.02
844.056	243.54
844.241	808.78
844.425	587.6
844.609	591.69
844.793	204.63
844.977	814.92
845.161	698.19
845.346	294.74
845.53	354.13
845.714	540.49
845.898	1077.06
846.082	278.35
846.266	337.74
846.45	689.99
846.634	726.86
846.818	374.61
847.002	513.87
847.186	804.68
847.37	501.58
847.554	227.15
847.738	462.67
847.922	724.81
848.106	735.05
848.29	341.84
848.473	317.26
848.657	798.54
848.841	577.36
849.025	499.53
849.209	221.01
849.392	800.59
849.576	530.25
849.76	128.85
849.944	466.77
850.127	1038.15
850.311	364.37
850.495	266.07
850.678	313.17
850.862	968.52
851.046	1083.2
851.229	640.84
851.413	321.36
851.596	649.04
851.78	616.27
851.964	591.69
852.147	427.85
852.331	1435.46
852.514	909.13
852.698	481.1
852.881	315.22
853.065	880.46
853.248	698.19
853.431	468.81
853.615	591.69
853.798	1232.71
853.982	771.91
854.165	536.4
854.348	354.13
854.532	466.77
854.715	548.68
854.898	487.25
855.081	390.99
855.265	1115.97
855.448	1093.44
855.631	286.54
855.814	390.99
855.997	929.61
856.181	673.61
856.364	407.38
856.547	284.5
856.73	845.64
856.913	646.99
857.096	218.96
857.279	528.21
857.462	526.16
857.645	929.61
857.828	536.4
858.011	552.78
858.194	485.2
858.377	862.02
858.56	309.07
858.743	470.86
858.926	429.9
859.109	835.4
859.292	403.28
859.475	292.69
859.658	948.04
859.841	794.44
860.023	233.3
860.206	370.51
860.389	730.95
860.572	1036.1
860.755	431.95
860.937	456.53
861.12	538.45
861.303	730.95
861.486	481.1
861.668	284.5
861.851	851.78
862.034	755.53
862.216	567.12
862.399	206.67
862.581	894.79
862.764	1113.92
862.947	534.35
863.129	360.27
863.312	431.95
863.494	1001.29
863.677	765.77
863.859	282.45
864.042	997.19
864.224	997.19
864.406	571.21
864.589	264.02
864.771	767.82
864.954	468.81
865.136	413.52
865.318	139.09
865.501	751.43
865.683	261.97
865.865	407.38
866.048	419.66
866.23	737.1
866.412	636.75
866.594	333.65
866.777	530.25
866.959	868.17
867.141	491.34
867.323	632.65
867.505	499.53
867.687	747.34
867.869	788.3
868.052	446.29
868.234	333.65
868.416	599.88
868.598	839.5
868.78	384.85
868.962	264.02
869.144	939.85
869.326	776.01
869.508	350.03
869.69	257.87
869.872	558.92
870.054	923.46
870.236	261.97
870.417	429.9
870.599	630.6
870.781	1066.82
870.963	577.36
871.145	382.8
871.327	489.29
871.508	925.51
871.69	450.38
871.872	438.09
872.054	712.52
872.235	866.12
872.417	534.35
872.599	272.21
872.78	1042.25
872.962	743.24
873.144	241.49
873.325	419.66
873.507	1107.78
873.689	698.19
873.87	280.4
874.052	452.43
874.233	632.65
874.415	921.42
874.596	384.85
874.778	304.98
874.959	685.9
875.141	970.57
875.322	403.28
875.503	372.56
875.685	814.92
875.866	311.12
876.048	325.46
876.229	194.39
876.41	599.88
876.592	790.35
876.773	431.95
876.954	274.26
877.136	964.42
877.317	659.28
877.498	227.15
877.679	487.25
877.86	868.17
878.042	741.19
878.223	411.47
878.404	747.34
878.585	843.59
878.766	1103.68
878.947	755.53
879.128	567.12
879.309	898.89
879.49	1027.91
879.672	532.3
879.853	554.83
880.034	624.46
880.215	714.57
880.396	550.73
880.576	491.34
880.757	608.08
880.938	1034.05
881.119	376.66
881.3	337.74
881.481	558.92
881.662	1566.53
881.843	231.25
882.023	313.17
882.204	816.97
882.385	829.26
882.566	442.19
882.747	335.7
882.927	747.34
883.108	730.95
883.289	321.36
883.469	665.42
883.65	640.84
883.831	859.98
884.011	644.94
884.192	352.08
884.373	872.26
884.553	767.82
884.734	620.36
884.914	837.45
885.095	1388.35
885.275	1083.2
885.456	749.39
885.636	352.08
885.817	702.28
885.997	814.92
886.178	444.24
886.358	616.27
886.538	685.9
886.719	1765.18
886.899	419.66
887.08	460.62
887.26	857.93
887.44	718.67
887.621	452.43
887.801	587.6
887.981	1288
888.161	941.89
888.342	505.68
888.522	622.41
888.702	915.27
888.882	1011.53
889.062	663.37
889.242	317.26
889.423	1087.3
889.603	927.56
889.783	620.36
889.963	395.09
890.143	866.12
890.323	1101.64
890.503	565.07
890.683	528.21
890.863	788.3
891.043	859.98
891.223	571.21
891.403	757.58
891.583	835.4
891.763	862.02
891.943	698.19
892.122	493.39
892.302	876.36
892.482	780.11
892.662	839.5
892.842	614.22
893.022	909.13
893.201	755.53
893.381	712.52
893.561	571.21
893.741	1091.4
893.92	829.26
894.1	679.75
894.28	661.32
894.459	964.42
894.639	976.71
894.819	546.64
894.998	698.19
895.178	892.74
895.357	874.31
895.537	538.45
895.716	407.38
895.896	665.42
896.075	1156.93
896.255	550.73
896.434	407.38
896.614	1025.86
896.793	1236.8
896.973	671.56
897.152	698.19
897.331	931.66
897.511	964.42
897.69	409.42
897.87	722.76
898.049	1009.48
898.228	890.7
898.407	743.24
898.587	784.2
898.766	708.43
898.945	999.24
899.124	913.22
899.304	759.63
899.483	974.66
899.662	1384.26
899.841	608.08
900.02	581.45
900.199	1183.56
900.378	941.89
900.557	507.73
900.737	526.16
900.916	993.09
901.095	1077.06
901.274	866.12
901.453	505.68
901.632	659.28
901.811	692.04
901.989	528.21
902.168	444.24
902.347	1122.12
902.526	767.82
902.705	618.32
902.884	675.66
903.063	1226.56
903.242	1201.99
903.42	544.59
903.599	706.38
903.778	1136.45
903.957	1218.37
904.135	640.84
904.314	769.87
904.493	907.08
904.672	1025.86
904.85	712.52
905.029	591.69
905.207	962.37
905.386	1587.01
905.565	546.64
905.743	532.3
905.922	730.95
906.1	1107.78
906.279	534.35
906.457	534.35
906.636	788.3
906.814	866.12
906.993	640.84
907.171	593.74
907.35	1009.48
907.528	1070.92
907.707	894.79
907.885	530.25
908.063	1210.18
908.242	726.86
908.42	642.89
908.598	462.67
908.777	1017.67
908.955	819.02
909.133	886.6
909.311	542.54
909.49	816.97
909.668	823.11
909.846	599.88
910.024	366.42
910.202	915.27
910.38	1079.11
910.559	591.69
910.737	577.36
910.915	907.08
911.093	1050.44
911.271	606.03
911.449	726.86
911.627	894.79
911.805	1408.83
911.983	591.69
912.161	520.01
912.339	900.94
912.517	1232.71
912.695	810.82
912.872	642.89
913.05	599.88
913.228	911.18
913.406	579.4
913.584	575.31
913.762	1152.84
913.939	700.23
914.117	511.82
914.295	436.05
914.473	1009.48
914.65	1056.58
914.828	665.42
915.006	577.36
915.184	573.26
915.361	937.8
915.539	804.68
915.716	806.73
915.894	962.37
916.072	1025.86
916.249	710.47
916.427	837.45
916.604	575.31
916.782	1058.63
916.959	542.54
917.137	530.25
917.314	917.32
917.492	921.42
917.669	722.76
917.847	743.24
918.024	921.42
918.201	616.27
918.379	630.6
918.556	591.69
918.733	1052.49
918.911	767.82
919.088	835.4
919.265	616.27
919.442	898.89
919.62	833.35
919.797	522.06
919.974	431.95
920.151	907.08
920.328	806.73
920.506	573.26
920.683	843.59
920.86	606.03
921.037	706.38
921.214	659.28
921.391	640.84
921.568	976.71
921.745	628.56
921.922	612.17
922.099	460.62
922.276	1066.82
922.453	802.63
922.63	546.64
922.807	898.89
922.984	905.03
923.161	714.57
923.338	577.36
923.514	497.49
923.691	765.77
923.868	945.99
924.045	565.07
924.222	517.97
924.399	964.42
924.575	1111.88
924.752	640.84
924.929	681.8
925.105	892.74
925.282	681.8
925.459	583.5
925.635	737.1
925.812	868.17
925.989	624.46
926.165	644.94
926.342	350.03
926.518	544.59
926.695	821.06
926.871	456.53
927.048	374.61
927.224	978.76
927.401	677.71
927.577	626.51
927.754	302.93
927.93	1054.53
928.107	935.75
928.283	538.45
928.459	585.55
928.636	878.41
928.812	649.04
928.988	513.87
929.165	444.24
929.341	800.59
929.517	806.73
929.693	923.46
929.87	294.74
930.046	902.98
930.222	755.53
930.398	454.48
930.574	675.66
930.751	802.63
930.927	689.99
931.103	489.29
931.279	556.88
931.455	530.25
931.631	837.45
931.807	331.6
931.983	454.48
932.159	483.15
932.335	706.38
932.511	495.44
932.687	595.79
932.863	788.3
933.039	804.68
933.215	405.33
933.391	380.75
933.566	651.08
933.742	730.95
933.918	487.25
934.094	325.46
934.27	667.47
934.445	739.15
934.621	534.35
934.797	474.96
934.973	884.55
935.148	749.39
935.324	317.26
935.5	216.91
935.675	909.13
935.851	673.61
936.027	429.9
936.202	487.25
936.378	718.67
936.553	507.73
936.729	776.01
936.904	266.07
937.08	325.46
937.255	378.7
937.431	456.53
937.606	268.11
937.782	499.53
937.957	583.5
938.133	343.89
938.308	198.48
938.483	577.36
938.659	257.87
938.834	393.04
939.009	300.88
939.185	452.43
939.36	345.94
939.535	-16.55
939.71	304.98
939.886	827.21
940.061	671.56
940.236	497.49
940.411	307.02
940.586	515.92
940.761	659.28
940.937	249.68
941.112	165.71
941.287	487.25
941.462	538.45
941.637	61.27
941.812	186.19
941.987	567.12
942.162	442.19
942.337	321.36
942.512	272.21
942.687	677.71
942.862	649.04
943.037	104.28
943.212	-45.23
943.386	427.85
943.561	505.68
943.736	329.55
943.911	534.35
944.086	540.49
944.26	446.29
944.435	243.54
944.61	292.69
944.785	765.77
944.959	927.56
945.134	225.11
945.309	98.13
945.483	153.43
945.658	634.7
945.833	-141.48
946.007	30.55
946.182	743.24
946.357	247.63
946.531	137.04
946.706	104.28
946.88	-12.46
947.055	448.33
947.229	184.15
947.404	100.18
947.578	616.27
947.752	302.93
947.927	-14.51
948.101	30.55
948.276	446.29
948.45	436.05
948.624	276.31
948.799	145.24
948.973	440.14
949.147	194.39
949.321	155.47
949.496	135
949.67	606.03
949.844	309.07
950.018	198.48
950.193	141.14
950.367	896.84
950.541	280.4
950.715	278.35
950.889	372.56
951.063	304.98
951.237	624.46
951.411	-77.99
951.585	-28.84
951.759	565.07
951.933	386.9
952.107	180.05
952.281	282.45
952.455	761.67
952.629	546.64
952.803	55.12
952.977	204.63
953.151	485.2
953.325	462.67
953.499	354.13
953.672	81.75
953.846	151.38
954.02	376.66
954.194	1.88
954.368	198.48
954.541	556.88
954.715	194.39
954.889	268.11
955.062	44.88
955.236	417.61
955.41	337.74
955.583	298.83
955.757	-8.36
955.93	272.21
956.104	108.37
956.278	135
956.451	200.53
956.625	460.62
956.798	784.2
956.972	470.86
957.145	91.99
957.319	431.95
957.492	358.22
957.665	292.69
957.839	161.62
958.012	515.92
958.185	300.88
958.359	245.59
958.532	331.6
958.705	612.17
958.879	499.53
959.052	151.38
959.225	-59.56
959.398	413.52
959.572	460.62
959.745	69.46
959.918	116.56
960.091	337.74
960.264	479.05
960.438	10.07
960.611	137.04
960.784	550.73
960.957	227.15
961.13	558.92
961.303	112.47
961.476	446.29
961.649	534.35
961.822	36.69
961.995	159.57
962.168	522.06
962.341	347.98
962.514	145.24
962.686	100.18
962.859	409.42
963.032	458.57
963.205	59.22
963.378	-6.31
963.551	417.61
963.723	366.42
963.896	225.11
964.069	319.31
964.242	343.89
964.414	583.5
964.587	178
964.76	204.63
964.932	409.42
965.105	343.89
965.278	96.08
965.45	59.22
965.623	415.57
965.795	614.22
965.968	233.3
966.14	124.76
966.313	282.45
966.485	452.43
966.658	161.62
966.83	102.23
967.003	667.47
967.175	497.49
967.348	178
967.52	186.19
967.692	757.58
967.865	497.49
968.037	124.76
968.209	520.01
968.382	427.85
968.554	622.41
968.726	182.1
968.898	-4.27
969.071	411.47
969.243	526.16
969.415	347.98
969.587	278.35
969.759	919.37
969.932	618.32
970.104	190.29
970.276	-82.09
970.448	276.31
970.62	313.17
970.792	302.93
970.964	210.77
971.136	821.06
971.308	513.87
971.48	161.62
971.652	87.89
971.824	771.91
971.996	315.22
972.168	225.11
972.339	245.59
972.511	591.69
972.683	393.04
972.855	315.22
973.027	231.25
973.199	337.74
973.37	468.81
973.542	288.59
973.714	288.59
973.886	360.27
974.057	616.27
974.229	65.36
974.401	190.29
974.572	282.45
974.744	-12.46
974.915	128.85
975.087	122.71
975.259	780.11
975.43	290.64
975.602	182.1
975.773	10.07
975.945	255.83
976.116	567.12
976.288	28.5
976.459	300.88
976.63	288.59
976.802	417.61
976.973	79.7
977.145	255.83
977.316	956.23
977.487	431.95
977.659	270.16
977.83	161.62
978.001	730.95
978.172	386.9
978.344	143.19
978.515	173.91
978.686	304.98
978.857	669.52
979.028	137.04
979.2	34.64
979.371	603.98
979.542	497.49
979.713	366.42
979.884	-217.26
980.055	216.91
980.226	345.94
980.397	94.04
980.568	-0.17
980.739	640.84
980.91	333.65
981.081	341.84
981.252	94.04
981.423	448.33
981.594	520.01
981.765	55.12
981.936	311.12
982.106	477.01
982.277	698.19
982.448	89.94
982.619	317.26
982.79	241.49
982.96	575.31
983.131	229.2
983.302	-18.6
983.472	300.88
983.643	452.43
983.814	210.77
983.984	118.61
984.155	313.17
984.326	554.83
984.496	284.5
984.667	139.09
984.837	255.83
985.008	548.68
985.178	259.92
985.349	274.26
985.519	266.07
985.69	276.31
985.86	126.8
986.031	1.88
986.201	390.99
986.371	511.82
986.542	10.07
986.712	-6.31
986.882	493.39
987.053	536.4
987.223	30.55
987.393	218.96
987.563	259.92
987.734	454.48
987.904	407.38
988.074	34.64
988.244	481.1
988.414	159.57
988.585	20.31
988.755	198.48
988.925	292.69
989.095	706.38
989.265	112.47
989.435	139.09
989.605	446.29
989.775	540.49
989.945	356.18
990.115	-61.61
990.285	311.12
990.455	331.6
990.625	204.63
990.795	5.97
990.965	675.66
991.134	120.66
991.304	126.8
991.474	94.04
991.644	419.66
991.814	618.32
991.984	-63.66
992.153	71.51
992.323	243.54
992.493	290.64
992.662	-139.43
992.832	245.59
993.002	356.18
993.171	526.16
993.341	-131.24
993.511	339.79
993.68	200.53
993.85	401.23
994.019	-2.22
994.189	-12.46
994.358	528.21
994.528	171.86
994.697	-235.69
994.867	-71.85
995.036	626.51
995.206	116.56
995.375	1.88
995.544	145.24
995.714	423.76
995.883	286.54
996.052	225.11
996.222	-159.91
996.391	806.73
996.56	333.65
996.73	-22.7
996.899	-92.33
997.068	665.42
997.237	362.32
997.406	-14.51
997.576	-116.9
997.745	380.75
997.914	407.38
998.083	-159.91
998.252	-96.43
998.421	315.22
998.59	186.19
998.759	-28.84
998.928	-233.64
999.097	618.32
999.266	376.66
999.435	202.58
999.604	-243.88
999.773	812.87
999.942	323.41
1000.111	-53.42
1000.28	-96.43
1000.448	44.88
1000.617	169.81
1000.786	157.52
1000.955	-77.99
1001.124	350.03
1001.292	948.04
1001.461	-34.99
1001.63	-39.08
1001.798	632.65
1001.967	649.04
1002.136	-223.4
1002.304	-166.06
1002.473	304.98
1002.642	296.78
1002.81	-63.66
1002.979	-102.57
1003.147	421.71
1003.316	853.83
1003.484	-6.31
1003.653	-186.54
1003.821	495.44
1003.99	231.25
1004.158	65.36
1004.327	91.99
1004.495	397.14
1004.663	59.22
1004.832	77.65
1005	-211.11
1005.168	350.03
1005.337	370.51
1005.505	-149.67
1005.673	182.1
1005.842	378.7
1006.01	337.74
1006.178	-69.8
1006.346	-133.29
1006.514	360.27
1006.683	479.05
1006.851	-116.9
1007.019	-207.02
1007.187	-2.22
1007.355	-143.53
1007.523	-247.97
1007.691	-221.35
1007.859	-28.84
1008.027	472.91
1008.195	-12.46
1008.363	-164.01
1008.531	466.77
1008.699	137.04
1008.867	-305.32
1009.035	-51.37
1009.203	483.15
1009.37	274.26
1009.538	-47.27
1009.706	345.94
1009.874	325.46
1010.042	307.02
1010.209	-125.1
1010.377	-184.49
1010.545	378.7
1010.713	311.12
1010.88	-123.05
1011.048	-114.86
1011.216	165.71
1011.383	522.06
1011.551	-108.71
1011.718	-176.3
1011.886	520.01
1012.054	304.98
1012.221	-137.38
1012.389	-82.09
1012.556	194.39
1012.724	624.46
1012.891	-6.31
1013.058	-247.97
1013.226	462.67
1013.393	409.42
1013.561	-190.63
1013.728	-178.34
1013.895	464.72
1014.063	419.66
1014.23	-227.5
1014.397	-94.38
1014.565	388.94
1014.732	182.1
1014.899	-145.58
1015.066	-159.91
1015.233	298.83
1015.401	470.86
1015.568	5.97
1015.735	51.03
1015.902	214.87
1016.069	296.78
1016.236	-135.34
1016.403	-114.86
1016.57	-12.46
1016.737	550.73
1016.904	-45.23
1017.071	-188.58
1017.238	83.8
1017.405	470.86
1017.572	-110.76
1017.739	55.12
1017.906	237.39
1018.073	474.96
1018.24	-153.77
1018.407	-39.08
1018.573	515.92
1018.74	182.1
1018.907	-18.6
1019.074	-301.22
1019.241	388.94
1019.407	245.59
1019.574	-161.96
1019.741	-297.13
1019.907	333.65
1020.074	370.51
1020.241	-276.65
1020.407	-243.88
1020.574	388.94
1020.74	341.84
1020.907	-104.62
1021.073	-202.92
1021.24	706.38
1021.406	528.21
1021.573	-258.21
1021.739	-161.96
1021.906	497.49
1022.072	153.43
1022.239	-71.85
1022.405	-133.29
1022.571	137.04
1022.738	24.4
1022.904	-137.38
1023.07	-18.6
1023.237	296.78
1023.403	505.68
1023.569	-186.54
1023.735	-110.76
1023.902	296.78
1024.068	317.26
1024.234	-297.13
1024.4	-164.01
1024.566	325.46
1024.732	358.22
1024.898	-186.54
1025.065	-305.32
1025.231	390.99
1025.397	104.28
1025.563	-182.44
1025.729	-239.78
1025.895	-252.07
1026.061	10.07
1026.227	-264.36
1026.392	-166.06
1026.558	366.42
1026.724	229.2
1026.89	-184.49
1027.056	-106.67
1027.222	329.55
1027.388	132.95
1027.553	-186.54
1027.719	-219.3
1027.885	614.22
1028.051	376.66
1028.216	-354.47
1028.382	-219.3
1028.548	409.42
1028.713	106.32
1028.879	-223.4
1029.045	3.93
1029.21	577.36
1029.376	438.09
1029.541	-104.62
1029.707	-186.54
1029.873	247.63
1030.038	397.14
1030.204	-166.06
1030.369	-53.42
1030.534	499.53
1030.7	141.14
1030.865	-149.67
1031.031	-198.82
1031.196	296.78
1031.361	294.74
1031.527	-207.02
1031.692	-250.02
1031.857	-211.11
1032.023	393.04
1032.188	-180.39
1032.353	-129.19
1032.518	618.32
1032.684	276.31
1032.849	-288.93
1033.014	-219.3
1033.179	372.56
1033.344	321.36
1033.509	-49.32
1033.674	-147.62
1033.839	370.51
1034.004	395.09
1034.17	-133.29
1034.335	-262.31
1034.5	149.33
1034.664	3.93
1034.829	-108.71
1034.994	-147.62
1035.159	296.78
1035.324	194.39
1035.489	-84.14
1035.654	-166.06
1035.819	485.2
1035.984	223.06
1036.148	-141.48
1036.313	-133.29
1036.478	415.57
1036.643	218.96
1036.807	-194.73
1036.972	-274.6
1037.137	571.21
1037.301	298.83
1037.466	-309.41
1037.631	-84.14
1037.795	550.73
1037.96	212.82
1038.124	46.93
1038.289	-243.88
1038.454	325.46
1038.618	421.71
1038.783	-143.53
1038.947	-12.46
1039.111	206.67
1039.276	128.85
1039.44	-186.54
1039.605	335.7
1039.769	175.95
1039.933	241.49
1040.098	-112.81
1040.262	94.04
1040.426	407.38
1040.591	350.03
1040.755	-247.97
1040.919	-164.01
1041.083	309.07
1041.248	157.52
1041.412	-299.17
1041.576	-272.55
1041.74	229.2
1041.904	354.13
1042.068	-264.36
1042.232	-116.9
1042.397	362.32
1042.561	321.36
1042.725	-395.43
1042.889	-63.66
1043.053	345.94
1043.217	329.55
1043.381	-30.89
1043.544	-213.16
1043.708	452.43
1043.872	-6.31
1044.036	-405.67
1044.2	-254.12
1044.364	460.62
1044.528	626.51
1044.691	4726.54
1044.855	-221.35
1045.019	409.42
1045.183	276.31
1045.346	-168.1
1045.51	-254.12
1045.674	311.12
1045.837	380.75
1046.001	-145.58
1046.165	-153.77
1046.328	751.43
1046.492	317.26
1046.655	-2.22
1046.819	-141.48
1046.983	44.88
1047.146	321.36
1047.31	-110.76
1047.473	-325.8
1047.636	255.83
1047.8	28.5
1047.963	-145.58
1048.127	-190.63
1048.29	30.55
