Data from Ink_Intensity_USB4F045381__55__00055.txt Node

Date: Mon Jul 17 10:17:45 EDT 2023
User: mmckonesweet
Spectrometer: USB4F04538
Trigger mode: 4
Integration Time (sec): 9.000000E-1
Scans to average: 1
Electric dark correction enabled: true
Nonlinearity correction enabled: false
Boxcar width: 0
XAxis mode: Wavelengths
Number of Pixels in Spectrum: 3648
>>>>>Begin Spectral Data<<<<<
345.52	-973.64
345.736	-973.64
345.952	-973.64
346.168	-1022.79
346.384	-1000.26
346.6	-35.67
346.816	-183.12
347.032	-109.4
347.248	242.85
347.464	-224.08
347.68	-170.83
347.896	107.69
348.112	380.07
348.328	-43.86
348.544	-174.93
348.76	-13.14
348.975	224.42
349.191	-99.16
349.407	-152.4
349.623	-19.29
349.839	-82.77
350.055	-154.45
350.27	54.44
350.486	197.8
350.702	351.4
350.918	296.1
351.133	-103.25
351.349	234.66
351.565	404.64
351.781	-174.93
351.996	15.53
352.212	337.06
352.428	-168.79
352.644	-217.94
352.859	-240.47
353.075	193.7
353.291	-2.9
353.506	-170.83
353.722	-150.36
353.938	-58.2
354.153	457.89
354.369	-0.85
354.584	-172.88
354.8	212.14
355.016	-320.34
355.231	-246.61
355.447	-29.52
355.662	42.15
355.878	842.91
356.093	-361.3
356.309	-37.72
356.524	-267.09
356.74	267.43
356.955	-174.93
357.171	-158.55
357.386	203.94
357.602	-265.04
357.817	-39.76
358.033	-152.4
358.248	390.31
358.464	189.61
358.679	-170.83
358.895	-297.81
359.11	58.54
359.325	224.42
359.541	56.49
359.756	-23.38
359.972	-254.8
360.187	152.74
360.402	-166.74
360.618	-205.65
360.833	973.98
361.048	140.46
361.264	-127.83
361.479	-62.29
361.694	-17.24
361.909	142.5
362.125	-269.14
362.34	-43.86
362.555	257.19
362.77	42.15
362.986	-246.61
363.201	-174.93
363.416	240.81
363.631	72.87
363.847	-203.6
364.062	-258.9
364.277	175.27
364.492	33.96
364.707	-142.16
364.922	-443.21
365.138	197.8
365.353	320.68
365.568	-279.38
365.783	-158.55
365.998	122.02
366.213	619.68
366.428	-246.61
366.643	76.97
366.858	253.09
367.073	255.14
367.288	-158.55
367.503	-242.51
367.718	126.12
367.933	269.48
368.148	-334.67
368.363	-90.96
368.578	-33.62
368.793	414.88
369.008	-113.49
369.223	-252.75
369.438	165.03
369.653	349.35
369.868	-351.06
370.083	-230.23
370.298	115.88
370.513	384.16
370.728	95.4
370.943	-158.55
371.157	-203.6
371.372	492.71
371.587	-244.56
371.802	-267.09
372.017	17.58
372.232	445.6
372.446	-156.5
372.661	-250.71
372.876	292.01
373.091	226.47
373.306	-109.4
373.52	-265.04
373.735	-111.44
373.95	371.88
374.165	-113.49
374.379	-187.22
374.594	-154.45
374.809	91.31
375.023	-25.43
375.238	-271.19
375.453	255.14
375.667	-273.23
375.882	-152.4
376.097	-156.5
376.311	54.44
376.526	54.44
376.741	-195.41
376.955	111.78
377.17	554.15
377.384	486.56
377.599	-93.01
377.813	-310.1
378.028	531.62
378.242	171.18
378.457	-62.29
378.672	-467.79
378.886	9.39
379.101	-131.92
379.315	-281.43
379.53	-158.55
379.744	226.47
379.958	146.6
380.173	-131.92
380.387	-195.41
380.602	162.98
380.816	-136.02
381.031	-158.55
381.245	-119.64
381.459	111.78
381.674	2616.45
381.888	-265.04
382.103	93.35
382.317	-267.09
382.531	480.42
382.746	-68.44
382.96	-170.83
383.174	-84.82
383.388	513.19
383.603	23.72
383.817	-215.89
384.031	113.83
384.246	400.55
384.46	-11.09
384.674	328.87
384.888	-37.72
385.103	-19.29
385.317	-258.9
385.531	-50
385.745	326.82
385.959	263.33
386.174	-199.51
386.388	-224.08
386.602	81.07
386.816	-136.02
387.03	-123.73
387.244	-115.54
387.458	83.11
387.672	351.4
387.887	-320.34
388.101	-322.38
388.315	351.4
388.529	132.26
388.743	-150.36
388.957	-265.04
389.171	275.62
389.385	-179.03
389.599	-113.49
389.813	21.67
390.027	97.45
390.241	683.17
390.455	-170.83
390.669	-107.35
390.883	-146.26
391.097	267.43
391.311	72.87
391.525	-205.65
391.738	165.03
391.952	181.42
392.166	-41.81
392.38	-228.18
392.594	218.28
392.808	287.91
393.022	-76.63
393.236	-129.88
393.449	46.25
393.663	52.39
393.877	-281.43
394.091	-74.58
394.305	-52.05
394.518	-27.48
394.732	-265.04
394.946	-170.83
395.16	425.12
395.373	142.5
395.587	-230.23
395.801	-232.27
396.015	251.05
396.228	146.6
396.442	-281.43
396.656	-306
396.869	294.05
397.083	410.79
397.297	-60.24
397.51	-129.88
397.724	441.51
397.938	124.07
398.151	-332.62
398.365	-250.71
398.578	173.22
398.792	382.12
399.005	-39.76
399.219	-150.36
399.433	146.6
399.646	115.88
399.86	40.11
400.073	23.72
400.287	197.8
400.5	-31.57
400.714	-80.72
400.927	-58.2
401.141	222.38
401.354	1055.9
401.567	87.21
401.781	-316.24
401.994	246.95
402.208	615.59
402.421	-170.83
402.635	-74.58
402.848	17.58
403.061	228.52
403.275	-25.43
403.488	-256.85
403.701	429.22
403.915	281.77
404.128	-72.53
404.341	-142.16
404.555	240.81
404.768	7.34
404.981	91.31
405.195	-146.26
405.408	476.32
405.621	271.53
405.834	-21.33
406.048	-240.47
406.261	402.6
406.474	451.75
406.687	-117.59
406.9	-64.34
407.114	72.87
407.327	144.55
407.54	-334.67
407.753	-377.68
407.966	-203.6
408.179	238.76
408.392	-199.51
408.605	-375.63
408.819	79.02
409.032	173.22
409.245	-146.26
409.458	-33.62
409.671	185.51
409.884	220.33
410.097	-344.91
410.31	-17.24
410.523	187.56
410.736	-19.29
410.949	-0.85
411.162	-158.55
411.375	378.02
411.588	277.67
411.801	23.72
412.014	-250.71
412.227	5.29
412.44	-56.15
412.653	-119.64
412.865	-105.3
413.078	255.14
413.291	115.88
413.504	-123.73
413.717	-281.43
413.93	189.61
414.143	-127.83
414.356	-109.4
414.568	-346.96
414.781	224.42
414.994	52.39
415.207	-119.64
415.42	-109.4
415.632	279.72
415.845	507.04
416.058	-375.63
416.271	-260.95
416.483	-39.76
416.696	472.23
416.909	-123.73
417.121	-265.04
417.334	175.27
417.547	472.23
417.759	-203.6
417.972	-222.03
418.185	-101.2
418.397	281.77
418.61	-156.5
418.823	-252.75
419.035	464.04
419.248	-9.05
419.46	-68.44
419.673	-45.91
419.885	160.94
420.098	-33.62
420.311	-166.74
420.523	-418.64
420.736	197.8
420.948	-17.24
421.161	-82.77
421.373	-324.43
421.586	89.26
421.798	-123.73
422.01	-357.2
422.223	36.01
422.435	-117.59
422.648	261.29
422.86	-170.83
423.073	-224.08
423.285	365.73
423.497	-222.03
423.71	-240.47
423.922	-258.9
424.134	144.55
424.347	392.36
424.559	-33.62
424.771	134.31
424.984	25.77
425.196	167.08
425.408	-363.34
425.621	-289.62
425.833	267.43
426.045	316.58
426.257	-226.13
426.47	-185.17
426.682	109.74
426.894	185.51
427.106	-185.17
427.318	-27.48
427.531	-277.33
427.743	242.85
427.955	-164.69
428.167	251.05
428.379	212.14
428.591	-115.54
428.804	-138.07
429.016	-258.9
429.228	15.53
429.44	160.94
429.652	-35.67
429.864	-262.99
430.076	-72.53
430.288	-41.81
430.5	-93.01
430.712	-125.78
430.924	271.53
431.136	154.79
431.348	-361.3
431.56	-217.94
431.772	25.77
431.984	-64.34
432.196	-271.19
432.408	-183.12
432.62	15.53
432.832	38.06
433.044	113.83
433.256	-107.35
433.468	173.22
433.679	-338.77
433.891	-269.14
434.103	-72.53
434.315	441.51
434.527	222.38
434.739	-31.57
434.95	-152.4
435.162	263.33
435.374	-52.05
435.586	-191.31
435.798	-230.23
436.009	-246.61
436.221	-2.9
436.433	-197.46
436.645	-119.64
436.856	-97.11
437.068	285.86
437.28	-224.08
437.491	27.82
437.703	124.07
437.915	119.98
438.126	-125.78
438.338	19.63
438.55	36.01
438.761	134.31
438.973	-205.65
439.184	-158.55
439.396	-23.38
439.608	222.38
439.819	-297.81
440.031	-86.87
440.242	195.75
440.454	246.95
440.665	-195.41
440.877	-7
441.088	162.98
441.3	-52.05
441.511	-404.3
441.723	-244.56
441.934	126.12
442.146	-15.19
442.357	-47.96
442.569	103.59
442.78	122.02
442.991	402.6
443.203	29.87
443.414	-287.57
443.626	378.02
443.837	-113.49
444.048	-312.14
444.26	-330.58
444.471	76.97
444.682	214.18
444.894	-351.06
445.105	-346.96
445.316	289.96
445.528	93.35
445.739	-117.59
445.95	-123.73
446.161	13.48
446.373	234.66
446.584	-271.19
446.795	-240.47
447.006	238.76
447.217	437.41
447.429	-275.28
447.64	-330.58
447.851	314.53
448.062	-11.09
448.273	-379.73
448.484	-203.6
448.695	179.37
448.907	36.01
449.118	-113.49
449.329	-4.95
449.54	-95.06
449.751	-131.92
449.962	-256.85
450.173	-158.55
450.384	199.85
450.595	382.12
450.806	-193.36
451.017	-248.66
451.228	255.14
451.439	214.18
451.65	-185.17
451.861	-432.97
452.072	-269.14
452.283	66.73
452.494	38.06
452.705	-248.66
452.915	341.16
453.126	111.78
453.337	-144.21
453.548	-240.47
453.759	263.33
453.97	525.47
454.181	5.29
454.391	-193.36
454.602	31.91
454.813	197.8
455.024	-158.55
455.235	-248.66
455.445	79.02
455.656	132.26
455.867	-72.53
456.078	-269.14
456.288	-0.85
456.499	146.6
456.71	-271.19
456.921	5.29
457.131	111.78
457.342	128.17
457.553	-133.97
457.763	-213.84
457.974	148.65
458.184	214.18
458.395	-279.38
458.606	-285.52
458.816	275.62
459.027	435.36
459.237	-31.57
459.448	-334.67
459.659	310.44
459.869	449.7
460.08	-396.11
460.29	-84.82
460.501	404.64
460.711	-93.01
460.922	-383.82
461.132	-226.13
461.343	697.5
461.553	-271.19
461.764	-181.07
461.974	-191.31
462.184	218.28
462.395	117.93
462.605	-158.55
462.816	-306
463.026	56.49
463.236	328.87
463.447	-236.37
463.657	-140.12
463.867	179.37
464.078	-54.1
464.288	-203.6
464.498	-279.38
464.709	-2.9
464.919	-19.29
465.129	-129.88
465.339	-275.28
465.55	60.59
465.76	181.42
465.97	-256.85
466.18	-301.9
466.391	183.46
466.601	79.02
466.811	-50
467.021	-281.43
467.231	205.99
467.441	277.67
467.651	-109.4
467.862	-416.59
468.072	13.48
468.282	285.86
468.492	-224.08
468.702	-164.69
468.912	1.19
469.122	597.15
469.332	91.31
469.542	-281.43
469.752	173.22
469.962	124.07
470.172	-379.73
470.382	-246.61
470.592	189.61
470.802	226.47
471.012	-148.31
471.222	-287.57
471.432	244.9
471.642	216.23
471.852	-107.35
472.062	-269.14
472.272	-76.63
472.482	-236.37
472.691	-336.72
472.901	-353.1
473.111	56.49
473.321	566.43
473.531	-359.25
473.741	-189.27
473.95	107.69
474.16	199.85
474.37	-142.16
474.58	-279.38
474.79	361.64
474.999	246.95
475.209	-242.51
475.419	-164.69
475.628	-101.2
475.838	375.97
476.048	-123.73
476.258	-363.34
476.467	271.53
476.677	-68.44
476.886	-21.33
477.096	-172.88
477.306	-146.26
477.515	322.73
477.725	-78.68
477.935	-205.65
478.144	294.05
478.354	-133.97
478.563	-209.75
478.773	-250.71
478.982	158.89
479.192	343.21
479.401	-41.81
479.611	-285.52
479.82	-88.92
480.03	89.26
480.239	-252.75
480.449	-277.33
480.658	392.36
480.868	-115.54
481.077	-119.64
481.287	-150.36
481.496	218.28
481.705	300.2
481.915	5.29
482.124	70.83
482.333	111.78
482.543	382.12
482.752	-164.69
482.961	-230.23
483.171	210.09
483.38	-29.52
483.589	-101.2
483.799	-277.33
484.008	15.53
484.217	224.42
484.426	-166.74
484.636	-355.15
484.845	58.54
485.054	-256.85
485.263	64.68
485.472	-174.93
485.682	416.93
485.891	29.87
486.1	-377.68
486.309	-222.03
486.518	173.22
486.727	339.11
486.936	-299.86
487.146	-133.97
487.355	378.02
487.564	-205.65
487.773	-236.37
487.982	-275.28
488.191	-133.97
488.4	11.43
488.609	-195.41
488.818	-148.31
489.027	576.67
489.236	363.69
489.445	-88.92
489.654	-295.76
489.863	212.14
490.072	48.3
490.281	58.54
490.49	-295.76
490.698	361.64
490.907	341.16
491.116	-240.47
491.325	-334.67
491.534	439.46
491.743	160.94
491.952	-148.31
492.16	-113.49
492.369	169.13
492.578	312.49
492.787	-131.92
492.996	-328.53
493.204	-201.55
493.413	529.57
493.622	-420.69
493.831	-346.96
494.039	394.4
494.248	-248.66
494.457	-250.71
494.665	-379.73
494.874	165.03
495.083	548
495.291	-281.43
495.5	-326.48
495.709	203.94
495.917	46.25
496.126	-125.78
496.335	-230.23
496.543	-117.59
496.752	162.98
496.96	-64.34
497.169	-373.58
497.377	111.78
497.586	279.72
497.794	-66.39
498.003	-387.92
498.211	23.72
498.42	400.55
498.628	-131.92
498.837	-365.39
499.045	179.37
499.254	128.17
499.462	-217.94
499.671	-291.66
499.879	388.26
500.087	263.33
500.296	-224.08
500.504	-179.03
500.713	117.93
500.921	556.19
501.129	-297.81
501.338	-232.27
501.546	95.4
501.754	36.01
501.962	-146.26
502.171	-287.57
502.379	126.12
502.587	437.41
502.795	-201.55
503.004	-203.6
503.212	21.67
503.42	294.05
503.628	-244.56
503.837	-156.5
504.045	201.9
504.253	431.27
504.461	-246.61
504.669	-430.93
504.877	222.38
505.085	404.64
505.294	-342.86
505.502	64.68
505.71	128.17
505.918	296.1
506.126	-199.51
506.334	-269.14
506.542	-15.19
506.75	70.83
506.958	-60.24
507.166	-224.08
507.374	-52.05
507.582	498.85
507.79	-121.68
507.998	-215.89
508.206	148.65
508.414	171.18
508.622	-226.13
508.83	-162.64
509.037	445.6
509.245	42.15
509.453	-273.23
509.661	-301.9
509.869	259.24
510.077	7.34
510.285	-121.68
510.492	-510.8
510.7	627.87
510.908	-107.35
511.116	-174.93
511.324	-289.62
511.531	-29.52
511.739	74.92
511.947	23.72
512.155	144.55
512.362	33.96
512.57	-146.26
512.778	-224.08
512.985	-373.58
513.193	324.77
513.401	400.55
513.608	-93.01
513.816	-205.65
514.024	113.83
514.231	337.06
514.439	-246.61
514.646	-269.14
514.854	314.53
515.061	390.31
515.269	-172.88
515.477	-174.93
515.684	-244.56
515.892	201.9
516.099	-349.01
516.307	-428.88
516.514	285.86
516.722	425.12
516.929	-207.7
517.136	-357.2
517.344	398.5
517.551	232.62
517.759	-222.03
517.966	-191.31
518.173	68.78
518.381	44.2
518.588	-64.34
518.796	-254.8
519.003	183.46
519.21	128.17
519.418	-197.46
519.625	124.07
519.832	31.91
520.039	64.68
520.247	-363.34
520.454	-310.1
520.661	228.52
520.868	205.99
521.076	-230.23
521.283	-158.55
521.49	758.94
521.697	183.46
521.904	-162.64
522.112	-199.51
522.319	269.48
522.526	193.7
522.733	-283.47
522.94	-250.71
523.147	64.68
523.354	322.73
523.561	-258.9
523.768	-185.17
523.975	322.73
524.183	103.59
524.39	-115.54
524.597	-267.09
524.804	66.73
525.011	-52.05
525.218	-197.46
525.425	-312.14
525.632	357.54
525.838	-162.64
526.045	-138.07
526.252	-232.27
526.459	1240.22
526.666	875.68
526.873	-224.08
527.08	-230.23
527.287	439.46
527.494	285.86
527.701	-303.95
527.907	-326.48
528.114	205.99
528.321	-11.09
528.528	-187.22
528.735	-330.58
528.941	-62.29
529.148	-56.15
529.355	-115.54
529.562	-199.51
529.768	595.11
529.975	3.24
530.182	-199.51
530.388	-375.63
530.595	326.82
530.802	-168.79
531.008	-86.87
531.215	-215.89
531.422	726.18
531.628	769.18
531.835	-142.16
532.042	-146.26
532.248	-47.96
532.455	183.46
532.661	-95.06
532.868	-287.57
533.074	107.69
533.281	332.97
533.487	-111.44
533.694	-240.47
533.9	-142.16
534.107	183.46
534.313	-211.79
534.52	-322.38
534.726	277.67
534.933	545.95
535.139	-285.52
535.345	-275.28
535.552	183.46
535.758	38.06
535.965	-205.65
536.171	-222.03
536.377	218.28
536.584	531.62
536.79	-301.9
536.996	-170.83
537.203	128.17
537.409	144.55
537.615	-219.99
537.821	-70.48
538.028	302.25
538.234	249
538.44	-170.83
538.646	-58.2
538.853	230.57
539.059	-9.05
539.265	251.05
539.471	-437.07
539.677	337.06
539.883	5.29
540.09	-244.56
540.296	281.77
540.502	62.63
540.708	-56.15
540.914	-52.05
541.12	-248.66
541.326	214.18
541.532	33.96
541.738	-183.12
541.944	-136.02
542.15	232.62
542.356	-27.48
542.562	-308.05
542.768	-142.16
542.974	681.12
543.18	478.37
543.386	-209.75
543.592	-338.77
543.798	392.36
544.004	357.54
544.21	-201.55
544.415	-109.4
544.621	76.97
544.827	296.1
545.033	-285.52
545.239	42.15
545.445	-111.44
545.651	171.18
545.856	-234.32
546.062	-146.26
546.268	-23.38
546.474	13.48
546.679	-205.65
546.885	-103.25
547.091	-45.91
547.297	638.11
547.502	-125.78
547.708	-232.27
547.914	-19.29
548.119	271.53
548.325	-203.6
548.531	-240.47
548.736	576.67
548.942	-127.83
549.147	-267.09
549.353	15.53
549.559	337.06
549.764	183.46
549.97	-146.26
550.175	-238.42
550.381	289.96
550.586	-15.19
550.792	-109.4
550.997	-170.83
551.203	165.03
551.408	205.99
551.614	-250.71
551.819	-252.75
552.025	494.76
552.23	631.97
552.435	-174.93
552.641	-41.81
552.846	-15.19
553.052	365.73
553.257	-2.9
553.462	-170.83
553.668	-33.62
553.873	410.79
554.078	-195.41
554.283	-215.89
554.489	140.46
554.694	60.59
554.899	-283.47
555.105	27.82
555.31	189.61
555.515	273.57
555.72	-82.77
555.925	-303.95
556.131	189.61
556.336	13.48
556.541	-109.4
556.746	-297.81
556.951	464.04
557.156	451.75
557.361	-119.64
557.567	-31.57
557.772	631.97
557.977	218.28
558.182	-95.06
558.387	-226.13
558.592	-23.38
558.797	398.5
559.002	-7
559.207	-17.24
559.412	70.83
559.617	517.28
559.822	-234.32
560.027	-189.27
560.232	222.38
560.437	300.2
560.642	-297.81
560.847	-217.94
561.051	109.74
561.256	210.09
561.461	-15.19
561.666	-256.85
561.871	124.07
562.076	228.52
562.281	-113.49
562.485	-242.51
562.69	275.62
562.895	332.97
563.1	-109.4
563.305	-224.08
563.509	461.99
563.714	709.79
563.919	-183.12
564.123	-217.94
564.328	95.4
564.533	441.51
564.737	-146.26
564.942	-127.83
565.147	492.71
565.351	668.83
565.556	-115.54
565.761	-86.87
565.965	285.86
566.17	-52.05
566.374	-125.78
566.579	-260.95
566.784	267.43
566.988	50.35
567.193	-281.43
567.397	-129.88
567.602	-146.26
567.806	103.59
568.011	-131.92
568.215	-224.08
568.42	66.73
568.624	54.44
568.828	-119.64
569.033	-37.72
569.237	275.62
569.442	232.62
569.646	-318.29
569.85	-88.92
570.055	62.63
570.259	148.65
570.463	136.36
570.668	-80.72
570.872	124.07
571.076	113.83
571.281	-35.67
571.485	-13.14
571.689	167.08
571.893	304.29
572.098	79.02
572.302	-129.88
572.506	294.05
572.71	117.93
572.914	-35.67
573.119	-109.4
573.323	509.09
573.527	451.75
573.731	-193.36
573.935	-197.46
574.139	183.46
574.343	-33.62
574.547	-146.26
574.751	-101.2
574.955	492.71
575.159	404.64
575.364	-103.25
575.568	-101.2
575.772	183.46
575.976	492.71
576.18	-103.25
576.383	-256.85
576.587	414.88
576.791	316.58
576.995	-267.09
577.199	-273.23
577.403	351.4
577.607	326.82
577.811	-252.75
578.015	-68.44
578.219	148.65
578.422	320.68
578.626	-78.68
578.83	87.21
579.034	365.73
579.238	205.99
579.442	-193.36
579.645	230.57
579.849	124.07
580.053	183.46
580.257	-33.62
580.46	-35.67
580.664	375.97
580.868	294.05
581.071	103.59
581.275	25.77
581.479	-217.94
581.682	281.77
581.886	-158.55
582.09	31.91
582.293	373.92
582.497	425.12
582.7	101.55
582.904	-154.45
583.107	210.09
583.311	40.11
583.515	-76.63
583.718	-43.86
583.922	283.81
584.125	627.87
584.329	-203.6
584.532	-0.85
584.735	472.23
584.939	328.87
585.142	-211.79
585.346	-105.3
585.549	236.71
585.753	91.31
585.956	-7
586.159	27.82
586.363	507.04
586.566	265.38
586.769	-193.36
586.973	-168.79
587.176	283.81
587.379	496.8
587.582	281.77
587.786	257.19
587.989	218.28
588.192	763.04
588.395	27.82
588.599	242.85
588.802	363.69
589.005	335.01
589.208	-129.88
589.411	-125.78
589.615	550.05
589.818	580.77
590.021	203.94
590.224	-11.09
590.427	386.21
590.63	289.96
590.833	-277.33
591.036	-80.72
591.239	66.73
591.442	103.59
591.645	113.83
591.848	-101.2
592.051	244.9
592.254	457.89
592.457	13.48
592.66	38.06
592.863	132.26
593.066	394.4
593.269	-19.29
593.472	-41.81
593.675	81.07
593.878	423.08
594.081	46.25
594.284	-160.59
594.486	320.68
594.689	210.09
594.892	-19.29
595.095	21.67
595.298	382.12
595.5	126.12
595.703	91.31
595.906	13.48
596.109	564.39
596.311	447.65
596.514	-287.57
596.717	7.34
596.92	445.6
597.122	332.97
597.325	-346.96
597.528	-62.29
597.73	511.14
597.933	287.91
598.136	-21.33
598.338	-285.52
598.541	296.1
598.743	541.86
598.946	-39.76
599.148	-103.25
599.351	431.27
599.554	443.56
599.756	115.88
599.959	-80.72
600.161	488.61
600.363	822.43
600.566	287.91
600.768	-107.35
600.971	613.54
601.173	318.63
601.376	-99.16
601.578	23.72
601.78	361.64
601.983	816.29
602.185	-78.68
602.388	154.79
602.59	337.06
602.792	64.68
602.995	189.61
603.197	-2.9
603.399	373.92
603.601	351.4
603.804	-13.14
604.006	-64.34
604.208	162.98
604.41	-138.07
604.613	115.88
604.815	-74.58
605.017	781.47
605.219	76.97
605.421	339.11
605.623	40.11
605.826	537.76
606.028	619.68
606.23	1.19
606.432	-35.67
606.634	629.92
606.836	552.1
607.038	-170.83
607.24	146.6
607.442	294.05
607.644	240.81
607.846	150.7
608.048	-39.76
608.25	572.58
608.452	117.93
608.654	-56.15
608.856	-267.09
609.058	189.61
609.26	371.88
609.462	144.55
609.664	95.4
609.866	773.28
610.067	562.34
610.269	181.42
610.471	68.78
610.673	154.79
610.875	468.13
611.077	-162.64
611.278	154.79
611.48	267.43
611.682	736.42
611.884	136.36
612.085	60.59
612.287	31.91
612.489	343.21
612.69	-158.55
612.892	-23.38
613.094	554.15
613.295	390.31
613.497	-29.52
613.699	58.54
613.9	545.95
614.102	545.95
614.304	146.6
614.505	-115.54
614.707	251.05
614.908	289.96
615.11	-84.82
615.311	128.17
615.513	480.42
615.714	490.66
615.916	-185.17
616.117	113.83
616.319	306.34
616.52	443.56
616.722	29.87
616.923	-4.95
617.124	595.11
617.326	486.56
617.527	101.55
617.729	269.48
617.93	410.79
618.131	558.24
618.333	68.78
618.534	109.74
618.735	101.55
618.937	662.69
619.138	-19.29
619.339	38.06
619.54	464.04
619.742	271.53
619.943	199.85
620.144	70.83
620.345	478.37
620.546	568.48
620.748	-97.11
620.949	187.56
621.15	351.4
621.351	345.25
621.552	54.44
621.753	-58.2
621.954	-97.11
622.155	754.85
622.356	-29.52
622.558	287.91
622.759	308.39
622.96	750.75
623.161	62.63
623.362	126.12
623.563	320.68
623.764	369.83
623.965	81.07
624.166	263.33
624.366	312.49
624.567	400.55
624.768	-146.26
624.969	5.29
625.17	263.33
625.371	500.9
625.572	185.51
625.773	-101.2
625.973	591.01
626.174	543.91
626.375	162.98
626.576	249
626.777	464.04
626.977	892.06
627.178	48.3
627.379	220.33
627.58	373.92
627.78	351.4
627.981	101.55
628.182	249
628.382	584.87
628.583	-72.53
628.784	27.82
628.984	246.95
629.185	556.19
629.386	449.7
629.586	197.8
629.787	-2.9
629.987	414.88
630.188	283.81
630.388	128.17
630.589	138.41
630.79	961.69
630.99	347.3
631.191	79.02
631.391	205.99
631.591	615.59
631.792	887.97
631.992	271.53
632.193	83.11
632.393	795.81
632.594	289.96
632.794	97.45
632.994	173.22
633.195	351.4
633.395	369.83
633.595	3.24
633.796	339.11
633.996	210.09
634.196	629.92
634.397	-168.79
634.597	89.26
634.797	124.07
634.997	767.13
635.198	302.25
635.398	-39.76
635.598	443.56
635.798	717.98
635.998	523.43
636.199	46.25
636.399	187.56
636.599	158.89
636.799	103.59
636.999	394.4
637.199	543.91
637.399	634.02
637.599	33.96
637.799	353.45
637.999	310.44
638.199	699.55
638.399	21.67
638.599	158.89
638.799	476.32
638.999	777.37
639.199	267.43
639.399	302.25
639.599	787.61
639.799	128.17
639.999	21.67
640.199	-4.95
640.399	359.59
640.599	509.09
640.799	218.28
640.998	335.01
641.198	715.94
641.398	502.95
641.598	205.99
641.798	124.07
641.997	1356.95
642.197	468.13
642.397	296.1
642.597	201.9
642.796	433.32
642.996	758.94
643.196	240.81
643.395	64.68
643.595	531.62
643.795	15.53
643.994	119.98
644.194	242.85
644.394	517.28
644.593	455.84
644.793	21.67
644.992	320.68
645.192	453.8
645.392	9.39
645.591	312.49
645.791	279.72
645.99	556.19
646.19	310.44
646.389	203.94
646.589	302.25
646.788	572.58
646.987	500.9
647.187	447.65
647.386	373.92
647.586	357.54
647.785	697.5
647.984	173.22
648.184	269.48
648.383	292.01
648.582	332.97
648.782	230.57
648.981	371.88
649.18	234.66
649.38	402.6
649.579	181.42
649.778	189.61
649.977	533.67
650.177	496.8
650.376	144.55
650.575	181.42
650.774	783.52
650.973	365.73
651.173	33.96
651.372	138.41
651.571	541.86
651.77	658.59
651.969	165.03
652.168	246.95
652.367	105.64
652.566	406.69
652.765	87.21
652.964	476.32
653.163	912.54
653.362	455.84
653.561	205.99
653.76	222.38
653.959	349.35
654.158	562.34
654.357	445.6
654.556	171.18
654.755	554.15
654.954	679.07
655.153	294.05
655.352	347.3
655.551	808.09
655.749	292.01
655.948	220.33
656.147	300.2
656.346	521.38
656.545	390.31
656.743	203.94
656.942	316.58
657.141	410.79
657.34	214.18
657.538	208.04
657.737	226.47
657.936	312.49
658.135	558.24
658.333	205.99
658.532	367.78
658.731	873.63
658.929	621.73
659.128	566.43
659.326	177.32
659.525	668.83
659.724	466.08
659.922	-17.24
660.121	158.89
660.319	578.72
660.518	382.12
660.716	150.7
660.915	58.54
661.113	748.7
661.312	187.56
661.51	402.6
661.709	263.33
661.907	597.15
662.105	908.44
662.304	277.67
662.502	300.2
662.701	742.56
662.899	375.97
663.097	582.82
663.296	169.13
663.494	746.66
663.692	947.36
663.891	214.18
664.089	228.52
664.287	537.76
664.485	816.29
664.684	97.45
664.882	320.68
665.08	402.6
665.278	459.94
665.476	91.31
665.675	537.76
665.873	926.88
666.071	746.66
666.269	201.9
666.467	509.09
666.665	621.73
666.863	474.28
667.061	468.13
667.259	220.33
667.457	425.12
667.655	726.18
667.853	70.83
668.051	378.02
668.249	332.97
668.447	644.26
668.645	134.31
668.843	468.13
669.041	656.54
669.239	369.83
669.437	412.84
669.635	408.74
669.833	476.32
670.031	654.5
670.229	408.74
670.426	365.73
670.624	396.45
670.822	283.81
671.02	294.05
671.218	343.21
671.415	353.45
671.613	554.15
671.811	384.16
672.009	351.4
672.206	636.06
672.404	578.72
672.602	439.46
672.799	378.02
672.997	711.84
673.195	750.75
673.392	449.7
673.59	238.76
673.788	685.22
673.985	122.02
674.183	431.27
674.38	341.16
674.578	703.65
674.775	386.21
674.973	183.46
675.17	185.51
675.368	914.59
675.565	617.63
675.763	316.58
675.96	259.24
676.158	812.19
676.355	482.47
676.553	255.14
676.75	271.53
676.947	625.83
677.145	513.19
677.342	496.8
677.539	427.17
677.737	568.48
677.934	1010.84
678.131	445.6
678.329	287.91
678.526	857.25
678.723	652.45
678.92	369.83
679.118	296.1
679.315	320.68
679.512	930.97
679.709	357.54
679.906	316.58
680.104	844.96
680.301	767.13
680.498	242.85
680.695	140.46
680.892	322.73
681.089	445.6
681.286	431.27
681.483	175.27
681.68	705.7
681.877	701.6
682.075	439.46
682.272	496.8
682.469	720.03
682.665	480.42
682.862	234.66
683.059	146.6
683.256	597.15
683.453	603.3
683.65	482.47
683.847	386.21
684.044	568.48
684.241	337.06
684.438	507.04
684.635	230.57
684.831	840.86
685.028	1059.99
685.225	208.04
685.422	578.72
685.619	504.99
685.815	578.72
686.012	404.64
686.209	400.55
686.405	251.05
686.602	771.23
686.799	156.84
686.996	246.95
687.192	365.73
687.389	978.08
687.586	314.53
687.782	345.25
687.979	924.83
688.175	830.62
688.372	425.12
688.568	341.16
688.765	474.28
688.962	832.67
689.158	433.32
689.355	138.41
689.551	789.66
689.748	363.69
689.944	392.36
690.14	265.38
690.337	777.37
690.533	476.32
690.73	496.8
690.926	275.62
691.123	703.65
691.319	539.81
691.515	251.05
691.712	509.09
691.908	668.83
692.104	672.93
692.301	484.52
692.497	197.8
692.693	773.28
692.889	779.42
693.086	498.85
693.282	222.38
693.478	548
693.674	976.03
693.87	433.32
694.067	246.95
694.263	664.74
694.459	550.05
694.655	451.75
694.851	369.83
695.047	736.42
695.243	734.37
695.439	502.95
695.635	353.45
695.831	703.65
696.027	595.11
696.224	361.64
696.42	672.93
696.615	969.88
696.811	742.56
697.007	205.99
697.203	390.31
697.399	726.18
697.595	849.05
697.791	330.92
697.987	515.23
698.183	257.19
698.379	394.4
698.575	369.83
698.77	425.12
698.966	726.18
699.162	967.84
699.358	416.93
699.554	390.31
699.749	672.93
699.945	871.58
700.141	494.76
700.337	468.13
700.532	660.64
700.728	443.56
700.924	292.01
701.119	222.38
701.315	726.18
701.511	558.24
701.706	525.47
701.902	175.27
702.097	627.87
702.293	795.81
702.489	455.84
702.684	349.35
702.88	631.97
703.075	574.63
703.271	314.53
703.466	304.29
703.662	529.57
703.857	685.22
704.053	341.16
704.248	322.73
704.443	623.78
704.639	822.43
704.834	384.16
705.03	396.45
705.225	885.92
705.42	922.78
705.616	535.71
705.811	365.73
706.006	533.67
706.202	500.9
706.397	480.42
706.592	210.09
706.787	703.65
706.983	580.77
707.178	615.59
707.373	423.08
707.568	734.37
707.763	851.1
707.959	423.08
708.154	437.41
708.349	646.3
708.544	681.12
708.739	599.2
708.934	249
709.129	789.66
709.324	949.4
709.519	398.5
709.714	222.38
709.909	894.11
710.104	713.89
710.299	414.88
710.494	351.4
710.689	763.04
710.884	646.3
711.079	562.34
711.274	642.21
711.469	791.71
711.664	758.94
711.859	304.29
712.054	470.18
712.249	818.33
712.443	871.58
712.638	220.33
712.833	357.54
713.028	619.68
713.223	605.35
713.417	709.79
713.612	435.36
713.807	763.04
714.002	1223.83
714.196	640.16
714.391	365.73
714.586	928.92
714.78	605.35
714.975	447.65
715.17	380.07
715.364	556.19
715.559	902.3
715.754	160.94
715.948	373.92
716.143	982.17
716.337	683.17
716.532	722.08
716.726	394.4
716.921	816.29
717.115	1088.67
717.31	292.01
717.504	918.68
717.699	525.47
717.893	734.37
718.088	316.58
718.282	294.05
718.476	677.02
718.671	793.76
718.865	386.21
719.059	486.56
719.254	603.3
719.448	957.6
719.642	1705.1
719.837	257.19
720.031	773.28
720.225	887.97
720.419	525.47
720.614	312.49
720.808	869.53
721.002	611.49
721.196	402.6
721.39	435.36
721.585	1062.04
721.779	722.08
721.973	545.95
722.167	263.33
722.361	740.51
722.555	857.25
722.749	488.61
722.943	431.27
723.137	361.64
723.331	726.18
723.525	361.64
723.719	439.46
723.913	824.48
724.107	957.6
724.301	320.68
724.495	464.04
724.689	1094.81
724.883	998.56
725.077	455.84
725.271	347.3
725.465	943.26
725.659	634.02
725.853	539.81
726.046	406.69
726.24	515.23
726.434	869.53
726.628	455.84
726.822	496.8
727.015	922.78
727.209	994.46
727.403	357.54
727.596	218.28
727.79	869.53
727.984	869.53
728.177	380.07
728.371	582.82
728.565	883.87
728.758	427.17
728.952	294.05
729.146	451.75
729.339	980.12
729.533	621.73
729.726	445.6
729.92	404.64
730.113	943.26
730.307	767.13
730.5	494.76
730.694	439.46
730.887	595.11
731.081	824.48
731.274	296.1
731.468	451.75
731.661	578.72
731.854	476.32
732.048	468.13
732.241	283.81
732.435	556.19
732.628	758.94
732.821	486.56
733.014	328.87
733.208	390.31
733.401	822.43
733.594	517.28
733.788	453.8
733.981	978.08
734.174	679.07
734.367	384.16
734.56	427.17
734.754	912.54
734.947	693.41
735.14	380.07
735.333	502.95
735.526	828.57
735.719	541.86
735.912	332.97
736.105	285.86
736.298	748.7
736.491	482.47
736.684	359.59
736.877	273.57
737.07	795.81
737.263	926.88
737.456	431.27
737.649	384.16
737.842	574.63
738.035	652.45
738.228	490.66
738.421	521.38
738.614	955.55
738.807	820.38
739	265.38
739.192	441.51
739.385	763.04
739.578	865.44
739.771	629.92
739.964	451.75
740.156	867.49
740.349	689.31
740.542	605.35
740.735	318.63
740.927	439.46
741.12	457.89
741.313	418.98
741.505	533.67
741.698	660.64
741.891	734.37
742.083	570.53
742.276	410.79
742.468	748.7
742.661	656.54
742.854	435.36
743.046	386.21
743.239	1119.39
743.431	621.73
743.624	484.52
743.816	357.54
744.009	554.15
744.201	812.19
744.393	631.97
744.586	332.97
744.778	976.03
744.971	717.98
745.163	568.48
745.355	588.96
745.548	664.74
745.74	533.67
745.932	537.76
746.125	478.37
746.317	1281.18
746.509	681.12
746.702	554.15
746.894	533.67
747.086	840.86
747.278	941.21
747.471	545.95
747.663	525.47
747.855	670.88
748.047	1109.15
748.239	361.64
748.431	556.19
748.623	1113.24
748.815	1150.11
749.008	345.25
749.2	345.25
749.392	828.57
749.584	799.9
749.776	552.1
749.968	494.76
750.16	1131.67
750.352	636.06
750.544	541.86
750.736	361.64
750.928	685.22
751.12	613.54
751.311	572.58
751.503	488.61
751.695	808.09
751.887	738.46
752.079	242.85
752.271	466.08
752.463	1528.98
752.654	930.97
752.846	558.24
753.038	472.23
753.23	654.5
753.421	857.25
753.613	529.57
753.805	689.31
753.997	967.84
754.188	857.25
754.38	382.12
754.572	408.74
754.763	570.53
754.955	814.24
755.146	457.89
755.338	476.32
755.53	791.71
755.721	724.13
755.913	357.54
756.104	318.63
756.296	695.46
756.487	818.33
756.679	369.83
756.87	425.12
757.062	593.06
757.253	857.25
757.445	402.6
757.636	666.78
757.827	695.46
758.019	1350.81
758.21	355.49
758.401	498.85
758.593	1152.15
758.784	1031.32
758.975	357.54
759.167	332.97
759.358	656.54
759.549	967.84
759.74	390.31
759.932	468.13
760.123	1021.08
760.314	613.54
760.505	648.35
760.696	568.48
760.888	1162.39
761.079	597.15
761.27	431.27
761.461	324.77
761.652	1068.19
761.843	482.47
762.034	425.12
762.225	603.3
762.416	754.85
762.607	689.31
762.798	468.13
762.989	423.08
763.18	1506.45
763.371	679.07
763.562	459.94
763.753	484.52
763.944	976.03
764.135	896.16
764.326	611.49
764.517	418.98
764.708	834.72
764.899	953.5
765.089	541.86
765.28	283.81
765.471	804
765.662	752.8
765.853	517.28
766.043	324.77
766.234	933.02
766.425	1049.75
766.615	519.33
766.806	337.06
766.997	990.36
767.187	804
767.378	349.35
767.569	275.62
767.759	863.39
767.95	699.55
768.141	617.63
768.331	474.28
768.522	734.37
768.712	795.81
768.903	509.09
769.093	400.55
769.284	1043.61
769.474	697.5
769.665	285.86
769.855	308.39
770.046	804
770.236	646.3
770.426	486.56
770.617	345.25
770.807	834.72
770.998	636.06
771.188	654.5
771.378	441.51
771.569	865.44
771.759	760.99
771.949	339.11
772.139	294.05
772.33	818.33
772.52	1039.51
772.71	414.88
772.9	259.24
773.09	1041.56
773.281	1047.71
773.471	406.69
773.661	451.75
773.851	881.82
774.041	566.43
774.231	384.16
774.421	607.39
774.611	1029.27
774.802	703.65
774.992	584.87
775.182	310.44
775.372	717.98
775.562	867.49
775.752	435.36
775.942	453.8
776.131	1012.89
776.321	875.68
776.511	439.46
776.701	390.31
776.891	953.5
777.081	480.42
777.271	488.61
777.461	427.17
777.651	840.86
777.84	1014.94
778.03	515.23
778.22	431.27
778.41	1035.42
778.599	517.28
778.789	535.71
778.979	400.55
779.169	787.61
779.358	693.41
779.548	844.96
779.738	304.29
779.927	795.81
780.117	486.56
780.307	461.99
780.496	162.98
780.686	695.46
780.875	1123.48
781.065	461.99
781.254	451.75
781.444	619.68
781.633	767.13
781.823	507.04
782.012	375.97
782.202	636.06
782.391	617.63
782.581	359.59
782.77	570.53
782.96	894.11
783.149	656.54
783.338	500.9
783.528	175.27
783.717	890.01
783.906	920.73
784.096	568.48
784.285	359.59
784.474	582.82
784.663	597.15
784.853	480.42
785.042	472.23
785.231	613.54
785.42	857.25
785.61	550.05
785.799	312.49
785.988	617.63
786.177	634.02
786.366	357.54
786.555	642.21
786.744	883.87
786.933	685.22
787.122	339.11
787.312	300.2
787.501	531.62
787.69	804
787.879	390.31
788.068	335.01
788.257	410.79
788.445	656.54
788.634	375.97
788.823	380.07
789.012	1299.61
789.201	896.16
789.39	461.99
789.579	408.74
789.768	687.26
789.957	746.66
790.145	443.56
790.334	210.09
790.523	615.59
790.712	552.1
790.9	468.13
791.089	242.85
791.278	894.11
791.467	695.46
791.655	742.56
791.844	908.44
792.033	500.9
792.221	615.59
792.41	490.66
792.599	312.49
792.787	834.72
792.976	926.88
793.164	326.82
793.353	386.21
793.541	832.67
793.73	779.42
793.918	451.75
794.107	373.92
794.295	652.45
794.484	754.85
794.672	414.88
794.861	433.32
795.049	779.42
795.238	1135.77
795.426	236.71
795.614	529.57
795.803	648.35
795.991	951.45
796.179	451.75
796.368	418.98
796.556	898.2
796.744	468.13
796.932	425.12
797.121	363.69
797.309	736.42
797.497	875.68
797.685	548
797.874	349.35
798.062	654.5
798.25	990.36
798.438	316.58
798.626	439.46
798.814	767.13
799.002	1234.07
799.19	543.91
799.378	375.97
799.566	949.4
799.755	1016.99
799.943	631.97
800.131	474.28
800.318	734.37
800.506	791.71
800.694	435.36
800.882	656.54
801.07	920.73
801.258	652.45
801.446	433.32
801.634	418.98
801.822	674.98
802.01	705.7
802.197	359.59
802.385	545.95
802.573	842.91
802.761	513.19
802.949	482.47
803.136	351.4
803.324	922.78
803.512	674.98
803.699	537.76
803.887	326.82
804.075	1043.61
804.262	672.93
804.45	335.01
804.638	480.42
804.825	453.8
805.013	562.34
805.201	455.84
805.388	380.07
805.576	603.3
805.763	1066.14
805.951	439.46
806.138	560.29
806.326	1203.35
806.513	709.79
806.701	478.37
806.888	406.69
807.075	808.09
807.263	1197.21
807.45	322.73
807.638	554.15
807.825	1103
808.012	935.07
808.2	474.28
808.387	736.42
808.574	877.73
808.761	1041.56
808.949	435.36
809.136	564.39
809.323	636.06
809.51	642.21
809.698	730.27
809.885	687.26
810.072	726.18
810.259	967.84
810.446	527.52
810.633	400.55
810.82	980.12
811.008	1064.09
811.195	631.97
811.382	603.3
811.569	717.98
811.756	437.41
811.943	498.85
812.13	521.38
812.317	550.05
812.504	558.24
812.691	496.8
812.878	631.97
813.064	900.25
813.251	826.53
813.438	398.5
813.625	623.78
813.812	744.61
813.999	681.12
814.186	541.86
814.372	431.27
814.559	812.19
814.746	1062.04
814.933	488.61
815.12	685.22
815.306	636.06
815.493	541.86
815.68	324.77
815.866	490.66
816.053	955.55
816.24	1205.4
816.426	513.19
816.613	365.73
816.799	898.2
816.986	1031.32
817.173	500.9
817.359	464.04
817.546	873.63
817.732	400.55
817.919	208.04
818.105	607.39
818.292	656.54
818.478	810.14
818.665	617.63
818.851	429.22
819.037	1262.74
819.224	689.31
819.41	363.69
819.597	439.46
819.783	1129.63
819.969	918.68
820.156	437.41
820.342	316.58
820.528	1348.76
820.714	685.22
820.901	658.59
821.087	480.42
821.273	1154.2
821.459	578.72
821.646	386.21
821.832	431.27
822.018	689.31
822.204	791.71
822.39	654.5
822.576	375.97
822.762	804
822.948	765.09
823.134	715.94
823.32	492.71
823.507	504.99
823.693	801.95
823.879	926.88
824.065	498.85
824.25	842.91
824.436	464.04
824.622	490.66
824.808	349.35
824.994	476.32
825.18	558.24
825.366	369.83
825.552	431.27
825.738	591.01
825.923	957.6
826.109	699.55
826.295	474.28
826.481	480.42
826.667	660.64
826.852	615.59
827.038	410.79
827.224	963.74
827.409	1090.71
827.595	382.12
827.781	586.91
827.966	1002.65
828.152	791.71
828.338	539.81
828.523	363.69
828.709	556.19
828.894	996.51
829.08	539.81
829.266	517.28
829.451	545.95
829.637	959.64
829.822	693.41
830.008	519.33
830.193	957.6
830.378	1043.61
830.564	574.63
830.749	378.02
830.935	898.2
831.12	943.26
831.305	324.77
831.491	595.11
831.676	425.12
831.861	861.34
832.047	548
832.232	324.77
832.417	955.55
832.602	787.61
832.788	455.84
832.973	421.03
833.158	701.6
833.343	758.94
833.528	644.26
833.714	623.78
833.899	861.34
834.084	1184.92
834.269	779.42
834.454	474.28
834.639	883.87
834.824	816.29
835.009	681.12
835.194	677.02
835.379	922.78
835.564	1096.86
835.749	670.88
835.934	441.51
836.119	871.58
836.304	715.94
836.489	482.47
836.674	697.5
836.859	480.42
837.044	992.41
837.228	564.39
837.413	414.88
837.598	853.15
837.783	988.32
837.968	627.87
838.152	332.97
838.337	267.43
838.522	1180.82
838.707	898.2
838.891	693.41
839.076	836.77
839.261	1016.99
839.445	453.8
839.63	584.87
839.815	1107.1
839.999	677.02
840.184	476.32
840.368	502.95
840.553	963.74
840.737	844.96
840.922	410.79
841.106	318.63
841.291	513.19
841.475	763.04
841.66	474.28
841.844	488.61
842.029	1395.86
842.213	468.13
842.397	461.99
842.582	287.91
842.766	1041.56
842.951	935.07
843.135	507.04
843.319	496.8
843.504	842.91
843.688	963.74
843.872	361.64
844.056	488.61
844.241	898.2
844.425	697.5
844.609	668.83
844.793	220.33
844.977	900.25
845.161	771.23
845.346	361.64
845.53	492.71
845.714	767.13
845.898	1121.43
846.082	273.57
846.266	423.08
846.45	660.64
846.634	879.77
846.818	496.8
847.002	552.1
847.186	892.06
847.37	529.57
847.554	392.36
847.738	531.62
847.922	732.32
848.106	703.65
848.29	289.96
848.473	380.07
848.657	955.55
848.841	619.68
849.025	490.66
849.209	386.21
849.392	867.49
849.576	611.49
849.76	218.28
849.944	572.58
850.127	1094.81
850.311	476.32
850.495	343.21
850.678	294.05
850.862	1076.38
851.046	1051.8
851.229	701.6
851.413	433.32
851.596	705.7
851.78	713.89
851.964	599.2
852.147	455.84
852.331	1412.25
852.514	965.79
852.698	574.63
852.881	306.34
853.065	894.11
853.248	707.74
853.431	576.67
853.615	638.11
853.798	1221.78
853.982	847.01
854.165	636.06
854.348	447.65
854.532	476.32
854.715	486.56
854.898	468.13
855.081	455.84
855.265	1096.86
855.448	1223.83
855.631	519.33
855.814	507.04
855.997	918.68
856.181	621.73
856.364	529.57
856.547	367.78
856.73	769.18
856.913	763.04
857.096	361.64
857.279	421.03
857.462	615.59
857.645	892.06
857.828	550.05
858.011	525.47
858.194	627.87
858.377	933.02
858.56	259.24
858.743	433.32
858.926	449.7
859.109	779.42
859.292	500.9
859.475	316.58
859.658	1023.13
859.841	832.67
860.023	203.94
860.206	359.59
860.389	715.94
860.572	1098.91
860.755	523.43
860.937	423.08
861.12	662.69
861.303	726.18
861.486	482.47
861.668	425.12
861.851	750.75
862.034	869.53
862.216	672.93
862.399	375.97
862.581	857.25
862.764	1107.1
862.947	494.76
863.129	423.08
863.312	470.18
863.494	1111.19
863.677	818.33
863.859	308.39
864.042	910.49
864.224	982.17
864.406	582.82
864.589	318.63
864.771	767.13
864.954	541.86
865.136	382.12
865.318	265.38
865.501	928.92
865.683	361.64
865.865	398.5
866.048	412.84
866.23	826.53
866.412	785.57
866.594	310.44
866.777	588.96
866.959	963.74
867.141	543.91
867.323	595.11
867.505	584.87
867.687	713.89
867.869	715.94
868.052	613.54
868.234	365.73
868.416	828.57
868.598	816.29
868.78	402.6
868.962	357.54
869.144	984.22
869.326	867.49
869.508	464.04
869.69	386.21
869.872	539.81
870.054	924.83
870.236	273.57
870.417	435.36
870.599	623.78
870.781	1057.95
870.963	625.83
871.145	296.1
871.327	492.71
871.508	890.01
871.69	466.08
871.872	541.86
872.054	658.59
872.235	746.66
872.417	455.84
872.599	318.63
872.78	996.51
872.962	752.8
873.144	228.52
873.325	484.52
873.507	1047.71
873.689	814.24
873.87	320.68
874.052	543.91
874.233	638.11
874.415	1008.8
874.596	457.89
874.778	343.21
874.959	683.17
875.141	894.11
875.322	441.51
875.503	337.06
875.685	824.48
875.866	339.11
876.048	353.45
876.229	320.68
876.41	595.11
876.592	775.33
876.773	345.25
876.954	269.48
877.136	1094.81
877.317	629.92
877.498	341.16
877.679	480.42
877.86	746.66
878.042	560.29
878.223	457.89
878.404	711.84
878.585	947.36
878.766	1084.57
878.947	717.98
879.128	535.71
879.309	785.57
879.49	906.4
879.672	445.6
879.853	443.56
880.034	470.18
880.215	580.77
880.396	490.66
880.576	451.75
880.757	621.73
880.938	1059.99
881.119	361.64
881.3	355.49
881.481	437.41
881.662	1496.21
881.843	261.29
882.023	212.14
882.204	750.75
882.385	695.46
882.566	400.55
882.747	404.64
882.927	685.22
883.108	720.03
883.289	380.07
883.469	672.93
883.65	529.57
883.831	715.94
884.011	607.39
884.192	414.88
884.373	867.49
884.553	709.79
884.734	652.45
884.914	689.31
885.095	1348.76
885.275	1143.96
885.456	738.46
885.636	423.08
885.817	617.63
885.997	691.36
886.178	410.79
886.358	521.38
886.538	715.94
886.719	1647.76
886.899	406.69
887.08	556.19
887.26	1012.89
887.44	562.34
887.621	351.4
887.801	597.15
887.981	1305.75
888.161	902.3
888.342	515.23
888.522	449.7
888.702	933.02
888.882	980.12
889.062	591.01
889.242	255.14
889.423	967.84
889.603	887.97
889.783	537.76
889.963	494.76
890.143	922.78
890.323	984.22
890.503	437.41
890.683	545.95
890.863	734.37
891.043	916.64
891.223	545.95
891.403	765.09
891.583	664.74
891.763	844.96
891.943	543.91
892.122	474.28
892.302	709.79
892.482	717.98
892.662	654.5
892.842	449.7
893.022	855.2
893.201	584.87
893.381	660.64
893.561	427.17
893.741	844.96
893.92	851.1
894.1	703.65
894.28	591.01
894.459	898.2
894.639	939.16
894.819	484.52
894.998	738.46
895.178	853.15
895.357	879.77
895.537	486.56
895.716	298.15
895.896	763.04
896.075	1123.48
896.255	523.43
896.434	375.97
896.614	926.88
896.793	1021.08
896.973	685.22
897.152	695.46
897.331	808.09
897.511	1000.6
897.69	414.88
897.87	726.18
898.049	965.79
898.228	722.08
898.407	683.17
898.587	644.26
898.766	605.35
898.945	988.32
899.124	906.4
899.304	603.3
899.483	851.1
899.662	1227.93
899.841	453.8
900.02	550.05
900.199	1029.27
900.378	820.38
900.557	492.71
900.737	353.45
900.916	955.55
901.095	898.2
901.274	828.57
901.453	470.18
901.632	591.01
901.811	607.39
901.989	550.05
902.168	464.04
902.347	955.55
902.526	674.98
902.705	535.71
902.884	611.49
903.063	1025.18
903.242	1107.1
903.42	384.16
903.599	644.26
903.778	947.36
903.957	1199.26
904.135	615.59
904.314	629.92
904.493	717.98
904.672	918.68
904.85	584.87
905.029	474.28
905.207	851.1
905.386	1309.85
905.565	406.69
905.743	490.66
905.922	695.46
906.1	1045.66
906.279	421.03
906.457	402.6
906.636	562.34
906.814	668.83
906.993	478.37
907.171	416.93
907.35	965.79
907.528	971.93
907.707	705.7
907.885	453.8
908.063	1242.26
908.242	531.62
908.42	556.19
908.598	461.99
908.777	838.81
908.955	640.16
909.133	615.59
909.311	365.73
909.49	670.88
909.668	801.95
909.846	558.24
910.024	308.39
910.202	855.2
910.38	906.4
910.559	369.83
910.737	449.7
910.915	791.71
911.093	887.97
911.271	431.27
911.449	705.7
911.627	861.34
911.805	1172.63
911.983	607.39
912.161	509.09
912.339	767.13
912.517	1043.61
912.695	629.92
912.872	535.71
913.05	554.15
913.228	830.62
913.406	517.28
913.584	375.97
913.762	963.74
913.939	607.39
914.117	378.02
914.295	369.83
914.473	799.9
914.65	844.96
914.828	451.75
915.006	476.32
915.184	461.99
915.361	836.77
915.539	586.91
915.716	720.03
915.894	806.05
916.072	900.25
916.249	779.42
916.427	660.64
916.604	355.49
916.782	750.75
916.959	447.65
917.137	488.61
917.314	814.24
917.492	781.47
917.669	605.35
917.847	507.04
918.024	775.33
918.201	666.78
918.379	502.95
918.556	494.76
918.733	941.21
918.911	691.36
919.088	742.56
919.265	554.15
919.442	791.71
919.62	677.02
919.797	345.25
919.974	332.97
920.151	775.33
920.328	795.81
920.506	478.37
920.683	554.15
920.86	441.51
921.037	439.46
921.214	500.9
921.391	447.65
921.568	873.63
921.745	599.2
921.922	527.52
922.099	400.55
922.276	998.56
922.453	785.57
922.63	447.65
922.807	824.48
922.984	804
923.161	535.71
923.338	406.69
923.514	337.06
923.691	703.65
923.868	699.55
924.045	392.36
924.222	373.92
924.399	785.57
924.575	976.03
924.752	484.52
924.929	449.7
925.105	746.66
925.282	468.13
925.459	386.21
925.635	529.57
925.812	640.16
925.989	511.14
926.165	554.15
926.342	201.9
926.518	406.69
926.695	707.74
926.871	441.51
927.048	246.95
927.224	965.79
927.401	578.72
927.577	349.35
927.754	345.25
927.93	900.25
928.107	754.85
928.283	275.62
928.459	486.56
928.636	736.42
928.812	674.98
928.988	306.34
929.165	298.15
929.341	613.54
929.517	660.64
929.693	771.23
929.87	255.14
930.046	734.37
930.222	445.6
930.398	345.25
930.574	484.52
930.751	664.74
930.927	449.7
931.103	380.07
931.279	384.16
931.455	361.64
931.631	681.12
931.807	109.74
931.983	298.15
932.159	300.2
932.335	730.27
932.511	394.4
932.687	402.6
932.863	646.3
933.039	607.39
933.215	230.57
933.391	304.29
933.566	586.91
933.742	595.11
933.918	373.92
934.094	191.66
934.27	515.23
934.445	607.39
934.621	416.93
934.797	273.57
934.973	793.76
935.148	697.5
935.324	257.19
935.5	97.45
935.675	834.72
935.851	582.82
936.027	349.35
936.202	408.74
936.378	554.15
936.553	533.67
936.729	740.51
936.904	271.53
937.08	287.91
937.255	416.93
937.431	240.81
937.606	187.56
937.782	472.23
937.957	457.89
938.133	398.5
938.308	242.85
938.483	498.85
938.659	273.57
938.834	289.96
939.009	136.36
939.185	388.26
939.36	294.05
939.535	-31.57
939.71	386.21
939.886	629.92
940.061	554.15
940.236	326.82
940.411	156.84
940.586	517.28
940.761	650.4
940.937	218.28
941.112	107.69
941.287	474.28
941.462	343.21
941.637	9.39
941.812	216.23
941.987	480.42
942.162	402.6
942.337	246.95
942.512	134.31
942.687	709.79
942.862	496.8
943.037	109.74
943.212	-131.92
943.386	363.69
943.561	363.69
943.736	255.14
943.911	509.09
944.086	455.84
944.26	529.57
944.435	226.47
944.61	232.62
944.785	752.8
944.959	859.29
945.134	210.09
945.309	36.01
945.483	171.18
945.658	517.28
945.833	-136.02
946.007	-60.24
946.182	717.98
946.357	201.9
946.531	25.77
946.706	97.45
946.88	-19.29
947.055	410.79
947.229	81.07
947.404	124.07
947.578	588.96
947.752	310.44
947.927	-37.72
948.101	-62.29
948.276	283.81
948.45	332.97
948.624	267.43
948.799	76.97
948.973	398.5
949.147	11.43
949.321	205.99
949.496	89.26
949.67	507.04
949.844	316.58
950.018	126.12
950.193	40.11
950.367	791.71
950.541	283.81
950.715	289.96
950.889	304.29
951.063	275.62
951.237	545.95
951.411	-109.4
951.585	-115.54
951.759	404.64
951.933	380.07
952.107	46.25
952.281	220.33
952.455	685.22
952.629	535.71
952.803	48.3
952.977	160.94
953.151	574.63
953.325	474.28
953.499	265.38
953.672	56.49
953.846	44.2
954.02	294.05
954.194	-2.9
954.368	3.24
954.541	412.84
954.715	132.26
954.889	193.7
955.062	-11.09
955.236	193.7
955.41	175.27
955.583	181.42
955.757	-107.35
955.93	152.74
956.104	83.11
956.278	111.78
956.451	113.83
956.625	443.56
956.798	709.79
956.972	306.34
957.145	1.19
957.319	253.09
957.492	335.01
957.665	160.94
957.839	21.67
958.012	435.36
958.185	238.76
958.359	113.83
958.532	292.01
958.705	584.87
958.879	275.62
959.052	199.85
959.225	-35.67
959.398	355.49
959.572	310.44
959.745	-15.19
959.918	138.41
960.091	251.05
960.264	359.59
960.438	-37.72
960.611	17.58
960.784	552.1
960.957	132.26
961.13	466.08
961.303	29.87
961.476	304.29
961.649	480.42
961.822	-56.15
961.995	181.42
962.168	384.16
962.341	347.3
962.514	152.74
962.686	54.44
962.859	369.83
963.032	498.85
963.205	42.15
963.378	-86.87
963.551	507.04
963.723	349.35
963.896	148.65
964.069	187.56
964.242	289.96
964.414	535.71
964.587	126.12
964.76	208.04
964.932	382.12
965.105	263.33
965.278	91.31
965.45	38.06
965.623	318.63
965.795	402.6
965.968	165.03
966.14	27.82
966.313	316.58
966.485	343.21
966.658	46.25
966.83	60.59
967.003	588.96
967.175	431.27
967.348	70.83
967.52	117.93
967.692	570.53
967.865	425.12
968.037	113.83
968.209	375.97
968.382	386.21
968.554	572.58
968.726	136.36
968.898	46.25
969.071	378.02
969.243	570.53
969.415	117.93
969.587	167.08
969.759	758.94
969.932	531.62
970.104	152.74
970.276	-129.88
970.448	130.22
970.62	230.57
970.792	208.04
970.964	193.7
971.136	781.47
971.308	466.08
971.48	66.73
971.652	74.92
971.824	638.11
971.996	208.04
972.168	193.7
972.339	95.4
972.511	625.83
972.683	199.85
972.855	332.97
973.027	91.31
973.199	277.67
973.37	378.02
973.542	214.18
973.714	162.98
973.886	332.97
974.057	513.19
974.229	-47.96
974.401	25.77
974.572	142.5
974.744	-37.72
974.915	-33.62
975.087	97.45
975.259	591.01
975.43	165.03
975.602	95.4
975.773	7.34
975.945	109.74
976.116	439.46
976.288	48.3
976.459	308.39
976.63	212.14
976.802	335.01
976.973	11.43
977.145	132.26
977.316	763.04
977.487	310.44
977.659	255.14
977.83	105.64
978.001	693.41
978.172	382.12
978.344	113.83
978.515	40.11
978.686	240.81
978.857	650.4
979.028	97.45
979.2	-11.09
979.371	513.19
979.542	330.92
979.713	277.67
979.884	-295.76
980.055	99.5
980.226	222.38
980.397	9.39
980.568	-33.62
980.739	535.71
980.91	234.66
981.081	314.53
981.252	3.24
981.423	394.4
981.594	423.08
981.765	-19.29
981.936	128.17
982.106	218.28
982.277	611.49
982.448	42.15
982.619	255.14
982.79	226.47
982.96	525.47
983.131	261.29
983.302	-162.64
983.472	224.42
983.643	367.78
983.814	195.75
983.984	3.24
984.155	156.84
984.326	554.15
984.496	64.68
984.667	-15.19
984.837	58.54
985.008	668.83
985.178	185.51
985.349	101.55
985.519	191.66
985.69	101.55
985.86	156.84
986.031	-15.19
986.201	312.49
986.371	459.94
986.542	-0.85
986.712	-158.55
986.882	476.32
987.053	431.27
987.223	-88.92
987.393	218.28
987.563	169.13
987.734	384.16
987.904	332.97
988.074	56.49
988.244	306.34
988.414	179.37
988.585	-62.29
988.755	134.31
988.925	287.91
989.095	703.65
989.265	-17.24
989.435	113.83
989.605	433.32
989.775	414.88
989.945	326.82
990.115	-58.2
990.285	265.38
990.455	345.25
990.625	62.63
990.795	-2.9
990.965	550.05
991.134	187.56
991.304	-54.1
991.474	38.06
991.644	357.54
991.814	576.67
991.984	-113.49
992.153	52.39
992.323	353.45
992.493	251.05
992.662	-273.23
992.832	226.47
993.002	226.47
993.171	246.95
993.341	-133.97
993.511	187.56
993.68	136.36
993.85	423.08
994.019	-56.15
994.189	-58.2
994.358	281.77
994.528	154.79
994.697	-242.51
994.867	-168.79
995.036	457.89
995.206	210.09
995.375	-23.38
995.544	148.65
995.714	365.73
995.883	173.22
996.052	162.98
996.222	-277.33
996.391	787.61
996.56	330.92
996.73	-150.36
996.899	-228.18
997.068	646.3
997.237	273.57
997.406	-131.92
997.576	-187.22
997.745	263.33
997.914	328.87
998.083	-248.66
998.252	-88.92
998.421	261.29
998.59	66.73
998.759	-136.02
998.928	-250.71
999.097	562.34
999.266	375.97
999.435	101.55
999.604	-195.41
999.773	738.46
999.942	152.74
1000.111	-191.31
1000.28	-189.27
1000.448	-11.09
1000.617	38.06
1000.786	74.92
1000.955	-160.59
1001.124	222.38
1001.292	900.25
1001.461	17.58
1001.63	-146.26
1001.798	613.54
1001.967	578.72
1002.136	-271.19
1002.304	-166.74
1002.473	238.76
1002.642	234.66
1002.81	-27.48
1002.979	-113.49
1003.147	367.78
1003.316	648.35
1003.484	-109.4
1003.653	-170.83
1003.821	414.88
1003.99	167.08
1004.158	81.07
1004.327	1.19
1004.495	347.3
1004.663	44.2
1004.832	107.69
1005	-269.14
1005.168	353.45
1005.337	259.24
1005.505	-211.79
1005.673	21.67
1005.842	294.05
1006.01	365.73
1006.178	-158.55
1006.346	-166.74
1006.514	324.77
1006.683	525.47
1006.851	-146.26
1007.019	-275.28
1007.187	-90.96
1007.355	-226.13
1007.523	-260.95
1007.691	-197.46
1007.859	-84.82
1008.027	500.9
1008.195	-205.65
1008.363	-228.18
1008.531	435.36
1008.699	3.24
1008.867	-209.75
1009.035	-125.78
1009.203	533.67
1009.37	148.65
1009.538	-66.39
1009.706	328.87
1009.874	242.85
1010.042	109.74
1010.209	-207.7
1010.377	-136.02
1010.545	425.12
1010.713	199.85
1010.88	-217.94
1011.048	-131.92
1011.216	66.73
1011.383	517.28
1011.551	-125.78
1011.718	-205.65
1011.886	451.75
1012.054	187.56
1012.221	-211.79
1012.389	-217.94
1012.556	122.02
1012.724	588.96
1012.891	70.83
1013.058	-324.43
1013.226	404.64
1013.393	410.79
1013.561	-306
1013.728	-355.15
1013.895	251.05
1014.063	314.53
1014.23	-252.75
1014.397	-207.7
1014.565	353.45
1014.732	36.01
1014.899	-248.66
1015.066	-162.64
1015.233	216.23
1015.401	257.19
1015.568	-113.49
1015.735	-70.48
1015.902	124.07
1016.069	251.05
1016.236	-109.4
1016.403	-207.7
1016.57	-56.15
1016.737	308.39
1016.904	-90.96
1017.071	-224.08
1017.238	38.06
1017.405	423.08
1017.572	-199.51
1017.739	38.06
1017.906	287.91
1018.073	363.69
1018.24	-174.93
1018.407	-133.97
1018.573	484.52
1018.74	156.84
1018.907	-56.15
1019.074	-326.48
1019.241	386.21
1019.407	259.24
1019.574	-215.89
1019.741	-336.72
1019.907	193.7
1020.074	365.73
1020.241	-365.39
1020.407	-297.81
1020.574	337.06
1020.74	373.92
1020.907	-181.07
1021.073	-207.7
1021.24	705.7
1021.406	533.67
1021.573	-256.85
1021.739	-312.14
1021.906	316.58
1022.072	136.36
1022.239	-205.65
1022.405	-115.54
1022.571	195.75
1022.738	52.39
1022.904	-277.33
1023.07	-88.92
1023.237	199.85
1023.403	408.74
1023.569	-56.15
1023.735	-142.16
1023.902	306.34
1024.068	261.29
1024.234	-312.14
1024.4	-170.83
1024.566	271.53
1024.732	431.27
1024.898	-158.55
1025.065	-353.1
1025.231	406.69
1025.397	115.88
1025.563	-205.65
1025.729	-238.42
1025.895	-199.51
1026.061	-90.96
1026.227	-334.67
1026.392	-93.01
1026.558	408.74
1026.724	226.47
1026.89	-219.99
1027.056	-90.96
1027.222	296.1
1027.388	83.11
1027.553	-234.32
1027.719	-203.6
1027.885	578.72
1028.051	298.15
1028.216	-349.01
1028.382	-170.83
1028.548	345.25
1028.713	89.26
1028.879	-267.09
1029.045	-0.85
1029.21	500.9
1029.376	470.18
1029.541	-193.36
1029.707	-97.11
1029.873	406.69
1030.038	425.12
1030.204	-176.98
1030.369	-95.06
1030.534	384.16
1030.7	19.63
1030.865	-115.54
1031.031	-228.18
1031.196	326.82
1031.361	277.67
1031.527	-232.27
1031.692	-224.08
1031.857	-150.36
1032.023	367.78
1032.188	-222.03
1032.353	-52.05
1032.518	588.96
1032.684	296.1
1032.849	-324.43
1033.014	-133.97
1033.179	328.87
1033.344	320.68
1033.509	-68.44
1033.674	-140.12
1033.839	367.78
1034.004	308.39
1034.17	-160.59
1034.335	-310.1
1034.5	119.98
1034.664	113.83
1034.829	-303.95
1034.994	-101.2
1035.159	267.43
1035.324	230.57
1035.489	-107.35
1035.654	-252.75
1035.819	482.47
1035.984	191.66
1036.148	-150.36
1036.313	-197.46
1036.478	365.73
1036.643	195.75
1036.807	-193.36
1036.972	-256.85
1037.137	554.15
1037.301	226.47
1037.466	-273.23
1037.631	-58.2
1037.795	464.04
1037.96	253.09
1038.124	13.48
1038.289	-322.38
1038.454	320.68
1038.618	292.01
1038.783	-191.31
1038.947	-93.01
1039.111	287.91
1039.276	40.11
1039.44	-162.64
1039.605	384.16
1039.769	101.55
1039.933	185.51
1040.098	-131.92
1040.262	91.31
1040.426	396.45
1040.591	322.73
1040.755	-142.16
1040.919	-129.88
1041.083	337.06
1041.248	33.96
1041.412	-310.1
1041.576	-222.03
1041.74	183.46
1041.904	369.83
1042.068	-181.07
1042.232	-138.07
1042.397	418.98
1042.561	306.34
1042.725	-328.53
1042.889	1.19
1043.053	369.83
1043.217	320.68
1043.381	-45.91
1043.544	-279.38
1043.708	418.98
1043.872	-35.67
1044.036	-367.44
1044.2	-183.12
1044.364	457.89
1044.528	545.95
1044.691	2929.79
1044.855	-318.29
1045.019	408.74
1045.183	369.83
1045.346	-93.01
1045.51	-250.71
1045.674	263.33
1045.837	357.54
1046.001	-213.84
1046.165	-248.66
1046.328	701.6
1046.492	345.25
1046.655	3.24
1046.819	-115.54
1046.983	33.96
1047.146	308.39
1047.31	-62.29
1047.473	-269.14
1047.636	185.51
1047.8	58.54
1047.963	-154.45
1048.127	-174.93
1048.29	3.24
