Data from Ink_Intensity_USB4F045381__102__00102.txt Node

Date: Mon Jul 17 11:05:36 EDT 2023
User: mmckonesweet
Spectrometer: USB4F04538
Trigger mode: 4
Integration Time (sec): 9.000000E-1
Scans to average: 1
Electric dark correction enabled: true
Nonlinearity correction enabled: false
Boxcar width: 0
XAxis mode: Wavelengths
Number of Pixels in Spectrum: 3648
>>>>>Begin Spectral Data<<<<<
345.52	-1015.45
345.736	-1015.45
345.952	-1015.45
346.168	-997.02
346.384	-1023.64
346.6	-198.31
346.816	-274.09
347.032	-237.22
347.248	336.21
347.464	-112.3
347.68	-116.39
347.896	82.26
348.112	278.87
348.328	-77.48
348.544	-69.29
348.76	94.55
348.975	293.2
349.191	-294.57
349.407	-237.22
349.623	24.92
349.839	-18.09
350.055	-149.16
350.27	49.49
350.486	106.84
350.702	350.54
350.918	213.33
351.133	-233.13
351.349	119.12
351.565	323.92
351.781	-241.32
351.996	33.11
352.212	325.97
352.428	-85.67
352.644	-114.34
352.859	-159.4
353.075	291.15
353.291	168.27
353.506	-95.91
353.722	-212.65
353.938	-130.73
354.153	487.76
354.369	82.26
354.584	-173.74
354.8	231.76
355.016	-278.18
355.231	-259.75
355.447	-126.63
355.662	145.75
355.878	823.62
356.093	-370.34
356.309	-87.72
356.524	-296.61
356.74	162.13
356.955	-239.27
357.171	-91.82
357.386	112.98
357.602	-208.55
357.817	-52.91
358.033	-202.41
358.248	311.63
358.464	178.51
358.679	-179.88
358.895	-360.1
359.11	14.68
359.325	237.91
359.541	24.92
359.756	41.3
359.972	-335.53
360.187	213.33
360.402	-261.8
360.618	-245.41
360.833	1026.37
361.048	172.37
361.264	-214.7
361.479	-57
361.694	-11.95
361.909	198.99
362.125	-179.88
362.34	-97.96
362.555	198.99
362.77	20.82
362.986	-337.57
363.201	-108.2
363.416	188.75
363.631	39.25
363.847	-183.98
364.062	-218.79
364.277	178.51
364.492	203.09
364.707	-192.17
364.922	-433.83
365.138	315.73
365.353	352.59
365.568	-257.7
365.783	-108.2
365.998	37.2
366.213	596.3
366.428	-280.23
366.643	69.97
366.858	184.66
367.073	147.8
367.288	-114.34
367.503	-253.61
367.718	129.36
367.933	354.64
368.148	-300.71
368.363	-52.91
368.578	-18.09
368.793	383.31
369.008	-202.41
369.223	-216.74
369.438	221.52
369.653	364.88
369.868	-265.89
370.083	-194.22
370.298	112.98
370.513	397.65
370.728	47.44
370.943	-179.88
371.157	-175.78
371.372	516.43
371.587	-347.81
371.802	-280.23
372.017	123.22
372.232	409.94
372.446	-22.19
372.661	-233.13
372.876	160.08
373.091	55.64
373.306	-155.3
373.52	-249.51
373.735	-177.83
373.95	414.03
374.165	-151.21
374.379	-93.87
374.594	-147.11
374.809	131.41
375.023	-32.43
375.238	-222.89
375.453	190.8
375.667	-290.47
375.882	-106.15
376.097	-239.27
376.311	33.11
376.526	0.34
376.741	-249.51
376.955	180.56
377.17	553.29
377.384	586.06
377.599	-50.86
377.813	-323.24
378.028	600.4
378.242	180.56
378.457	-106.15
378.672	-358.05
378.886	65.88
379.101	4.44
379.315	-368.29
379.53	-202.41
379.744	207.19
379.958	176.47
380.173	-136.87
380.387	-161.45
380.602	180.56
380.816	-126.63
381.031	-159.4
381.245	-186.02
381.459	176.47
381.674	2609.45
381.888	-138.92
382.103	29.01
382.317	-69.29
382.531	457.04
382.746	-57
382.96	-183.98
383.174	-143.02
383.388	495.95
383.603	129.36
383.817	-317.09
384.031	147.8
384.246	459.09
384.46	-69.29
384.674	315.73
384.888	2.39
385.103	76.12
385.317	-288.42
385.531	-112.3
385.745	356.69
385.959	401.74
386.174	-214.7
386.388	-220.84
386.602	-3.75
386.816	-124.58
387.03	-52.91
387.244	-65.19
387.458	104.79
387.672	418.13
387.887	-351.91
388.101	-308.9
388.315	385.36
388.529	125.27
388.743	-188.07
388.957	-257.7
389.171	276.82
389.385	-171.69
389.599	-175.78
389.813	10.58
390.027	184.66
390.241	600.4
390.455	-196.26
390.669	-118.44
390.883	-50.86
391.097	405.84
391.311	4.44
391.525	-257.7
391.738	170.32
391.952	186.71
392.166	-87.72
392.38	-233.13
392.594	229.71
392.808	285.01
393.022	-106.15
393.236	-169.64
393.449	215.38
393.663	229.71
393.877	-212.65
394.091	-204.46
394.305	-79.53
394.518	-147.11
394.732	-253.61
394.946	-104.11
395.16	461.13
395.373	65.88
395.587	-249.51
395.801	-179.88
396.015	328.02
396.228	194.9
396.442	-186.02
396.656	-288.42
396.869	315.73
397.083	459.09
397.297	-40.62
397.51	-157.35
397.724	368.98
397.938	176.47
398.151	-286.37
398.365	-290.47
398.578	311.63
398.792	358.74
399.005	-20.14
399.219	-143.02
399.433	112.98
399.646	229.71
399.86	8.53
400.073	-9.9
400.287	242
400.5	-20.14
400.714	-1.71
400.927	-85.67
401.141	248.15
401.354	1118.53
401.567	125.27
401.781	-315.05
401.994	282.96
402.208	536.91
402.421	-122.54
402.635	-114.34
402.848	-7.85
403.061	280.91
403.275	-36.52
403.488	-151.21
403.701	479.57
403.915	325.97
404.128	8.53
404.341	-204.46
404.555	223.57
404.768	47.44
404.981	57.68
405.195	-169.64
405.408	389.46
405.621	227.67
405.834	6.49
406.048	-261.8
406.261	420.17
406.474	461.13
406.687	-181.93
406.9	4.44
407.114	45.4
407.327	188.75
407.54	-288.42
407.753	-282.28
407.966	-110.25
408.179	246.1
408.392	-259.75
408.605	-341.67
408.819	110.93
409.032	143.7
409.245	-251.56
409.458	8.53
409.671	196.95
409.884	233.81
410.097	-304.81
410.31	57.68
410.523	196.95
410.736	49.49
410.949	6.49
411.162	-126.63
411.375	457.04
411.588	356.69
411.801	96.6
412.014	-261.8
412.227	35.16
412.44	26.96
412.653	-116.39
412.865	29.01
413.078	297.3
413.291	237.91
413.504	-65.19
413.717	-190.12
413.93	295.25
414.143	-179.88
414.356	-81.58
414.568	-327.33
414.781	338.26
414.994	94.55
415.207	-143.02
415.42	-159.4
415.632	260.43
415.845	498
416.058	-208.55
416.271	-269.99
416.483	100.69
416.696	536.91
416.909	-167.59
417.121	-204.46
417.334	252.24
417.547	498
417.759	-124.58
417.972	-183.98
418.185	24.92
418.397	307.54
418.61	-173.74
418.823	-196.26
419.035	495.95
419.248	82.26
419.46	-46.76
419.673	-122.54
419.885	192.85
420.098	147.8
420.311	-108.2
420.523	-315.05
420.736	244.05
420.948	117.08
421.161	-173.74
421.373	-366.25
421.586	205.14
421.798	-85.67
422.01	-265.89
422.223	-57
422.435	-22.19
422.648	262.48
422.86	-151.21
423.073	-153.26
423.285	393.55
423.497	-200.36
423.71	-167.59
423.922	-192.17
424.134	229.71
424.347	498
424.559	102.74
424.771	143.7
424.984	57.68
425.196	246.1
425.408	-241.32
425.621	-304.81
425.833	317.78
426.045	377.17
426.257	-220.84
426.47	-52.91
426.682	205.14
426.894	319.82
427.106	-118.44
427.318	-26.28
427.531	4.44
427.743	268.63
427.955	-128.68
428.167	311.63
428.379	207.19
428.591	57.68
428.804	-24.23
429.016	-140.97
429.228	63.83
429.44	285.01
429.652	67.92
429.864	-204.46
430.076	82.26
430.288	76.12
430.5	-32.43
430.712	-38.57
430.924	366.93
431.136	194.9
431.348	-286.37
431.56	-126.63
431.772	119.12
431.984	29.01
432.196	-122.54
432.408	-61.1
432.62	31.06
432.832	278.87
433.044	141.65
433.256	37.2
433.468	364.88
433.679	-192.17
433.891	-212.65
434.103	178.51
434.315	479.57
434.527	254.29
434.739	-44.71
434.95	-3.75
435.162	340.3
435.374	-63.15
435.586	-57
435.798	-34.47
436.009	-36.52
436.221	90.45
436.433	-143.02
436.645	-57
436.856	53.59
437.068	403.79
437.28	-167.59
437.491	110.93
437.703	184.66
437.915	254.29
438.126	-50.86
438.338	112.98
438.55	145.75
438.761	342.35
438.973	-9.9
439.184	-32.43
439.396	135.51
439.608	424.27
439.819	-177.83
440.031	74.07
440.242	278.87
440.454	338.26
440.665	-145.06
440.877	41.3
441.088	303.44
441.3	14.68
441.511	-231.08
441.723	-104.11
441.934	227.67
442.146	201.04
442.357	53.59
442.569	258.39
442.78	104.79
442.991	604.49
443.203	258.39
443.414	-134.82
443.626	491.85
443.837	37.2
444.048	-134.82
444.26	-155.3
444.471	266.58
444.682	395.6
444.894	-288.42
445.105	-147.11
445.316	389.46
445.528	364.88
445.739	112.98
445.95	18.77
446.161	182.61
446.373	375.12
446.584	-3.75
446.795	-114.34
447.006	313.68
447.217	649.55
447.429	-216.74
447.64	-77.48
447.851	561.48
448.062	233.81
448.273	-210.6
448.484	-108.2
448.695	295.25
448.907	158.03
449.118	67.92
449.329	182.61
449.54	2.39
449.751	-57
449.962	-32.43
450.173	-7.85
450.384	524.62
450.595	577.87
450.806	-151.21
451.017	78.16
451.228	637.26
451.439	495.95
451.65	-69.29
451.861	-216.74
452.072	6.49
452.283	178.51
452.494	235.86
452.705	-93.87
452.915	559.44
453.126	325.97
453.337	47.44
453.548	-104.11
453.759	438.61
453.97	792.91
454.181	274.77
454.391	45.4
454.602	262.48
454.813	387.41
455.024	55.64
455.235	63.83
455.445	305.49
455.656	422.22
455.867	160.08
456.078	20.82
456.288	166.23
456.499	346.45
456.71	-3.75
456.921	215.38
457.131	342.35
457.342	317.78
457.553	69.97
457.763	-13.99
457.974	434.51
458.184	475.47
458.395	-54.95
458.606	24.92
458.816	510.29
459.027	745.8
459.237	242
459.448	-65.19
459.659	598.35
459.869	860.49
460.08	-194.22
460.29	231.76
460.501	747.85
460.711	115.03
460.922	-97.96
461.132	133.46
461.343	1005.89
461.553	-3.75
461.764	24.92
461.974	82.26
462.184	401.74
462.395	405.84
462.605	180.56
462.816	80.21
463.026	418.13
463.236	655.69
463.447	-20.14
463.657	63.83
463.867	590.16
464.078	215.38
464.288	192.85
464.498	244.05
464.709	368.98
464.919	389.46
465.129	151.89
465.339	151.89
465.55	397.65
465.76	688.46
465.97	213.33
466.18	82.26
466.391	569.68
466.601	538.96
466.811	188.75
467.021	33.11
467.231	493.9
467.441	667.98
467.651	233.81
467.862	-81.58
468.072	356.69
468.282	741.71
468.492	168.27
468.702	242
468.912	491.85
469.122	1120.58
469.332	567.63
469.542	196.95
469.752	663.88
469.962	561.48
470.172	178.51
470.382	166.23
470.592	665.93
470.802	840.01
471.012	362.83
471.222	176.47
471.432	713.03
471.642	688.46
471.852	483.66
472.062	274.77
472.272	536.91
472.482	282.96
472.691	149.84
472.901	174.42
473.111	620.88
473.321	1102.15
473.531	237.91
473.741	473.42
473.95	807.24
474.16	854.34
474.37	475.47
474.58	278.87
474.79	1151.3
474.999	860.49
475.209	356.69
475.419	463.18
475.628	614.73
475.838	962.89
476.048	454.99
476.258	377.17
476.467	1016.13
476.677	596.3
476.886	702.79
477.096	649.55
477.306	631.12
477.515	1061.19
477.725	586.06
477.935	610.64
478.144	1118.53
478.354	635.21
478.563	567.63
478.773	487.76
478.982	1046.85
479.192	1134.92
479.401	672.08
479.611	504.14
479.82	719.18
480.03	913.74
480.239	600.4
480.449	473.42
480.658	1249.6
480.868	803.15
481.077	647.5
481.287	622.92
481.496	1055.05
481.705	1247.55
481.915	954.69
482.124	962.89
482.333	979.27
482.543	1323.33
482.752	825.67
482.961	723.27
483.171	1249.6
483.38	1038.66
483.589	774.47
483.799	753.99
484.008	1005.89
484.217	1308.99
484.426	909.64
484.636	807.24
484.845	1036.61
485.054	700.75
485.263	1263.94
485.472	831.82
485.682	1470.78
485.891	1110.34
486.1	733.51
486.309	950.6
486.518	1304.9
486.727	1495.36
486.936	919.88
487.146	1071.43
487.355	1536.32
487.564	1014.09
487.773	1012.04
487.982	842.06
488.191	1192.26
488.4	1286.47
488.609	1016.13
488.818	973.13
489.027	1843.51
489.236	1775.93
489.445	1098.05
489.654	1012.04
489.863	1521.98
490.072	1460.54
490.281	1493.31
490.49	1098.05
490.698	1636.67
490.907	1569.09
491.116	1233.22
491.325	1030.47
491.534	1769.79
491.743	1530.17
491.952	1331.52
492.16	1216.83
492.369	1585.47
492.578	1747.26
492.787	1358.14
492.996	1169.73
493.204	1386.82
493.413	1982.78
493.622	1026.37
493.831	1161.54
494.039	1923.38
494.248	1331.52
494.457	1278.27
494.665	1272.13
494.874	1794.36
495.083	2044.21
495.291	1360.19
495.5	1225.03
495.709	1761.59
495.917	1702.2
496.126	1450.3
496.335	1331.52
496.543	1577.28
496.752	1702.2
496.96	1726.78
497.169	1274.18
497.377	1751.35
497.586	2023.73
497.794	1626.43
498.003	1204.55
498.211	1767.74
498.42	2160.95
498.628	1501.5
498.837	1300.8
499.045	1921.34
499.254	1820.99
499.462	1409.34
499.671	1495.36
499.879	2140.47
500.087	2036.02
500.296	1532.22
500.504	1585.47
500.713	2033.97
500.921	2445.62
501.129	1560.89
501.338	1612.09
501.546	1904.95
501.754	1925.43
501.962	1702.2
502.171	1558.85
502.379	2142.52
502.587	2392.37
502.795	1784.12
503.004	1833.27
503.212	1954.1
503.42	2134.32
503.628	1745.21
503.837	1771.83
504.045	2208.05
504.253	2349.36
504.461	1808.7
504.669	1614.14
504.877	2226.48
505.085	2505.01
505.294	1761.59
505.502	1995.06
505.71	2216.24
505.918	2277.68
506.126	1927.48
506.334	1859.9
506.542	2134.32
506.75	2275.63
506.958	1933.62
507.166	1945.91
507.374	2126.13
507.582	2634.03
507.79	2068.79
507.998	1894.71
508.206	2318.64
508.414	2482.48
508.622	1724.73
508.83	2036.02
509.037	2713.9
509.245	2193.72
509.453	1911.1
509.661	1956.15
509.869	2593.07
510.077	2378.03
510.285	2103.61
510.492	1739.07
510.7	3049.77
510.908	2242.87
511.116	2126.13
511.324	2132.28
511.531	2294.07
511.739	2537.77
511.947	2304.31
512.155	2349.36
512.362	2505.01
512.57	2189.62
512.778	2040.12
512.985	2048.31
513.193	2724.14
513.401	2820.39
513.608	2281.78
513.816	2310.45
514.024	2687.28
514.231	2937.13
514.439	2330.93
514.646	2339.12
514.854	2777.39
515.061	2982.18
515.269	2380.08
515.477	2324.79
515.684	2378.03
515.892	2871.59
516.099	2330.93
516.307	2167.09
516.514	2900.27
516.722	3000.62
516.929	2408.75
517.136	2283.83
517.344	2978.09
517.551	2808.11
517.759	2451.76
517.966	2552.11
518.173	2744.62
518.381	2883.88
518.588	2595.12
518.796	2400.56
519.003	3129.64
519.21	2758.96
519.418	2537.77
519.625	2779.43
519.832	2939.18
520.039	2943.27
520.247	2347.31
520.454	2494.77
520.661	3103.01
520.868	2930.98
521.076	2728.24
521.283	2777.39
521.49	3346.72
521.697	3010.86
521.904	2662.7
522.112	2777.39
522.319	3256.61
522.526	3060.01
522.733	2509.1
522.94	2826.54
523.147	3062.05
523.354	3146.02
523.561	2732.33
523.768	2918.7
523.975	3238.18
524.183	3086.63
524.39	3004.71
524.597	2756.91
524.804	3098.92
525.011	3051.81
525.218	2871.59
525.425	2959.66
525.632	3623.2
525.838	3053.86
526.045	2849.07
526.252	2939.18
526.459	4215.06
526.666	4270.36
526.873	2988.33
527.08	2998.57
527.287	3674.4
527.494	3537.18
527.701	2969.9
527.907	2836.78
528.114	3465.5
528.321	3297.57
528.528	3008.81
528.735	3039.53
528.941	3244.32
529.148	3207.46
529.355	3297.57
529.562	3084.58
529.768	3832.09
529.975	3608.86
530.182	3336.48
530.388	3150.12
530.595	3692.83
530.802	3221.8
531.008	3348.77
531.215	3215.65
531.422	3965.21
531.628	4475.15
531.835	3387.68
532.042	3635.49
532.248	3594.53
532.455	3625.25
532.661	3326.24
532.868	3371.3
533.074	3858.71
533.281	3924.25
533.487	3488.03
533.694	3381.54
533.9	3383.59
534.107	4075.8
534.313	3559.71
534.52	3447.07
534.726	3946.78
534.933	4378.9
535.139	3551.52
535.345	3481.89
535.552	3860.76
535.758	3893.53
535.965	3598.62
536.171	3399.97
536.377	4118.81
536.584	4358.42
536.79	3629.34
536.996	3731.74
537.203	3993.88
537.409	4112.66
537.615	3596.57
537.821	3909.91
538.028	4215.06
538.234	4104.47
538.44	3778.84
538.646	3758.36
538.853	4104.47
539.059	4114.71
539.265	4217.11
539.471	3580.19
539.677	4264.21
539.883	4174.1
540.09	3811.61
540.296	4301.08
540.502	4303.12
540.708	4102.42
540.914	4100.37
541.12	3926.3
541.326	4374.8
541.532	4426
541.738	4129.05
541.944	4092.18
542.15	4682
542.356	4288.79
542.562	4067.61
542.768	4172.05
542.974	4821.26
543.18	4888.84
543.386	4149.53
543.592	4092.18
543.798	4860.17
544.004	4595.98
544.21	4161.81
544.415	4391.19
544.621	4423.95
544.827	4845.84
545.033	4251.92
545.239	4469.01
545.445	4550.93
545.651	4792.59
545.856	4176.15
546.062	4354.32
546.268	4632.85
546.474	4735.25
546.679	4327.7
546.885	4350.23
547.091	4589.84
547.297	5216.52
547.502	4757.77
547.708	4229.4
547.914	4579.6
548.119	5019.91
548.325	4180.25
548.531	4294.93
548.736	5259.53
548.942	4636.94
549.147	4464.91
549.353	4776.2
549.559	5042.44
549.764	4966.67
549.97	4540.69
550.175	4561.17
550.381	5071.11
550.586	4542.74
550.792	4720.91
550.997	4665.61
551.203	5218.57
551.408	5204.23
551.614	4667.66
551.819	4679.95
552.025	5427.46
552.23	5499.14
552.435	4679.95
552.641	4915.47
552.846	5005.58
553.052	5402.88
553.257	4874.51
553.462	5003.53
553.668	5034.25
553.873	5486.85
554.078	4995.34
554.283	4835.6
554.489	5411.07
554.694	5300.48
554.899	5001.48
555.105	5175.56
555.31	5497.09
555.515	5652.74
555.72	5187.85
555.925	4911.37
556.131	5466.37
556.336	5320.96
556.541	5093.64
556.746	4948.23
556.951	5779.71
557.156	5972.22
557.361	5241.09
557.567	5273.86
557.772	6019.32
557.977	5488.9
558.182	5257.48
558.387	5476.61
558.592	5429.51
558.797	5828.86
559.002	5382.4
559.207	5312.77
559.412	5628.16
559.617	6074.62
559.822	5320.96
560.027	5323.01
560.232	5654.78
560.437	5685.5
560.642	5126.41
560.847	5325.06
561.051	5775.61
561.256	5714.17
561.461	5499.14
561.666	5253.38
561.871	5804.28
562.076	5984.51
562.281	5579.01
562.485	5511.43
562.69	5988.6
562.895	6050.04
563.1	5581.06
563.305	5472.51
563.509	6254.84
563.714	6316.28
563.919	5513.47
564.123	5607.68
564.328	5882.11
564.533	6363.38
564.737	5556.48
564.942	5699.84
565.147	6418.68
565.351	6484.21
565.556	5896.44
565.761	5771.52
565.965	6148.34
566.17	5951.74
566.374	5878.01
566.579	5738.75
566.784	6213.88
566.988	5996.79
567.193	5548.29
567.397	5804.28
567.602	5869.82
567.806	6101.24
568.011	5886.2
568.215	5947.64
568.42	6197.49
568.624	6338.8
568.828	5933.31
569.033	6185.21
569.237	6500.59
569.442	6435.06
569.646	5890.3
569.85	6066.42
570.055	6248.69
570.259	6353.14
570.463	6369.52
570.668	6117.62
570.872	6367.48
571.076	6455.54
571.281	6263.03
571.485	6338.8
571.689	6322.42
571.893	6734.06
572.098	6492.4
572.302	6236.41
572.506	6664.43
572.71	6508.79
572.914	6428.92
573.119	6228.21
573.323	7028.97
573.527	6881.52
573.731	6312.18
573.935	6213.88
574.139	6820.08
574.343	6609.14
574.547	6467.83
574.751	6416.63
574.955	7110.89
575.159	7074.03
575.364	6494.45
575.568	6457.59
575.772	6772.97
575.976	7149.8
576.18	6537.46
576.383	6492.4
576.587	7160.04
576.791	6904.04
576.995	6379.76
577.199	6535.41
577.403	7258.34
577.607	7418.08
577.811	6406.39
578.015	6789.36
578.219	7157.99
578.422	7106.79
578.626	6695.15
578.83	6918.38
579.034	7233.77
579.238	7246.05
579.442	6762.73
579.645	7217.38
579.849	6979.82
580.053	7078.12
580.257	6836.46
580.46	6856.94
580.664	7348.45
580.868	7295.21
581.071	7063.79
581.275	7209.19
581.479	6953.2
581.682	7461.09
581.886	7020.78
582.09	7229.67
582.293	7461.09
582.497	7461.09
582.7	7356.65
582.904	7082.22
583.107	7450.85
583.311	7446.76
583.515	7262.44
583.718	7135.46
583.922	7588.07
584.125	8061.15
584.329	7137.51
584.532	7450.85
584.735	7839.97
584.939	7678.18
585.142	7141.61
585.346	7203.05
585.549	7733.47
585.753	7483.62
585.956	7385.32
586.159	7506.15
586.363	7948.51
586.566	8005.85
586.769	7086.31
586.973	7350.5
587.176	7876.83
587.379	8018.14
587.582	7887.07
587.786	7823.58
587.989	7770.33
588.192	8620.24
588.395	7577.83
588.599	8087.77
588.802	8063.19
589.005	8218.84
589.208	7928.03
589.411	7624.93
589.615	8007.9
589.818	8491.22
590.021	7989.47
590.224	7956.7
590.427	8405.21
590.63	8503.51
590.833	7786.72
591.036	7907.55
591.239	8122.59
591.442	7995.61
591.645	8044.76
591.848	7854.3
592.051	8460.5
592.254	8593.62
592.457	8394.97
592.66	8263.9
592.863	8347.86
593.066	8515.8
593.269	8247.51
593.472	8233.18
593.675	8216.79
593.878	8700.11
594.081	8462.55
594.284	7930.08
594.486	8634.58
594.689	8556.75
594.892	8413.4
595.095	8280.28
595.298	8575.19
595.5	8431.83
595.703	8663.25
595.906	8624.34
596.109	8939.72
596.311	9001.16
596.514	8159.45
596.717	8472.79
596.92	9111.75
597.122	8941.77
597.325	8356.05
597.528	8601.81
597.73	9064.65
597.933	8476.88
598.136	8548.56
598.338	8257.75
598.541	9085.13
598.743	9398.47
598.946	8585.43
599.148	8896.72
599.351	9169.1
599.554	9175.24
599.756	8788.18
599.959	9117.9
600.161	9187.53
600.363	9531.59
600.566	8999.12
600.768	8855.76
600.971	9670.85
601.173	9459.91
601.376	8913.1
601.578	8986.83
601.78	9324.74
601.983	9650.37
602.185	8929.49
602.388	9205.96
602.59	9427.14
602.792	9230.54
602.995	9261.26
603.197	9165
603.399	9511.11
603.601	9404.61
603.804	9103.56
604.006	9038.03
604.208	9392.33
604.41	8878.29
604.613	9402.57
604.815	9107.66
605.017	10055.87
605.219	9224.39
605.421	9496.77
605.623	9035.98
605.826	9842.88
606.028	9873.6
606.23	9230.54
606.432	9224.39
606.634	9885.89
606.836	10006.72
607.038	9066.7
607.24	9392.33
607.442	9627.84
607.644	9736.38
607.846	9595.07
608.048	9138.38
608.25	9949.37
608.452	9570.5
608.654	9451.72
608.856	9038.03
609.058	9818.3
609.26	9902.27
609.462	9689.28
609.664	9580.74
609.866	10152.12
610.067	10000.57
610.269	9736.38
610.471	9513.16
610.673	10025.15
610.875	10031.29
611.077	9355.46
611.278	9691.33
611.48	9896.13
611.682	10395.83
611.884	9740.48
612.085	9683.14
612.287	9666.75
612.489	10170.55
612.69	9496.77
612.892	9976
613.094	10348.73
613.295	9912.51
613.497	9588.93
613.699	9650.37
613.9	10434.74
614.102	10551.48
614.304	9990.33
614.505	9726.14
614.707	10090.68
614.908	9947.33
615.11	9609.41
615.311	9881.79
615.513	10354.87
615.714	10463.41
615.916	9896.13
616.117	10068.16
616.319	10211.51
616.52	10440.89
616.722	10023.1
616.923	10107.07
617.124	10432.69
617.326	10455.22
617.527	10150.07
617.729	10420.41
617.93	10412.21
618.131	10483.89
618.333	10008.76
618.534	10211.51
618.735	10248.38
618.937	10860.72
619.138	10119.35
619.339	10174.65
619.54	10635.44
619.742	10039.48
619.943	10379.45
620.144	10424.5
620.345	10692.79
620.546	10655.92
620.748	10406.07
620.949	10250.42
621.15	10629.3
621.351	10608.82
621.552	10209.47
621.753	10408.12
621.954	10279.1
622.155	10981.55
622.356	10356.92
622.558	10432.69
622.759	10592.44
622.96	11122.86
623.161	10367.16
623.362	10543.28
623.563	10819.76
623.764	10709.17
623.965	10508.47
624.166	10731.7
624.366	10637.49
624.567	10887.34
624.768	10295.48
624.969	10305.72
625.17	10596.53
625.371	10913.97
625.572	10498.23
625.773	10586.29
625.973	11204.78
626.174	10971.31
626.375	10639.54
626.576	10799.28
626.777	11108.52
626.977	11382.95
627.178	10608.82
627.379	10918.06
627.58	11030.7
627.78	11094.19
627.981	10600.63
628.182	10909.87
628.382	11215.02
628.583	10727.6
628.784	10954.93
628.984	10926.25
629.185	11305.13
629.386	11131.05
629.586	11010.22
629.787	10852.53
629.987	11182.25
630.188	10987.69
630.388	11002.03
630.589	10965.17
630.79	11618.47
630.99	11378.86
631.191	11274.41
631.391	11264.17
631.591	11460.77
631.792	11972.77
631.992	11212.97
632.193	11409.58
632.393	11745.44
632.594	11274.41
632.794	11223.21
632.994	11270.31
633.195	11524.26
633.395	11460.77
633.595	11061.42
633.796	11321.51
633.996	11370.66
634.196	11847.84
634.397	11524.26
634.597	11370.66
634.797	11317.42
634.997	11753.63
635.198	11483.3
635.398	11155.63
635.598	11669.67
635.798	12064.93
635.998	11630.76
636.199	11221.16
636.399	11608.23
636.599	11491.49
636.799	11626.66
636.999	11645.09
637.199	11593.89
637.399	12140.7
637.599	11325.61
637.799	11479.21
637.999	11641
638.199	12155.04
638.399	11382.95
638.599	11569.32
638.799	11899.04
638.999	12218.52
639.199	11976.86
639.399	11913.38
639.599	12282.01
639.799	11772.07
639.999	11686.05
640.199	11657.38
640.399	12048.54
640.599	11884.7
640.799	12130.46
640.998	11770.02
641.198	12181.66
641.398	12093.6
641.598	11968.67
641.798	11921.57
641.997	12779.67
642.197	12304.54
642.397	12013.73
642.597	11882.66
642.796	12306.59
642.996	12472.47
643.196	12103.84
643.395	11833.5
643.595	12335.26
643.795	12030.11
643.994	11929.76
644.194	12179.61
644.394	12320.92
644.593	12402.84
644.793	11952.29
644.992	12247.19
645.192	12611.73
645.392	12062.88
645.591	12339.35
645.791	12230.81
645.99	12794
646.19	12361.88
646.389	12251.29
646.589	12140.7
646.788	12650.64
646.987	12750.99
647.187	12435.61
647.386	12443.8
647.586	12531.86
647.785	12667.03
647.984	12431.51
648.184	12398.74
648.383	12779.67
648.582	12529.81
648.782	12429.46
648.981	12468.38
649.18	12689.56
649.38	12824.72
649.579	12314.78
649.778	12466.33
649.977	12791.95
650.177	12976.27
650.376	12304.54
650.575	12335.26
650.774	13152.4
650.973	12583.06
651.173	12239
651.372	12726.42
651.571	12929.17
651.77	13095.05
651.969	12722.32
652.168	12773.52
652.367	12630.16
652.566	13025.42
652.765	12454.04
652.964	13211.79
653.163	13363.34
653.362	13041.81
653.561	12677.27
653.76	12841.11
653.959	12904.59
654.158	13328.52
654.357	13154.44
654.556	12941.46
654.755	13598.85
654.954	13201.55
655.153	12904.59
655.352	13201.55
655.551	13443.21
655.749	13023.37
655.948	13060.24
656.147	13185.16
656.346	13316.23
656.545	13191.31
656.743	12966.03
656.942	12996.75
657.141	13279.37
657.34	13209.74
657.538	13037.71
657.737	12994.7
657.936	13455.5
658.135	13553.8
658.333	13129.87
658.532	13463.69
658.731	13873.28
658.929	13549.7
659.128	13353.1
659.326	13369.48
659.525	13701.25
659.724	13484.17
659.922	13136.01
660.121	13252.75
660.319	13441.16
660.518	13492.36
660.716	13267.08
660.915	13176.97
661.113	13942.91
661.312	13308.04
661.51	13410.44
661.709	13359.24
661.907	13652.1
662.105	14123.13
662.304	13213.84
662.502	13496.46
662.701	13910.15
662.899	13545.61
663.097	13947.01
663.296	13240.46
663.494	14321.79
663.692	14174.33
663.891	13301.9
664.089	13398.15
664.287	13783.17
664.485	13934.72
664.684	13725.83
664.882	13858.95
665.08	13576.33
665.278	13953.15
665.476	13408.39
665.675	13777.03
665.873	14407.8
666.071	14160
666.269	13414.54
666.467	13809.79
666.665	13949.06
666.863	13734.02
667.061	13703.3
667.259	13781.12
667.457	13686.92
667.655	14203
667.853	13574.28
668.051	13785.22
668.249	13664.39
668.447	13858.95
668.645	13537.41
668.843	13967.49
669.041	14164.09
669.239	13879.43
669.437	13856.9
669.635	14114.94
669.833	13799.55
670.031	14272.64
670.229	13783.17
670.426	13918.34
670.624	13955.2
670.822	13985.92
671.02	13908.1
671.218	13746.31
671.415	13803.65
671.613	14139.52
671.811	13801.6
672.009	14123.13
672.206	14311.55
672.404	14114.94
672.602	13949.06
672.799	14121.09
672.997	14338.17
673.195	14250.11
673.392	14051.45
673.59	13705.35
673.788	14397.56
673.985	13594.76
674.183	14078.08
674.38	14198.91
674.578	14321.79
674.775	14057.6
674.973	13756.55
675.17	13895.81
675.368	14487.67
675.565	14411.9
675.763	14260.35
675.96	13760.64
676.158	14436.47
676.355	14088.32
676.553	14045.31
676.75	13867.14
676.947	14033.02
677.145	14045.31
677.342	14092.41
677.539	14203
677.737	14309.5
677.934	14739.57
678.131	14149.76
678.329	13873.28
678.526	14678.13
678.723	14336.12
678.92	14180.48
679.118	14143.61
679.315	13891.71
679.512	14655.61
679.709	13979.78
679.906	14241.92
680.104	14356.6
680.301	14432.38
680.498	14049.41
680.695	14061.69
680.892	14127.23
681.089	14037.12
681.286	14086.27
681.483	13932.67
681.68	14712.95
681.877	14372.99
682.075	14174.33
682.272	14588.02
682.469	14508.15
682.665	14364.79
682.862	13820.03
683.059	14045.31
683.256	14528.63
683.453	14379.13
683.65	14311.55
683.847	14205.05
684.044	14319.74
684.241	14059.65
684.438	14393.47
684.635	14057.6
684.831	14856.31
685.028	14663.8
685.225	14276.73
685.422	14125.18
685.619	14348.41
685.815	14512.25
686.012	14291.07
686.209	14065.79
686.405	13963.39
686.602	14415.99
686.799	13940.86
686.996	14395.51
687.192	13934.72
687.389	15003.76
687.586	14268.54
687.782	14272.64
687.979	14801.01
688.175	14475.38
688.372	14293.12
688.568	14256.25
688.765	13904
688.962	14696.57
689.158	14415.99
689.355	14246.01
689.551	14561.4
689.748	14536.82
689.944	14446.71
690.14	14030.98
690.337	14758
690.533	14540.92
690.73	14420.09
690.926	14366.84
691.123	14164.09
691.319	14475.38
691.515	14100.61
691.712	14401.66
691.908	14796.92
692.104	14446.71
692.301	14311.55
692.497	14135.42
692.693	14581.88
692.889	14831.73
693.086	14385.27
693.282	14067.84
693.478	14723.19
693.674	14780.53
693.87	14188.67
694.067	14174.33
694.263	14504.06
694.459	14309.5
694.655	14717.04
694.851	14401.66
695.047	14827.64
695.243	14497.91
695.439	14321.79
695.635	14203
695.831	14696.57
696.027	14467.19
696.224	14239.87
696.42	14682.23
696.615	14870.64
696.811	14686.33
697.007	14071.93
697.203	14049.41
697.399	14622.84
697.595	14909.55
697.791	14215.29
697.987	14264.44
698.183	14049.41
698.379	14254.2
698.575	14092.41
698.77	14309.5
698.966	14667.89
699.162	14663.8
699.358	14364.79
699.554	14405.75
699.749	14735.48
699.945	14745.72
700.141	14508.15
700.337	14469.24
700.532	14440.57
700.728	14358.65
700.924	14282.88
701.119	14145.66
701.315	14794.87
701.511	14422.14
701.706	14563.45
701.902	13994.11
702.097	14393.47
702.293	14721.14
702.489	14252.16
702.684	14430.33
702.88	14489.72
703.075	14483.58
703.271	14409.85
703.466	13983.87
703.662	14663.8
703.857	14614.65
704.053	14243.96
704.248	14229.63
704.443	14411.9
704.639	14751.86
704.834	14405.75
705.03	14270.59
705.225	14839.92
705.42	14567.54
705.616	14508.15
705.811	14053.5
706.006	14485.62
706.202	14483.58
706.397	14252.16
706.592	14291.07
706.787	14475.38
706.983	14389.37
707.178	14878.83
707.373	14243.96
707.568	14495.86
707.763	14772.34
707.959	14289.02
708.154	14395.51
708.349	14563.45
708.544	14508.15
708.739	14682.23
708.934	14241.92
709.129	14737.52
709.324	15007.86
709.519	14393.47
709.714	14166.14
709.909	14887.03
710.104	14815.35
710.299	14221.44
710.494	14583.93
710.689	14903.41
710.884	14497.91
711.079	14407.8
711.274	14424.19
711.469	14760.05
711.664	14653.56
711.859	14268.54
712.054	14628.98
712.249	14663.8
712.443	15110.25
712.638	14217.34
712.833	14106.75
713.028	14555.26
713.223	14547.06
713.417	14645.37
713.612	14377.08
713.807	14907.51
714.002	15124.59
714.196	14811.25
714.391	14434.43
714.586	14915.7
714.78	14467.19
714.975	14481.53
715.17	14190.72
715.364	14688.37
715.559	15007.86
715.754	13987.97
715.948	14121.09
716.143	14938.23
716.337	14461.05
716.532	14671.99
716.726	14346.36
716.921	14663.8
717.115	15128.69
717.31	14344.31
717.504	15120.49
717.699	14637.17
717.893	14903.41
718.088	14309.5
718.282	14239.87
718.476	14585.97
718.671	14602.36
718.865	14198.91
719.059	14030.98
719.254	14581.88
719.448	14811.25
719.642	15589.48
719.837	13990.02
720.031	14571.64
720.225	14592.12
720.419	14325.88
720.614	14176.38
720.808	14551.16
721.002	14241.92
721.196	14338.17
721.39	14133.37
721.585	14686.33
721.779	14309.5
721.973	14256.25
722.167	13875.33
722.361	14436.47
722.555	14891.12
722.749	14260.35
722.943	14172.29
723.137	14203
723.331	14545.02
723.525	14241.92
723.719	14119.04
723.913	14504.06
724.107	14676.09
724.301	14094.46
724.495	14207.1
724.689	14704.76
724.883	14755.96
725.077	14436.47
725.271	14135.42
725.465	14870.64
725.659	14364.79
725.853	14411.9
726.046	14035.07
726.24	14252.16
726.434	14702.71
726.628	14280.83
726.822	14205.05
727.015	14739.57
727.209	14950.51
727.403	14129.28
727.596	14063.74
727.79	14755.96
727.984	14758
728.177	14256.25
728.371	14393.47
728.565	14786.68
728.758	14192.76
728.952	14076.03
729.146	14262.4
729.339	14925.94
729.533	14329.98
729.726	14350.46
729.92	14319.74
730.113	14913.65
730.307	14698.61
730.5	14344.31
730.694	14446.71
730.887	14340.22
731.081	14717.04
731.274	14362.75
731.468	14405.75
731.661	14538.87
731.854	14557.3
732.048	14473.34
732.241	14301.31
732.435	14291.07
732.628	14635.13
732.821	14329.98
733.014	14385.27
733.208	14184.57
733.401	14872.69
733.594	14129.28
733.788	14205.05
733.981	14809.2
734.174	14905.46
734.367	14143.61
734.56	14356.6
734.754	14747.76
734.947	14411.9
735.14	14297.21
735.333	14311.55
735.526	14831.73
735.719	14553.21
735.912	14293.12
736.105	14153.85
736.298	14553.21
736.491	14538.87
736.684	14588.02
736.877	14321.79
737.07	14522.49
737.263	14821.49
737.456	14223.48
737.649	14303.36
737.842	14522.49
738.035	14905.46
738.228	14456.95
738.421	14579.83
738.614	14819.44
738.807	14936.18
739	14170.24
739.192	14389.37
739.385	14653.56
739.578	14917.75
739.771	14561.4
739.964	14178.43
740.156	14692.47
740.349	14702.71
740.542	14676.09
740.735	14166.14
740.927	14270.59
741.12	14676.09
741.313	14329.98
741.505	14776.44
741.698	14735.48
741.891	14704.76
742.083	14741.62
742.276	14497.91
742.468	14768.24
742.661	14774.39
742.854	14622.84
743.046	14471.29
743.239	15210.61
743.431	14848.11
743.624	14770.29
743.816	14350.46
744.009	14674.04
744.201	14809.2
744.393	14164.09
744.586	14219.39
744.778	14923.89
744.971	14389.37
745.163	14420.09
745.355	14309.5
745.548	14452.86
745.74	14418.04
745.932	14563.45
746.125	14194.81
746.317	15120.49
746.509	14760.05
746.702	14499.96
746.894	14487.67
747.086	14815.35
747.278	14893.17
747.471	14497.91
747.663	14432.38
747.855	14628.98
748.047	14893.17
748.239	14622.84
748.431	14366.84
748.623	15186.03
748.815	14932.08
749.008	14291.07
749.2	14430.33
749.392	14895.22
749.584	14848.11
749.776	14790.77
749.968	14481.53
750.16	15261.8
750.352	14422.14
750.544	14346.36
750.736	14407.8
750.928	14753.91
751.12	14704.76
751.311	14268.54
751.503	14348.41
751.695	14643.32
751.887	14542.97
752.079	14086.27
752.271	14198.91
752.463	15390.83
752.654	14676.09
752.846	14426.23
753.038	14260.35
753.23	14581.88
753.421	14633.08
753.613	14176.38
753.805	14366.84
753.997	14659.7
754.188	14815.35
754.38	13983.87
754.572	14293.12
754.763	14409.85
754.955	14583.93
755.146	14301.31
755.338	14082.17
755.53	14329.98
755.721	14243.96
755.913	13914.24
756.104	13965.44
756.296	14313.59
756.487	14487.67
756.679	14098.56
756.87	14098.56
757.062	14372.99
757.253	14581.88
757.445	14061.69
757.636	14213.24
757.827	14399.61
758.019	15114.35
758.21	13641.86
758.401	14135.42
758.593	14823.54
758.784	14764.15
758.975	13838.47
759.167	13930.62
759.358	14483.58
759.549	14790.77
759.74	13871.23
759.932	14035.07
760.123	14534.78
760.314	14082.17
760.505	14372.99
760.696	14030.98
760.888	14559.35
761.079	14119.04
761.27	13758.6
761.461	13695.11
761.652	14833.78
761.843	13977.73
762.034	13951.1
762.225	14243.96
762.416	14084.22
762.607	14248.06
762.798	13992.06
762.989	13803.65
763.18	14942.32
763.371	14061.69
763.562	13684.87
763.753	13695.11
763.944	14237.82
764.135	14364.79
764.326	14168.19
764.517	13828.23
764.708	14538.87
764.899	13879.43
765.089	13688.96
765.28	13697.16
765.471	14096.51
765.662	14162.05
765.853	13910.15
766.043	13609.09
766.234	14342.27
766.425	14135.42
766.615	14016.64
766.806	13557.89
766.997	14409.85
767.187	14200.96
767.378	13541.51
767.569	13590.66
767.759	14008.45
767.95	14006.4
768.141	13756.55
768.331	13349
768.522	13901.95
768.712	13969.54
768.903	13486.22
769.093	13416.58
769.284	14311.55
769.474	14049.41
769.665	13316.23
769.855	13281.42
770.046	14059.65
770.236	13787.27
770.426	13549.7
770.617	13596.81
770.807	13971.58
770.998	13772.93
771.188	13668.48
771.378	13260.94
771.569	13938.82
771.759	13709.44
771.949	13140.11
772.139	13455.5
772.33	13897.86
772.52	13963.39
772.71	13467.78
772.9	13201.55
773.09	13838.47
773.281	14012.54
773.471	13230.22
773.661	13310.09
773.851	13805.7
774.041	13437.06
774.231	13191.31
774.421	13478.02
774.611	13856.9
774.802	13486.22
774.992	13394.06
775.182	13176.97
775.372	13686.92
775.562	13774.98
775.752	13228.17
775.942	13125.77
776.131	13639.81
776.321	13729.92
776.511	13398.15
776.701	12869.78
776.891	13582.47
777.081	13131.92
777.271	13219.98
777.461	13365.39
777.651	13648.01
777.84	13666.44
778.03	13074.57
778.22	12939.41
778.41	13736.07
778.599	13256.84
778.789	13013.13
778.979	13021.33
779.169	13459.59
779.358	13346.95
779.548	13197.45
779.738	13035.66
779.927	13539.46
780.117	13269.13
780.307	13090.96
780.496	12861.59
780.686	13281.42
780.875	13910.15
781.065	12916.88
781.254	12937.36
781.444	13138.06
781.633	13156.49
781.823	12972.18
782.012	12787.86
782.202	13217.93
782.391	12996.75
782.581	12656.79
782.77	12996.75
782.96	13457.54
783.149	12884.11
783.338	12755.09
783.528	12789.91
783.717	13222.03
783.906	13463.69
784.096	12716.18
784.285	12685.46
784.474	13000.85
784.663	12814.48
784.853	12671.12
785.042	12646.55
785.231	12976.27
785.42	13205.64
785.61	12722.32
785.799	12585.11
785.988	13088.91
786.177	12861.59
786.366	12607.64
786.555	12869.78
786.744	13199.5
786.933	12945.55
787.122	12523.67
787.312	12472.47
787.501	12918.93
787.69	13033.61
787.879	12943.5
788.068	12646.55
788.257	12576.92
788.445	12783.76
788.634	12581.01
788.823	12558.49
789.012	13514.89
789.201	13090.96
789.39	12619.92
789.579	12329.11
789.768	12734.61
789.957	12939.41
790.145	12419.22
790.334	12404.89
790.523	12628.12
790.712	12689.56
790.9	12511.38
791.089	12374.17
791.278	13004.94
791.467	12621.97
791.655	12548.25
791.844	12882.06
792.033	12421.27
792.221	12619.92
792.41	12538.01
792.599	12322.97
792.787	13027.47
792.976	13203.6
793.164	12269.72
793.353	12511.38
793.541	12736.66
793.73	12849.3
793.918	12388.5
794.107	11974.81
794.295	12312.73
794.484	12636.31
794.672	12388.5
794.861	12023.97
795.049	12814.48
795.238	13144.2
795.426	12079.26
795.614	12490.9
795.803	12812.43
795.991	12798.1
796.179	12437.66
796.368	12138.65
796.556	12636.31
796.744	12040.35
796.932	12378.26
797.121	11835.55
797.309	12552.34
797.497	12654.74
797.685	12206.24
797.874	12458.14
798.062	12486.81
798.25	12918.93
798.438	11989.15
798.626	12365.98
798.814	12564.63
799.002	13041.81
799.19	12368.02
799.378	12331.16
799.566	12783.76
799.755	12619.92
799.943	12402.84
800.131	12288.15
800.318	12660.88
800.506	12388.5
800.694	12179.61
800.882	12363.93
801.07	12691.6
801.258	12445.85
801.446	12251.29
801.634	12263.58
801.822	12390.55
802.01	12486.81
802.197	12480.66
802.385	12368.02
802.573	12570.77
802.761	12517.53
802.949	12447.9
803.136	12294.3
803.324	12912.78
803.512	12724.37
803.699	12333.21
803.887	12214.43
804.075	13086.86
804.262	12642.45
804.45	12372.12
804.638	12308.63
804.825	12742.8
805.013	12574.87
805.201	12402.84
805.388	12335.26
805.576	12877.97
805.763	13439.11
805.951	12585.11
806.138	12605.59
806.326	13285.51
806.513	12820.63
806.701	12636.31
806.888	12517.53
807.075	13025.42
807.263	13262.99
807.45	12585.11
807.638	12877.97
807.825	13371.53
808.012	13334.67
808.2	12662.93
808.387	12900.5
808.574	12898.45
808.761	13256.84
808.949	12484.76
809.136	12988.56
809.323	12785.81
809.51	13213.84
809.698	13050
809.885	12804.24
810.072	13017.23
810.259	13383.82
810.446	12877.97
810.633	12740.75
810.82	13230.22
811.008	13568.13
811.195	12968.08
811.382	13033.61
811.569	13283.47
811.756	12525.72
811.943	12873.87
812.13	12748.95
812.317	12990.61
812.504	13006.99
812.691	13060.24
812.878	12857.49
813.064	13467.78
813.251	13183.12
813.438	12703.89
813.625	12945.55
813.812	12832.91
813.999	13238.41
814.186	13013.13
814.372	12826.77
814.559	13174.92
814.746	13285.51
814.933	12789.91
815.12	13396.1
815.306	13107.34
815.493	12894.35
815.68	12720.28
815.866	12564.63
816.053	13432.97
816.24	13602.95
816.426	13285.51
816.613	12837.01
816.799	13365.39
816.986	13615.24
817.173	12920.98
817.359	12779.67
817.546	13123.73
817.732	12746.9
817.919	12509.33
818.105	13138.06
818.292	12814.48
818.478	13410.44
818.665	13213.84
818.851	12880.02
819.037	13697.16
819.224	13129.87
819.41	12714.13
819.597	12560.53
819.783	13441.16
819.969	13369.48
820.156	12834.96
820.342	12787.86
820.528	13760.64
820.714	12966.03
820.901	13070.48
821.087	13023.37
821.273	13561.99
821.459	12849.3
821.646	12748.95
821.832	12802.19
822.018	12892.3
822.204	13183.12
822.39	12787.86
822.576	12886.16
822.762	13205.64
822.948	13215.88
823.134	13129.87
823.32	12509.33
823.507	12750.99
823.693	12839.06
823.879	13250.7
824.065	12521.62
824.25	13090.96
824.436	12730.52
824.622	12578.97
824.808	12695.7
824.994	12961.94
825.18	12544.15
825.366	12697.75
825.552	12503.19
825.738	12857.49
825.923	12953.74
826.109	12652.69
826.295	12390.55
826.481	12478.61
826.667	12611.73
826.852	12636.31
827.038	12482.71
827.224	13050
827.409	13232.27
827.595	12429.46
827.781	12492.95
827.966	12877.97
828.152	12753.04
828.338	12619.92
828.523	12169.37
828.709	12546.2
828.894	12707.99
829.08	12406.94
829.266	12411.03
829.451	12517.53
829.637	12961.94
829.822	12290.2
830.008	12155.04
830.193	13054.09
830.378	12779.67
830.564	12464.28
830.749	12327.07
830.935	12824.72
831.12	12636.31
831.305	12120.22
831.491	12368.02
831.676	12171.42
831.861	12800.15
832.047	12239
832.232	12009.63
832.417	12767.38
832.602	12486.81
832.788	12210.33
832.973	12064.93
833.158	12300.44
833.343	12374.17
833.528	12032.16
833.714	12206.24
833.899	12368.02
834.084	12748.95
834.269	12312.73
834.454	11940
834.639	12660.88
834.824	12564.63
835.009	12218.52
835.194	12267.67
835.379	12603.54
835.564	12458.14
835.749	12189.85
835.934	11880.61
836.119	12359.83
836.304	12224.67
836.489	11786.4
836.674	12058.78
836.859	12066.97
837.044	12531.86
837.228	11903.14
837.413	11780.26
837.598	12216.47
837.783	12480.66
837.968	12077.21
838.152	11770.02
838.337	11714.72
838.522	12460.18
838.707	12482.71
838.891	12042.4
839.076	12066.97
839.261	12599.45
839.445	11991.2
839.63	11808.93
839.815	12474.52
839.999	12023.97
840.184	11688.1
840.368	11767.97
840.553	12126.36
840.737	12081.31
840.922	11391.14
841.106	11501.73
841.291	11657.38
841.475	12075.17
841.66	11573.41
841.844	11800.74
842.029	12806.29
842.213	11647.14
842.397	11475.11
842.582	11380.9
842.766	12234.91
842.951	12044.45
843.135	11653.28
843.319	11522.21
843.504	11782.31
843.688	11993.25
843.872	11493.54
844.056	11581.6
844.241	12003.49
844.425	11468.97
844.609	11604.13
844.793	11507.88
844.977	12112.03
845.161	11714.72
845.346	11186.35
845.53	11382.95
845.714	11989.15
845.898	12052.64
846.082	11464.87
846.266	11344.04
846.45	11614.37
846.634	11743.39
846.818	11274.41
847.002	11575.46
847.186	11948.19
847.37	11292.84
847.554	11215.02
847.738	11448.49
847.922	11735.2
848.106	11454.63
848.29	11038.89
848.473	11178.15
848.657	11597.99
848.841	11544.74
849.025	11178.15
849.209	10834.1
849.392	11540.65
849.576	11305.13
849.76	10805.42
849.944	11327.66
850.127	11780.26
850.311	10983.6
850.495	10891.44
850.678	10971.31
850.862	11749.54
851.046	11522.21
851.229	11385
851.413	10897.58
851.596	11399.34
851.78	11245.74
851.964	11206.83
852.147	10870.96
852.331	12079.26
852.514	11407.53
852.698	11040.94
852.881	10719.41
853.065	11399.34
853.248	11303.08
853.431	10981.55
853.615	11143.34
853.798	11866.27
853.982	11278.51
854.165	11077.8
854.348	10850.48
854.532	10942.64
854.715	11073.71
854.898	11051.18
855.081	10731.7
855.265	11567.27
855.448	11634.85
855.631	10672.31
855.814	10731.7
855.997	11288.75
856.181	11028.65
856.364	10899.63
856.547	10727.6
856.73	10799.28
856.913	10946.73
857.096	10686.64
857.279	10883.25
857.462	10766.51
857.645	11196.59
857.828	10725.55
858.011	10668.21
858.194	10858.67
858.377	11042.99
858.56	10436.79
858.743	10617.01
858.926	10510.52
859.109	10938.54
859.292	10717.36
859.475	10522.8
859.658	11163.82
859.841	10885.3
860.023	10549.43
860.206	10074.3
860.389	10860.72
860.572	11012.27
860.755	10578.1
860.937	10387.64
861.12	10676.4
861.303	10514.61
861.486	10469.56
861.668	10408.12
861.851	10674.35
862.034	10465.46
862.216	10283.19
862.399	10258.62
862.581	10559.67
862.764	10944.69
862.947	10584.24
863.129	10195.13
863.312	10262.71
863.494	10971.31
863.677	10510.52
863.859	9912.51
864.042	10518.71
864.224	10592.44
864.406	10330.3
864.589	10037.44
864.771	10401.97
864.954	10084.54
865.136	10051.77
865.318	9949.37
865.501	10531
865.683	9838.78
865.865	9769.15
866.048	9957.57
866.23	10328.25
866.412	10330.3
866.594	9916.61
866.777	9990.33
866.959	10256.57
867.141	10080.44
867.323	10133.69
867.505	10084.54
867.687	9875.65
867.869	9980.09
868.052	9779.39
868.234	9746.62
868.416	9998.52
868.598	10531
868.78	9967.81
868.962	10037.44
869.144	10492.09
869.326	10416.31
869.508	9832.64
869.69	9824.45
869.872	9967.81
870.054	10557.62
870.236	9744.58
870.417	9722.05
870.599	10037.44
870.781	10551.48
870.963	10055.87
871.145	9789.63
871.327	9756.86
871.508	10244.28
871.69	9765.06
871.872	9857.21
872.054	9930.94
872.235	10340.54
872.417	9994.43
872.599	9631.94
872.78	10387.64
872.962	10062.01
873.144	9758.91
873.325	9527.49
873.507	10512.56
873.689	10207.42
873.87	9793.73
874.052	9916.61
874.233	10252.47
874.415	10268.86
874.596	10014.91
874.778	9775.3
874.959	10086.59
875.141	10174.65
875.322	9965.76
875.503	9695.43
875.685	10143.93
875.866	9695.43
876.048	9695.43
876.229	9736.38
876.41	9969.85
876.592	10201.27
876.773	9873.6
876.954	9707.71
877.136	10418.36
877.317	10094.78
877.498	9865.41
877.679	9873.6
877.86	10281.14
878.042	10279.1
878.223	9824.45
878.404	10330.3
878.585	10438.84
878.766	10713.27
878.947	10139.83
879.128	10141.88
879.309	10397.88
879.49	10535.09
879.672	10033.34
879.853	9904.32
880.034	10027.2
880.215	10178.75
880.396	10209.47
880.576	10012.86
880.757	10526.9
880.938	10576.05
881.119	10225.85
881.3	9869.5
881.481	10260.66
881.662	11278.51
881.843	9857.21
882.023	10014.91
882.204	10438.84
882.385	10481.85
882.566	10025.15
882.747	10279.1
882.927	10465.46
883.108	10676.4
883.289	10098.88
883.469	10475.7
883.65	10551.48
883.831	10440.89
884.011	10547.38
884.192	10219.71
884.373	10987.69
884.553	10954.93
884.734	10633.4
884.914	10606.77
885.095	11305.13
885.275	11010.22
885.456	10608.82
885.636	10344.63
885.817	10684.59
885.997	10674.35
886.178	10498.23
886.358	10555.57
886.538	10965.17
886.719	11759.78
886.899	10299.58
887.08	10653.87
887.26	11135.15
887.44	10531
887.621	10657.97
887.801	10623.16
887.981	11554.98
888.161	11243.69
888.342	10680.5
888.522	10795.18
888.702	11131.05
888.882	11176.11
889.062	10840.24
889.242	10367.16
889.423	11448.49
889.603	11075.76
889.783	10850.48
889.963	10430.65
890.143	11198.63
890.323	11178.15
890.503	10764.47
890.683	10674.35
890.863	11239.59
891.043	11053.23
891.223	11110.57
891.403	11176.11
891.583	11167.91
891.763	11270.31
891.943	10930.35
892.122	10842.29
892.302	11145.39
892.482	11059.37
892.662	10815.66
892.842	10840.24
893.022	11227.31
893.201	11079.85
893.381	10961.07
893.561	10987.69
893.741	11151.53
893.92	11063.47
894.1	10991.79
894.28	10846.38
894.459	11294.89
894.639	11147.44
894.819	10819.76
894.998	11200.68
895.178	11204.78
895.357	11096.24
895.537	10758.32
895.716	10760.37
895.896	11151.53
896.075	11405.48
896.255	10881.2
896.434	10641.59
896.614	11473.06
896.793	11415.72
896.973	10959.02
897.152	10832.05
897.331	11057.32
897.511	11452.58
897.69	10813.62
897.87	10975.41
898.049	11335.85
898.228	10926.25
898.407	10858.67
898.587	11137.2
898.766	10782.9
898.945	11255.98
899.124	10823.86
899.304	11145.39
899.483	11198.63
899.662	11600.04
899.841	10635.44
900.02	10774.7
900.199	11325.61
900.378	11090.09
900.557	10764.47
900.737	10666.16
900.916	11049.13
901.095	11180.2
901.274	10789.04
901.453	10459.32
901.632	10660.02
901.811	10727.6
901.989	10623.16
902.168	10453.17
902.347	11143.34
902.526	10713.27
902.705	10531
902.884	10467.51
903.063	11255.98
903.242	11311.27
903.42	10475.7
903.599	10748.08
903.778	10959.02
903.957	11165.87
904.135	10680.5
904.314	10522.8
904.493	10602.68
904.672	10862.77
904.85	10416.31
905.029	10496.18
905.207	10950.83
905.386	11460.77
905.565	10121.4
905.743	10219.71
905.922	10645.68
906.1	10666.16
906.279	10451.13
906.457	10297.53
906.636	10629.3
906.814	10373.3
906.993	10334.39
907.171	10254.52
907.35	10553.52
907.528	10719.41
907.707	10471.61
907.885	10182.84
908.063	10746.03
908.242	10324.15
908.42	10229.95
908.598	9801.92
908.777	10344.63
908.955	10186.94
909.133	10381.49
909.311	10021.05
909.49	10166.46
909.668	10238.14
909.846	10279.1
910.024	9853.12
910.202	10080.44
910.38	10401.97
910.559	9681.09
910.737	9969.85
910.915	10205.37
911.093	10354.87
911.271	9791.68
911.449	10021.05
911.627	10051.77
911.805	10487.99
911.983	9738.43
912.161	9496.77
912.339	9967.81
912.517	10127.55
912.695	9859.26
912.872	9818.3
913.05	9834.69
913.228	10191.03
913.406	9556.16
913.584	9736.38
913.762	10066.11
913.939	9722.05
914.117	9410.76
914.295	9296.07
914.473	9980.09
914.65	9703.62
914.828	9261.26
915.006	9283.78
915.184	9390.28
915.361	9679.04
915.539	9394.37
915.716	9595.07
915.894	9707.71
916.072	9728.19
916.249	9369.8
916.427	9216.2
916.604	9181.39
916.782	9720
916.959	9197.77
917.137	9238.73
917.314	9515.2
917.492	9363.65
917.669	9267.4
917.847	9144.52
918.024	9668.8
918.201	9134.28
918.379	9269.45
918.556	9048.27
918.733	9425.09
918.911	9216.2
919.088	9339.08
919.265	8847.57
919.442	9334.98
919.62	9154.76
919.797	8814.8
919.974	8610
920.151	9294.02
920.328	9007.31
920.506	8769.74
920.683	8974.54
920.86	8616.15
921.037	8704.21
921.214	8757.46
921.391	8603.86
921.568	9193.67
921.745	8708.3
921.922	8489.17
922.099	8421.59
922.276	9072.84
922.453	8714.45
922.63	8417.49
922.807	8698.06
922.984	8753.36
923.161	8315.09
923.338	8452.31
923.514	8177.88
923.691	8528.08
923.868	8638.67
924.045	8214.74
924.222	8222.94
924.399	8605.91
924.575	8706.26
924.752	8433.88
924.929	8151.26
925.105	8540.37
925.282	8224.98
925.459	7932.12
925.635	8171.74
925.812	8216.79
925.989	8028.38
926.165	7842.01
926.342	7782.62
926.518	7698.66
926.695	8034.52
926.871	7796.96
927.048	7735.52
927.224	8276.18
927.401	7835.87
927.577	7737.57
927.754	7524.58
927.93	8007.9
928.107	8114.39
928.283	7399.65
928.459	7803.1
928.636	7930.08
928.812	7733.47
928.988	7395.56
929.165	7403.75
929.341	7616.74
929.517	7704.8
929.693	7805.15
929.87	6998.25
930.046	7749.86
930.222	7418.08
930.398	7031.02
930.574	7221.48
930.751	7387.36
930.927	7358.69
931.103	7133.42
931.279	7137.51
931.455	7014.63
931.631	7293.16
931.807	6756.59
931.983	6828.27
932.159	6838.51
932.335	7037.16
932.511	6856.94
932.687	6619.38
932.863	7229.67
933.039	6902
933.215	6301.94
933.391	6480.11
933.566	6830.32
933.742	6744.3
933.918	6453.49
934.094	6226.17
934.27	6752.49
934.445	6754.54
934.621	6523.12
934.797	6168.82
934.973	6598.9
935.148	6303.99
935.324	6068.47
935.5	5800.19
935.675	6445.3
935.851	6232.31
936.027	5763.33
936.202	5771.52
936.378	6136.06
936.553	5914.88
936.729	5955.83
936.904	5230.85
937.08	5300.48
937.255	5378.31
937.431	5181.7
937.606	4858.12
937.782	5079.3
937.957	5200.13
938.133	5001.48
938.308	4878.6
938.483	5030.15
938.659	4602.13
938.834	4919.56
939.009	4499.73
939.185	4688.14
939.36	4438.29
939.535	3997.98
939.71	4434.19
939.886	4669.71
940.061	4548.88
940.236	4397.33
940.411	4161.81
940.586	4526.35
940.761	4454.67
940.937	4159.77
941.112	3752.22
941.287	4071.7
941.462	4079.9
941.637	3739.93
941.812	3887.39
941.987	4053.27
942.162	3920.15
942.337	3784.99
942.512	3592.48
942.687	4043.03
942.862	3991.83
943.037	3348.77
943.212	3266.85
943.386	3666.21
943.561	3641.63
943.736	3653.92
943.911	3735.84
944.086	3856.67
944.26	3846.43
944.435	3402.02
944.61	3498.27
944.785	3950.87
944.959	4014.36
945.134	3502.37
945.309	3293.48
945.483	3359.01
945.658	3784.99
945.833	3098.92
946.007	3260.71
946.182	4159.77
946.357	3424.55
946.531	3229.99
946.706	3412.26
946.88	3166.5
947.055	3723.55
947.229	3340.58
947.404	3150.12
947.578	3717.4
947.752	3418.4
947.927	3252.52
948.101	3070.25
948.276	3637.53
948.45	3617.05
948.624	3606.81
948.799	3447.07
948.973	3543.33
949.147	3268.9
949.321	3463.46
949.496	3559.71
949.67	3834.14
949.844	3584.29
950.018	3338.53
950.193	3438.88
950.367	4241.68
950.541	3610.91
950.715	3514.66
950.889	3598.62
951.063	3694.88
951.237	3676.45
951.411	3305.76
951.585	3223.84
951.759	3694.88
951.933	3604.77
952.107	3447.07
952.281	3508.51
952.455	3963.16
952.629	3840.28
952.803	3207.46
952.977	3273
953.151	3858.71
953.325	3682.59
953.499	3590.43
953.672	3215.65
953.846	3279.14
954.02	3557.66
954.194	3227.94
954.368	3309.86
954.541	3836.19
954.715	3418.4
954.889	3453.22
955.062	3215.65
955.236	3541.28
955.41	3387.68
955.583	3533.09
955.757	2988.33
955.93	3342.63
956.104	3346.72
956.278	3326.24
956.451	3385.63
956.625	3655.97
956.798	3948.83
956.972	3592.48
957.145	3168.55
957.319	3666.21
957.492	3424.55
957.665	3430.69
957.839	3283.24
958.012	3490.08
958.185	3453.22
958.359	3303.71
958.532	3496.22
958.705	3606.81
958.879	3436.83
959.052	3330.34
959.225	3184.93
959.398	3447.07
959.572	3473.7
959.745	3150.12
959.918	3111.21
960.091	3375.39
960.264	3619.1
960.438	3264.8
960.611	3115.3
960.784	3821.85
960.957	3301.67
961.13	3649.82
961.303	3178.79
961.476	3461.41
961.649	3526.94
961.822	3053.86
961.995	3238.18
962.168	3447.07
962.341	3467.55
962.514	3201.32
962.686	3137.83
962.859	3539.23
963.032	3438.88
963.205	3166.5
963.378	2998.57
963.551	3379.49
963.723	3477.79
963.896	3203.36
964.069	3215.65
964.242	3424.55
964.414	3528.99
964.587	3082.53
964.76	3197.22
964.932	3412.26
965.105	3229.99
965.278	3000.62
965.45	3049.77
965.623	3330.34
965.795	3512.61
965.968	3078.44
966.14	2996.52
966.313	3248.42
966.485	3246.37
966.658	2973.99
966.83	2961.7
967.003	3537.18
967.175	3576.09
967.348	3125.54
967.52	3111.21
967.692	3590.43
967.865	3399.97
968.037	3064.1
968.209	3334.43
968.382	3262.76
968.554	3422.5
968.726	3088.68
968.898	2984.23
969.071	3311.91
969.243	3514.66
969.415	2924.84
969.587	3119.4
969.759	3713.31
969.932	3483.94
970.104	3141.93
970.276	2654.51
970.448	3139.88
970.62	3146.02
970.792	3002.66
970.964	2937.13
971.136	3563.81
971.308	3238.18
971.48	2918.7
971.652	2922.79
971.824	3662.11
971.996	2988.33
972.168	2965.8
972.339	2992.42
972.511	3379.49
972.683	3006.76
972.855	3064.1
973.027	2973.99
973.199	3125.54
973.37	3361.06
973.542	3019.05
973.714	3041.57
973.886	3098.92
974.057	3346.72
974.229	2847.02
974.401	2806.06
974.572	2978.09
974.744	2644.27
974.915	2609.45
975.087	2824.49
975.259	3494.18
975.43	2986.28
975.602	2777.39
975.773	2748.72
975.945	2863.4
976.116	3174.69
976.288	2607.41
976.459	2994.47
976.63	2922.79
976.802	3021.1
976.973	2730.28
977.145	3049.77
977.316	3350.82
977.487	2959.66
977.659	2885.93
977.83	2683.18
978.001	3354.91
978.172	3070.25
978.344	2650.41
978.515	2648.36
978.686	3010.86
978.857	3299.62
979.028	2783.53
979.2	2660.65
979.371	3207.46
979.542	2838.83
979.713	2724.14
979.884	2382.13
980.055	2791.72
980.226	2842.92
980.397	2668.84
980.568	2646.32
980.739	3189.03
980.91	2824.49
981.081	2937.13
981.252	2595.12
981.423	3012.9
981.594	3150.12
981.765	2537.77
981.936	2709.8
982.106	2826.54
982.277	3041.57
982.448	2445.62
982.619	2795.82
982.79	2701.61
982.96	3033.38
983.131	2611.5
983.302	2369.84
983.472	2763.05
983.643	2984.23
983.814	2687.28
983.984	2599.21
984.155	2771.24
984.326	2978.09
984.496	2664.75
984.667	2472.24
984.837	2539.82
985.008	2988.33
985.178	2726.19
985.349	2537.77
985.519	2750.76
985.69	2488.62
985.86	2603.31
986.031	2378.03
986.201	2773.29
986.371	2881.83
986.542	2289.97
986.712	2335.03
986.882	2810.15
987.053	2758.96
987.223	2349.36
987.393	2548.01
987.563	2462
987.734	2855.21
987.904	2656.56
988.074	2355.51
988.244	2775.34
988.414	2623.79
988.585	2351.41
988.755	2439.47
988.925	2625.84
989.095	3021.1
989.265	2375.99
989.435	2439.47
989.605	2650.41
989.775	2668.84
989.945	2513.2
990.115	2158.9
990.285	2554.16
990.455	2638.13
990.625	2285.87
990.795	2171.19
990.965	2814.25
991.134	2300.21
991.304	2101.56
991.474	2163
991.644	2619.69
991.814	2822.44
991.984	2154.8
992.153	2259.25
992.323	2539.82
992.493	2449.71
992.662	2052.41
992.832	2347.31
993.002	2449.71
993.171	2451.76
993.341	1986.87
993.511	2265.39
993.68	2212.15
993.85	2607.41
994.019	1947.96
994.189	2058.55
994.358	2486.58
994.528	2363.7
994.697	1853.75
994.867	2011.45
995.036	2453.81
995.206	2224.44
995.375	1970.49
995.544	2175.28
995.714	2472.24
995.883	2347.31
996.052	2179.38
996.222	1841.47
996.391	2718
996.56	2357.55
996.73	1933.62
996.899	1859.9
997.068	2795.82
997.237	2310.45
997.406	1765.69
997.576	1808.7
997.745	2298.16
997.914	2181.43
998.083	1857.85
998.252	1878.33
998.421	2330.93
998.59	2074.93
998.759	1794.36
998.928	1788.22
999.097	2349.36
999.266	2285.87
999.435	2036.02
999.604	1808.7
999.773	2674.99
999.942	2175.28
1000.111	1769.79
1000.28	1751.35
1000.448	1954.1
1000.617	1913.14
1000.786	1923.38
1000.955	1665.34
1001.124	2079.03
1001.292	2771.24
1001.461	1929.53
1001.63	1757.5
1001.798	2439.47
1001.967	2396.46
1002.136	1665.34
1002.304	1734.97
1002.473	2175.28
1002.642	2025.78
1002.81	1749.31
1002.979	1728.83
1003.147	2150.71
1003.316	2505.01
1003.484	1745.21
1003.653	1618.24
1003.821	2240.82
1003.99	1943.86
1004.158	1827.13
1004.327	1820.99
1004.495	2136.37
1004.663	1726.78
1004.832	1728.83
1005	1421.63
1005.168	2050.36
1005.337	1931.58
1005.505	1503.55
1005.673	1884.47
1005.842	2064.69
1006.01	2130.23
1006.178	1534.27
1006.346	1608
1006.514	2101.56
1006.683	2113.85
1006.851	1474.88
1007.019	1401.15
1007.187	1708.35
1007.355	1505.6
1007.523	1345.86
1007.691	1462.59
1007.859	1614.14
1008.027	2165.04
1008.195	1579.33
1008.363	1360.19
1008.531	2040.12
1008.699	1708.35
1008.867	1384.77
1009.035	1556.8
1009.203	2130.23
1009.37	1833.27
1009.538	1401.15
1009.706	1896.76
1009.874	1866.04
1010.042	1648.96
1010.209	1319.23
1010.377	1503.55
1010.545	1915.19
1010.713	1794.36
1010.88	1407.3
1011.048	1554.75
1011.216	1622.33
1011.383	2175.28
1011.551	1429.82
1011.718	1356.1
1011.886	1851.71
1012.054	1712.44
1012.221	1323.33
1012.389	1335.62
1012.556	1706.3
1012.724	2150.71
1012.891	1493.31
1013.058	1225.03
1013.226	1952.06
1013.393	1960.25
1013.561	1278.27
1013.728	1222.98
1013.895	1866.04
1014.063	1741.11
1014.23	1179.97
1014.397	1194.31
1014.565	1866.04
1014.732	1517.89
1014.899	1296.71
1015.066	1163.59
1015.233	1716.54
1015.401	1759.55
1015.568	1317.19
1015.735	1343.81
1015.902	1579.33
1016.069	1669.44
1016.236	1202.5
1016.403	1231.17
1016.57	1368.38
1016.737	1673.53
1016.904	1298.75
1017.071	1122.63
1017.238	1356.1
1017.405	1782.07
1017.572	1231.17
1017.739	1347.9
1017.906	1743.16
1018.073	1876.28
1018.24	1032.52
1018.407	1319.23
1018.573	1882.42
1018.74	1372.48
1018.907	1171.78
1019.074	926.02
1019.241	1718.59
1019.407	1548.61
1019.574	1177.92
1019.741	942.41
1019.907	1524.03
1020.074	1575.23
1020.241	950.6
1020.407	987.46
1020.574	1511.74
1020.74	1696.06
1020.907	1186.12
1021.073	1020.23
1021.24	1857.85
1021.406	1876.28
1021.573	995.65
1021.739	1030.47
1021.906	1636.67
1022.072	1290.56
1022.239	987.46
1022.405	1030.47
1022.571	1511.74
1022.738	1198.4
1022.904	923.98
1023.07	1061.19
1023.237	1388.86
1023.403	1644.86
1023.569	1024.33
1023.735	1022.28
1023.902	1274.18
1024.068	1417.54
1024.234	872.78
1024.4	985.41
1024.566	1288.51
1024.732	1440.06
1024.898	932.17
1025.065	854.34
1025.231	1478.97
1025.397	1218.88
1025.563	979.27
1025.729	864.58
1025.895	801.1
1026.061	1069.38
1026.227	815.43
1026.392	880.97
1026.558	1446.21
1026.724	1487.17
1026.89	833.86
1027.056	885.06
1027.222	1431.87
1027.388	1071.43
1027.553	926.02
1027.719	852.3
1027.885	1679.68
1028.051	1415.49
1028.216	715.08
1028.382	874.82
1028.548	1311.04
1028.713	1003.85
1028.879	635.21
1029.045	962.89
1029.21	1399.1
1029.376	1491.26
1029.541	844.1
1029.707	842.06
1029.873	1311.04
1030.038	1317.19
1030.204	745.8
1030.369	821.58
1030.534	1311.04
1030.7	1134.92
1030.865	829.77
1031.031	637.26
1031.196	1298.75
1031.361	1175.88
1031.527	655.69
1031.692	643.4
1031.857	827.72
1032.023	1186.12
1032.188	647.5
1032.353	825.67
1032.518	1384.77
1032.684	1192.26
1032.849	588.11
1033.014	717.13
1033.179	1204.55
1033.344	1343.81
1033.509	878.92
1033.674	723.27
1033.839	1225.03
1034.004	1272.13
1034.17	708.94
1034.335	549.2
1034.5	1024.33
1034.664	866.63
1034.829	547.15
1034.994	661.84
1035.159	1106.24
1035.324	1257.79
1035.489	719.18
1035.654	688.46
1035.819	1308.99
1035.984	1059.14
1036.148	792.91
1036.313	614.73
1036.478	1231.17
1036.643	930.12
1036.807	598.35
1036.972	483.66
1037.137	1323.33
1037.301	1085.76
1037.466	350.54
1037.631	717.13
1037.795	1370.43
1037.96	1077.57
1038.124	833.86
1038.289	450.89
1038.454	1141.06
1038.618	1018.18
1038.783	581.96
1038.947	616.78
1039.111	989.51
1039.276	799.05
1039.44	481.61
1039.605	1087.81
1039.769	807.24
1039.933	887.11
1040.098	639.31
1040.262	860.49
1040.426	1194.31
1040.591	1087.81
1040.755	528.72
1040.919	620.88
1041.083	1096
1041.248	811.34
1041.412	323.92
1041.576	395.6
1041.74	774.47
1041.904	1091.91
1042.068	504.14
1042.232	567.63
1042.397	1114.44
1042.561	971.08
1042.725	391.5
1042.889	670.03
1043.053	1075.52
1043.217	946.5
1043.381	569.68
1043.544	305.49
1043.708	1042.76
1043.872	665.93
1044.036	170.32
1044.2	393.55
1044.364	1093.96
1044.528	1134.92
1044.691	5331.2
1044.855	356.69
1045.019	995.65
1045.183	1061.19
1045.346	424.27
1045.51	354.64
1045.674	958.79
1045.837	944.45
1046.001	385.36
1046.165	387.41
1046.328	1388.86
1046.492	889.16
1046.655	631.12
1046.819	561.48
1046.983	706.89
1047.146	926.02
1047.31	493.9
1047.473	237.91
1047.636	790.86
1047.8	516.43
1047.963	338.26
1048.127	409.94
1048.29	698.7
