Data from Ink_Intensity_USB4F045381__18__00018.txt Node

Date: Mon Jul 17 09:38:50 EDT 2023
User: mmckonesweet
Spectrometer: USB4F04538
Trigger mode: 4
Integration Time (sec): 9.000000E-1
Scans to average: 1
Electric dark correction enabled: true
Nonlinearity correction enabled: false
Boxcar width: 0
XAxis mode: Wavelengths
Number of Pixels in Spectrum: 3648
>>>>>Begin Spectral Data<<<<<
345.52	-872.26
345.736	-872.26
345.952	-872.26
346.168	-982.85
346.384	-907.08
346.6	-116.56
346.816	-317.26
347.032	-182.1
347.248	213.16
347.464	-114.52
347.68	-53.08
347.896	137.38
348.112	352.42
348.328	-65.36
348.544	-110.42
348.76	-10.07
348.975	266.41
349.191	-63.32
349.407	-155.47
349.623	53.42
349.839	-16.21
350.055	-83.8
350.27	137.38
350.486	184.49
350.702	381.09
350.918	141.48
351.133	-214.87
351.349	188.58
351.565	356.52
351.781	-194.39
351.996	61.61
352.212	350.37
352.428	-151.38
352.644	-165.71
352.859	-153.43
353.075	264.36
353.291	-110.42
353.506	-79.7
353.722	-116.56
353.938	-42.84
354.153	415.91
354.369	88.23
354.584	-159.57
354.8	202.92
355.016	-261.97
355.231	-235.35
355.447	-124.76
355.662	82.09
355.878	884.89
356.093	-270.16
356.309	-83.8
356.524	-257.87
356.74	227.5
356.955	-202.58
357.171	57.51
357.386	176.3
357.602	-145.24
357.817	14.51
358.033	-137.04
358.248	323.75
358.464	112.81
358.679	-32.6
358.895	-286.54
359.11	-42.84
359.325	397.48
359.541	276.65
359.756	57.51
359.972	-210.77
360.187	252.07
360.402	-141.14
360.618	-167.76
360.833	903.32
361.048	211.11
361.264	-188.24
361.479	22.7
361.694	-18.26
361.909	198.82
362.125	-167.76
362.34	-59.22
362.555	254.12
362.77	-30.55
362.986	-130.9
363.201	-85.84
363.416	172.2
363.631	41.13
363.847	-120.66
364.062	-145.24
364.277	172.2
364.492	131.24
364.707	-89.94
364.922	-270.16
365.138	233.64
365.353	297.13
365.568	-98.13
365.783	-182.1
365.998	55.47
366.213	589.99
366.428	-188.24
366.643	61.61
366.858	190.63
367.073	221.35
367.288	-89.94
367.503	-223.06
367.718	114.86
367.933	237.74
368.148	-202.58
368.363	-75.6
368.578	-69.46
368.793	428.2
369.008	-112.47
369.223	-218.96
369.438	200.87
369.653	471.2
369.868	-243.54
370.083	-188.24
370.298	75.95
370.513	422.05
370.728	26.79
370.943	-139.09
371.157	-151.38
371.372	508.07
371.587	-274.26
371.802	-167.76
372.017	92.33
372.232	420
372.446	30.89
372.661	-100.18
372.876	196.78
373.091	182.44
373.306	-3.93
373.52	-225.11
373.735	-135
373.95	360.61
374.165	-26.45
374.379	-132.95
374.594	-175.95
374.809	110.76
375.023	125.1
375.238	-167.76
375.453	258.21
375.667	-221.01
375.882	-87.89
376.097	-46.93
376.311	24.75
376.526	53.42
376.741	-225.11
376.955	157.86
377.17	546.98
377.384	446.63
377.599	-48.98
377.813	-114.52
378.028	544.93
378.242	129.19
378.457	-44.88
378.672	-315.22
378.886	118.95
379.101	12.46
379.315	-298.83
379.53	-126.8
379.744	61.61
379.958	151.72
380.173	-106.32
380.387	-126.8
380.602	108.71
380.816	-132.95
381.031	-102.23
381.245	-108.37
381.459	198.82
381.674	2527.36
381.888	-163.67
382.103	71.85
382.317	-171.86
382.531	499.88
382.746	-36.69
382.96	-130.9
383.174	-77.65
383.388	450.72
383.603	71.85
383.817	-223.06
384.031	207.02
384.246	471.2
384.46	61.61
384.674	276.65
384.888	61.61
385.103	57.51
385.317	-100.18
385.531	-1.88
385.745	268.45
385.959	317.61
386.174	-184.15
386.388	-204.63
386.602	71.85
386.816	-186.19
387.03	-10.07
387.244	-55.12
387.458	110.76
387.672	368.81
387.887	-218.96
388.101	-307.02
388.315	438.44
388.529	170.15
388.743	-51.03
388.957	-188.24
389.171	301.22
389.385	-245.59
389.599	-71.51
389.813	108.71
390.027	180.39
390.241	647.33
390.455	20.65
390.669	-53.08
390.883	4.27
391.097	256.17
391.311	110.76
391.525	-79.7
391.738	168.1
391.952	141.48
392.166	77.99
392.38	-175.95
392.594	278.69
392.808	336.04
393.022	6.31
393.236	-110.42
393.449	217.26
393.663	100.52
393.877	-147.28
394.091	-44.88
394.305	-83.8
394.518	-167.76
394.732	-261.97
394.946	-73.56
395.16	364.71
395.373	131.24
395.587	-124.76
395.801	-149.33
396.015	260.26
396.228	170.15
396.442	-180.05
396.656	-276.31
396.869	397.48
397.083	417.96
397.297	28.84
397.51	-108.37
397.724	381.09
397.938	215.21
398.151	-233.3
398.365	-141.14
398.578	192.68
398.792	350.37
399.005	32.94
399.219	-145.24
399.433	69.8
399.646	153.77
399.86	73.9
400.073	55.47
400.287	239.78
400.5	61.61
400.714	16.55
400.927	37.03
401.141	176.3
401.354	997.53
401.567	338.09
401.781	-157.52
401.994	346.28
402.208	481.44
402.421	-53.08
402.635	0.17
402.848	123.05
403.061	358.57
403.275	26.79
403.488	-151.38
403.701	473.25
403.915	147.62
404.128	22.7
404.341	-57.17
404.555	198.82
404.768	135.34
404.981	0.17
405.195	-118.61
405.408	522.4
405.621	237.74
405.834	104.62
406.048	-128.85
406.261	522.4
406.474	469.16
406.687	-98.13
406.9	69.8
407.114	55.47
407.327	139.43
407.54	-253.78
407.753	-270.16
407.966	-110.42
408.179	202.92
408.392	-192.34
408.605	-204.63
408.819	141.48
409.032	184.49
409.245	-114.52
409.458	71.85
409.671	161.96
409.884	268.45
410.097	-182.1
410.31	143.53
410.523	123.05
410.736	12.46
410.949	-77.65
411.162	-53.08
411.375	440.48
411.588	342.18
411.801	59.56
412.014	-149.33
412.227	65.71
412.44	16.55
412.653	-130.9
412.865	-20.31
413.078	200.87
413.291	180.39
413.504	41.13
413.717	-104.28
413.93	262.31
414.143	-67.41
414.356	-20.31
414.568	-212.82
414.781	317.61
414.994	45.23
415.207	-18.26
415.42	-59.22
415.632	288.93
415.845	546.98
416.058	-122.71
416.271	-225.11
416.483	151.72
416.696	553.12
416.909	-77.65
417.121	-98.13
417.334	305.32
417.547	503.97
417.759	-73.56
417.972	-128.85
418.185	-65.36
418.397	231.59
418.61	-34.64
418.823	-155.47
419.035	471.2
419.248	94.38
419.46	2.22
419.673	65.71
419.885	282.79
420.098	51.37
420.311	-53.08
420.523	-268.11
420.736	254.12
420.948	69.8
421.161	-75.6
421.373	-302.93
421.586	159.91
421.798	43.18
422.01	-173.91
422.223	47.27
422.435	-36.69
422.648	256.17
422.86	-85.84
423.073	-94.04
423.285	405.67
423.497	-218.96
423.71	-112.47
423.922	-130.9
424.134	276.65
424.347	448.68
424.559	116.9
424.771	215.21
424.984	57.51
425.196	213.16
425.408	-165.71
425.621	-165.71
425.833	299.17
426.045	413.86
426.257	-182.1
426.47	-38.74
426.682	192.68
426.894	264.36
427.106	-151.38
427.318	-98.13
427.531	26.79
427.743	258.21
427.955	-18.26
428.167	387.24
428.379	307.37
428.591	69.8
428.804	6.31
429.016	-141.14
429.228	53.42
429.44	164.01
429.652	147.62
429.864	-192.34
430.076	6.31
430.288	90.28
430.5	-28.5
430.712	63.66
430.924	426.15
431.136	164.01
431.348	-208.72
431.56	-91.99
431.772	145.58
431.984	28.84
432.196	-89.94
432.408	-46.93
432.62	63.66
432.832	303.27
433.044	147.62
433.256	77.99
433.468	245.93
433.679	-198.48
433.891	-145.24
434.103	104.62
434.315	506.02
434.527	299.17
434.739	55.47
434.95	-51.03
435.162	381.09
435.374	-106.32
435.586	45.23
435.798	-81.75
436.009	-87.89
436.221	28.84
436.433	-102.23
436.645	39.08
436.856	59.56
437.068	327.85
437.28	-114.52
437.491	194.73
437.703	198.82
437.915	164.01
438.126	-24.4
438.338	147.62
438.55	102.57
438.761	321.7
438.973	73.9
439.184	-3.93
439.396	104.62
439.608	350.37
439.819	-204.63
440.031	166.06
440.242	315.56
440.454	381.09
440.665	61.61
440.877	188.58
441.088	270.5
441.3	-46.93
441.511	-169.81
441.723	-77.65
441.934	260.26
442.146	129.19
442.357	147.62
442.569	243.88
442.78	202.92
442.991	522.4
443.203	250.02
443.414	-145.24
443.626	415.91
443.837	75.95
444.048	-151.38
444.26	-106.32
444.471	161.96
444.682	295.08
444.894	-227.15
445.105	-194.39
445.316	325.8
445.528	256.17
445.739	55.47
445.95	84.14
446.161	245.93
446.373	491.68
446.584	-38.74
446.795	-18.26
447.006	348.33
447.217	598.18
447.429	-100.18
447.64	-102.23
447.851	372.9
448.062	231.59
448.273	-223.06
448.484	10.41
448.695	366.76
448.907	65.71
449.118	67.75
449.329	225.45
449.54	59.56
449.751	-18.26
449.962	14.51
450.173	32.94
450.384	420
450.595	467.11
450.806	41.13
451.017	41.13
451.228	448.68
451.439	417.96
451.65	63.66
451.861	-225.11
452.072	61.61
452.283	84.14
452.494	229.54
452.705	-73.56
452.915	499.88
453.126	274.6
453.337	-32.6
453.548	-77.65
453.759	401.57
453.97	682.14
454.181	145.58
454.391	32.94
454.602	247.97
454.813	327.85
455.024	129.19
455.235	-14.17
455.445	325.8
455.656	381.09
455.867	219.3
456.078	-26.45
456.288	131.24
456.499	325.8
456.71	16.55
456.921	336.04
457.131	356.52
457.342	270.5
457.553	204.97
457.763	26.79
457.974	463.01
458.184	405.67
458.395	-8.02
458.606	-71.51
458.816	456.87
459.027	714.91
459.237	290.98
459.448	-128.85
459.659	557.22
459.869	757.92
460.08	-53.08
460.29	192.68
460.501	684.19
460.711	188.58
460.922	-48.98
461.132	8.36
461.343	864.41
461.553	-42.84
461.764	45.23
461.974	41.13
462.184	407.72
462.395	348.33
462.605	176.3
462.816	-8.02
463.026	223.4
463.236	567.46
463.447	102.57
463.657	127.14
463.867	528.55
464.078	243.88
464.288	88.23
464.498	37.03
464.709	319.65
464.919	252.07
465.129	172.2
465.339	51.37
465.55	319.65
465.76	583.84
465.97	153.77
466.18	90.28
466.391	438.44
466.601	377
466.811	207.02
467.021	32.94
467.231	393.38
467.441	616.61
467.651	239.78
467.862	-32.6
468.072	352.42
468.282	682.14
468.492	194.73
468.702	276.65
468.912	397.48
469.122	843.93
469.332	399.52
469.542	133.29
469.752	544.93
469.962	393.38
470.172	90.28
470.382	84.14
470.592	549.03
470.802	719.01
471.012	364.71
471.222	168.1
471.432	655.52
471.642	581.79
471.852	413.86
472.062	86.19
472.272	456.87
472.482	225.45
472.691	172.2
472.901	102.57
473.111	469.16
473.321	848.03
473.531	233.64
473.741	387.24
473.95	553.12
474.16	669.86
474.37	366.76
474.58	145.58
474.79	987.29
474.999	729.25
475.209	229.54
475.419	329.89
475.628	399.52
475.838	753.82
476.048	323.75
476.258	168.1
476.467	837.79
476.677	424.1
476.886	512.16
477.096	426.15
477.306	374.95
477.515	807.07
477.725	452.77
477.935	471.2
478.144	960.67
478.354	399.52
478.563	503.97
478.773	417.96
478.982	784.54
479.192	888.99
479.401	485.54
479.611	391.33
479.82	454.82
480.03	770.21
480.239	415.91
480.449	381.09
480.658	1044.63
480.868	458.92
481.077	546.98
481.287	493.73
481.496	788.64
481.705	1011.87
481.915	782.49
482.124	723.1
482.333	831.65
482.543	907.42
482.752	614.56
482.961	522.4
483.171	942.24
483.38	692.38
483.589	598.18
483.799	456.87
484.008	702.62
484.217	1038.49
484.426	630.95
484.636	397.48
484.845	839.84
485.054	516.26
485.263	790.69
485.472	592.03
485.682	1138.84
485.891	862.37
486.1	448.68
486.309	612.51
486.518	977.05
486.727	1157.27
486.936	622.75
487.146	819.36
487.355	1249.43
487.564	661.66
487.773	737.44
487.982	725.15
488.191	667.81
488.4	946.33
488.609	737.44
488.818	766.11
489.027	1478.8
489.236	1333.4
489.445	696.48
489.654	694.43
489.863	1142.94
490.072	981.15
490.281	1024.16
490.49	727.2
490.698	1353.88
490.907	1288.34
491.116	774.3
491.325	647.33
491.534	1284.25
491.743	1138.84
491.952	915.61
492.16	860.32
492.369	1161.37
492.578	1196.18
492.787	956.57
492.996	632.99
493.204	878.75
493.413	1482.9
493.622	682.14
493.831	622.75
494.039	1333.4
494.248	850.08
494.457	780.45
494.665	743.58
494.874	1265.82
495.083	1564.82
495.291	944.28
495.5	899.23
495.709	1317.01
495.917	1257.62
496.126	1030.3
496.335	929.95
496.543	1114.27
496.752	1247.38
496.96	1190.04
497.169	831.65
497.377	1155.23
497.586	1417.37
497.794	1085.59
498.003	790.69
498.211	1110.17
498.42	1648.79
498.628	985.24
498.837	839.84
499.045	1407.13
499.254	1386.65
499.462	1056.92
499.671	1163.42
499.879	1530
500.087	1466.52
500.296	991.39
500.504	1032.35
500.713	1327.25
500.921	1829.01
501.129	1079.45
501.338	1097.88
501.546	1409.17
501.754	1331.35
501.962	1181.85
502.171	1116.31
502.379	1478.8
502.587	1769.62
502.795	1208.47
503.004	1091.74
503.212	1427.6
503.42	1620.11
503.628	1134.75
503.837	1204.38
504.045	1599.63
504.253	1837.2
504.461	1181.85
504.669	1130.65
504.877	1484.95
505.085	1734.8
505.294	1011.87
505.502	1460.37
505.71	1390.74
505.918	1656.98
506.126	1151.13
506.334	1153.18
506.542	1339.54
506.75	1429.65
506.958	1302.68
507.166	1364.12
507.374	1333.4
507.582	1884.3
507.79	1466.52
507.998	1196.18
508.206	1607.83
508.414	1499.28
508.622	1323.16
508.83	1403.03
509.037	1937.55
509.245	1517.72
509.453	1251.48
509.661	1263.77
509.869	1671.31
510.077	1396.89
510.285	1484.95
510.492	956.57
510.7	2160.78
510.908	1437.84
511.116	1372.31
511.324	1396.89
511.531	1487
511.739	1640.59
511.947	1601.68
512.155	1613.97
512.362	1642.64
512.57	1321.11
512.778	1380.5
512.985	1382.55
513.193	1847.44
513.401	1937.55
513.608	1413.27
513.816	1437.84
514.024	1792.14
514.231	1980.56
514.439	1495.19
514.646	1493.14
514.854	1972.36
515.061	1982.6
515.269	1480.85
515.477	1487
515.684	1530
515.892	2027.66
516.099	1321.11
516.307	1351.83
516.514	2011.28
516.722	2113.67
516.929	1622.16
517.136	1392.79
517.344	2031.76
517.551	1812.62
517.759	1489.04
517.966	1624.21
518.173	1728.66
518.381	1890.45
518.588	1745.04
518.796	1421.46
519.003	2078.86
519.21	1742.99
519.418	1675.41
519.625	1912.97
519.832	1851.53
520.039	1917.07
520.247	1525.91
520.454	1566.87
520.661	2064.52
520.868	2033.8
521.076	1618.07
521.283	1734.8
521.49	2521.22
521.697	2150.54
521.904	1671.31
522.112	1685.65
522.319	2060.43
522.526	1890.45
522.733	1679.51
522.94	1687.7
523.147	1935.5
523.354	2107.53
523.561	1534.1
523.768	1880.21
523.975	2220.17
524.183	1968.27
524.39	1929.36
524.597	1747.09
524.804	1935.5
525.011	1841.29
525.218	1726.61
525.425	1716.37
525.632	2400.39
525.838	1818.77
526.045	1863.82
526.252	1722.51
526.459	2953.34
526.666	2885.76
526.873	1829.01
527.08	1851.53
527.287	2371.72
527.494	2324.62
527.701	1829.01
527.907	1693.84
528.114	2316.42
528.321	2142.35
528.528	1915.02
528.735	1837.2
528.941	2091.15
529.148	1925.26
529.355	2142.35
529.562	1798.29
529.768	2431.11
529.975	2070.67
530.182	1986.7
530.388	1898.64
530.595	2365.57
530.802	2046.09
531.008	2207.88
531.215	1900.69
531.422	2779.26
531.628	2928.77
531.835	2154.63
532.042	1972.36
532.248	2080.91
532.455	2334.86
532.661	1994.89
532.868	2078.86
533.074	2355.33
533.281	2535.56
533.487	2201.74
533.694	2027.66
533.9	2023.56
534.107	2486.4
534.313	2060.43
534.52	2152.59
534.726	2543.75
534.933	2707.59
535.139	1978.51
535.345	2142.35
535.552	2463.88
535.758	2404.49
535.965	2029.71
536.171	2189.45
536.377	2674.82
536.584	2793.6
536.79	2218.12
536.996	2281.61
537.203	2578.56
537.409	2531.46
537.615	2236.55
537.821	2220.17
538.028	2650.24
538.234	2699.39
538.44	2300.04
538.646	2457.73
538.853	2625.67
539.059	2381.96
539.265	2660.48
539.471	2132.11
539.677	2848.9
539.883	2414.73
540.09	2365.57
540.296	2703.49
540.502	2474.12
540.708	2390.15
540.914	2572.42
541.12	2384.01
541.326	2750.59
541.532	2586.76
541.738	2504.84
541.944	2437.25
542.15	2893.95
542.356	2582.66
542.562	2326.66
542.768	2447.49
542.974	3111.04
543.18	3068.03
543.386	2396.29
543.592	2386.05
543.798	2967.68
544.004	2889.85
544.21	2535.56
544.415	2658.43
544.621	2789.5
544.827	2992.25
545.033	2320.52
545.239	2693.25
545.445	2539.65
545.651	2637.95
545.856	2568.32
546.062	2568.32
546.268	2631.81
546.474	2934.91
546.679	2588.8
546.885	2683.01
547.091	2666.63
547.297	3143.8
547.502	2646.15
547.708	2478.21
547.914	2646.15
548.119	3100.8
548.325	2332.81
548.531	2601.09
548.736	3154.04
548.942	2656.39
549.147	2613.38
549.353	2752.64
549.559	3074.17
549.764	3035.26
549.97	2658.43
550.175	2818.18
550.381	3098.75
550.586	2793.6
550.792	2723.97
550.997	2805.89
551.203	3037.31
551.408	3137.66
551.614	2640
551.819	2764.93
552.025	3264.63
552.23	3494.01
552.435	2730.11
552.641	3057.79
552.846	2857.09
553.052	3346.55
553.257	3008.64
553.462	2822.27
553.668	2951.29
553.873	3442.81
554.078	2936.96
554.283	2760.83
554.489	3195
554.694	3147.9
554.899	2717.83
555.105	3092.6
555.31	3211.39
555.515	3387.51
555.72	3055.74
555.925	2896
556.131	3442.81
556.336	3051.64
556.541	2898.05
556.746	2842.75
556.951	3434.61
557.156	3547.25
557.361	3160.19
557.567	3240.06
557.772	3620.98
557.977	3270.78
558.182	3063.93
558.387	3008.64
558.592	3106.94
558.797	3641.46
559.002	3037.31
559.207	3180.67
559.412	3297.4
559.617	3797.1
559.822	3086.46
560.027	3029.12
560.232	3358.84
560.437	3590.26
560.642	2951.29
560.847	3022.97
561.051	3307.64
561.256	3375.22
561.461	3223.67
561.666	2992.25
561.871	3430.52
562.076	3455.09
562.281	3235.96
562.485	2979.97
562.69	3410.04
562.895	3805.3
563.1	3207.29
563.305	3096.7
563.509	3760.24
563.714	3962.99
563.919	3172.47
564.123	3278.97
564.328	3496.05
564.533	3661.94
564.737	3324.02
564.942	3129.47
565.147	3965.04
565.351	4053.1
565.556	3172.47
565.761	3405.94
565.965	3537.01
566.17	3262.58
566.374	3344.5
566.579	3127.42
566.784	3543.16
566.988	3420.28
567.193	3291.26
567.397	3328.12
567.602	3324.02
567.806	3612.79
568.011	3293.3
568.215	3367.03
568.42	3608.69
568.624	3514.49
568.828	3399.8
569.033	3668.08
569.237	3711.09
569.442	3715.19
569.646	3229.82
569.85	3375.22
570.055	3600.5
570.259	3696.75
570.463	3645.56
570.668	3510.39
570.872	3721.33
571.076	3399.8
571.281	3758.19
571.485	3684.47
571.689	3709.04
571.893	3696.75
572.098	3577.97
572.302	3526.77
572.506	3811.44
572.71	3668.08
572.914	3448.95
573.119	3500.15
573.323	4204.65
573.527	4089.96
573.731	3477.62
573.935	3475.57
574.139	3784.82
574.343	3588.21
574.547	3561.59
574.751	3876.98
574.955	4128.88
575.159	4151.4
575.364	3588.21
575.568	3600.5
575.772	3793.01
575.976	4135.02
576.18	3602.55
576.383	3541.11
576.587	4259.95
576.791	3838.06
576.995	3553.4
577.199	3530.87
577.403	4141.16
577.607	4159.6
577.811	3717.23
578.015	3879.02
578.219	4126.83
578.422	4055.15
578.626	3852.4
578.83	3833.97
579.034	4257.9
579.238	3997.81
579.442	3801.2
579.645	4208.75
579.849	4003.95
580.053	4182.12
580.257	3815.54
580.46	3879.02
580.664	4395.11
580.868	4061.29
581.071	3975.28
581.275	4049
581.479	3891.31
581.682	4255.85
581.886	3932.27
582.09	3993.71
582.293	4366.44
582.497	4264.04
582.7	4239.47
582.904	3956.85
583.107	4194.41
583.311	4206.7
583.515	4053.1
583.718	4147.31
583.922	4261.99
584.125	4534.37
584.329	3946.61
584.532	4190.31
584.735	4591.72
584.939	4348.01
585.142	3766.39
585.346	3969.13
585.549	4493.41
585.753	4196.46
585.956	4190.31
586.159	4245.61
586.363	4751.46
586.566	4511.85
586.769	4061.29
586.973	4102.25
587.176	4503.65
587.379	4667.49
587.582	4618.34
587.786	4341.86
587.989	4431.98
588.192	5019.74
588.395	4261.99
588.599	4382.82
588.802	4534.37
589.005	4470.89
589.208	4354.15
589.411	4452.45
589.615	4741.22
589.818	4892.77
590.021	4517.99
590.224	4431.98
590.427	4733.03
590.63	4839.52
590.833	4137.07
591.036	4337.77
591.239	4608.1
591.442	4460.65
591.645	4546.66
591.848	4284.52
592.051	4585.57
592.254	4898.91
592.457	4374.63
592.66	4546.66
592.863	4628.58
593.066	4872.29
593.269	4425.83
593.472	4612.2
593.675	4534.37
593.878	4880.48
594.081	4630.63
594.284	4397.16
594.486	4853.86
594.689	4653.16
594.892	4653.16
595.095	4620.39
595.298	4933.73
595.5	4505.7
595.703	4841.57
595.906	4710.5
596.109	5247.07
596.311	5124.19
596.514	4311.14
596.717	4548.71
596.92	4931.68
597.122	4956.26
597.325	4563.05
597.528	4667.49
597.73	5197.92
597.933	4849.76
598.136	4575.33
598.338	4431.98
598.541	5011.55
598.743	5130.33
598.946	4823.14
599.148	4700.26
599.351	5165.15
599.554	5247.07
599.756	4831.33
599.959	4778.08
600.161	5175.39
600.363	5546.07
600.566	5027.93
600.768	4608.1
600.971	5466.2
601.173	5111.9
601.376	4790.37
601.578	4847.71
601.78	5242.97
601.983	5480.54
602.185	4706.4
602.388	4939.87
602.59	5148.76
602.792	5017.69
602.995	5165.15
603.197	4733.03
603.399	5363.8
603.601	5335.13
603.804	4927.58
604.006	4921.44
604.208	4966.49
604.41	4765.79
604.613	5118.04
604.815	4962.4
605.017	5877.84
605.219	4972.64
605.421	5128.28
605.623	5015.65
605.826	5490.77
606.028	5371.99
606.23	4853.86
606.432	4929.63
606.634	5697.62
606.836	5681.24
607.038	4878.43
607.24	5163.1
607.442	5245.02
607.644	5161.05
607.846	5230.68
608.048	4958.3
608.25	5437.53
608.452	5218.4
608.654	5023.84
608.856	4925.54
609.058	5224.54
609.26	5361.75
609.462	5281.88
609.664	5173.34
609.866	5742.68
610.067	5478.49
610.269	5191.77
610.471	5060.7
610.673	5310.55
610.875	5462.1
611.077	4948.06
611.278	5142.62
611.48	5517.4
611.682	5820.5
611.884	5148.76
612.085	5068.89
612.287	5208.16
612.489	5429.34
612.69	4968.54
612.892	5267.55
613.094	5685.33
613.295	5513.3
613.497	5154.91
613.699	5163.1
613.9	5779.54
614.102	5615.7
614.304	5394.52
614.505	5070.94
614.707	5496.92
614.908	5515.35
615.11	5013.6
615.311	5326.94
615.513	5546.07
615.714	5648.47
615.916	5085.28
616.117	5333.08
616.319	5447.77
616.52	5685.33
616.722	5345.37
616.923	5404.76
617.124	5734.48
617.326	5599.32
617.527	5410.9
617.729	5521.49
617.93	5650.52
618.131	5789.78
618.333	5179.48
618.534	5345.37
618.735	5408.86
618.937	5929.04
619.138	5316.7
619.339	5242.97
619.54	5615.7
619.742	5427.29
619.943	5402.71
620.144	5533.78
620.345	5627.99
620.546	5785.68
620.748	5466.2
620.949	5398.62
621.15	5820.5
621.351	5951.57
621.552	5441.62
621.753	5214.3
621.954	5429.34
622.155	6125.65
622.356	5288.03
622.558	5673.04
622.759	5722.2
622.96	6164.56
623.161	5349.47
623.362	5607.51
623.563	5732.44
623.764	5689.43
623.965	5699.67
624.166	5840.98
624.366	5810.26
624.567	5951.57
624.768	5388.38
624.969	5576.79
625.17	5761.11
625.371	5879.89
625.572	5611.61
625.773	5294.17
625.973	6058.06
626.174	5892.18
626.375	5673.04
626.576	5619.8
626.777	5994.58
626.977	6244.43
627.178	5625.94
627.379	5861.46
627.58	5881.94
627.78	5980.24
627.981	5711.96
628.182	5757.01
628.382	6144.08
628.583	5634.13
628.784	5537.88
628.984	5597.27
629.185	6082.64
629.386	5922.9
629.586	5826.64
629.787	5621.84
629.987	6125.65
630.188	5859.41
630.388	5898.32
630.589	5765.2
630.79	6617.16
630.99	5902.42
631.191	5679.19
631.391	5912.66
631.591	6244.43
631.792	6459.46
631.992	6213.71
632.193	5916.75
632.393	6346.83
632.594	5992.53
632.794	5812.31
632.994	5939.28
633.195	5959.76
633.395	6051.92
633.595	5875.79
633.796	6037.58
633.996	6033.49
634.196	6326.35
634.397	5779.54
634.597	5937.23
634.797	5906.51
634.997	6379.59
635.198	5937.23
635.398	5707.86
635.598	6191.18
635.798	6355.02
635.998	6230.09
636.199	6109.26
636.399	6107.21
636.599	5886.03
636.799	5791.83
636.999	6279.24
637.199	6049.87
637.399	6584.39
637.599	6148.17
637.799	6197.32
637.999	6195.28
638.199	6641.73
638.399	5875.79
638.599	5935.18
638.799	6314.06
638.999	6684.74
639.199	6199.37
639.399	6207.56
639.599	6625.35
639.799	5980.24
639.999	5961.81
640.199	6072.4
640.399	6426.7
640.599	6160.46
640.799	6258.76
640.998	6326.35
641.198	6608.97
641.398	6303.82
641.598	6455.37
641.798	6113.36
641.997	7241.79
642.197	6248.52
642.397	6133.84
642.597	6238.28
642.796	6402.12
642.996	6637.64
643.196	6068.3
643.395	6127.69
643.595	6486.09
643.795	6189.13
643.994	6195.28
644.194	6211.66
644.394	6639.69
644.593	6557.77
644.793	6002.77
644.992	6406.22
645.192	6561.86
645.392	6152.27
645.591	6385.74
645.791	6271.05
645.99	6451.27
646.19	6461.51
646.389	6449.22
646.589	6418.5
646.788	6563.91
646.987	6643.78
647.187	6436.94
647.386	6514.76
647.586	6717.51
647.785	6934.59
647.984	6342.73
648.184	6355.02
648.383	6631.49
648.582	6508.62
648.782	6301.77
648.981	6676.55
649.18	6445.13
649.38	6965.31
649.579	6529.1
649.778	6373.45
649.977	6856.77
650.177	6793.28
650.376	6254.67
650.575	6312.01
650.774	7065.66
650.973	6490.18
651.173	6299.72
651.372	6514.76
651.571	6699.08
651.77	7014.46
651.969	6467.66
652.168	6742.08
652.367	6592.58
652.566	6934.59
652.765	6520.9
652.964	6719.56
653.163	7327.8
653.362	6752.32
653.561	6443.08
653.76	6516.81
653.959	6588.49
654.158	6836.29
654.357	6731.84
654.556	6531.14
654.755	7088.19
654.954	7090.24
655.153	6660.17
655.352	6699.08
655.551	7192.64
655.749	6701.12
655.948	6578.25
656.147	6819.91
656.346	6932.54
656.545	6723.65
656.743	6699.08
656.942	6666.31
657.141	6838.34
657.34	6643.78
657.538	6543.43
657.737	6758.47
657.936	6772.8
658.135	6934.59
658.333	6762.56
658.532	6801.47
658.731	7477.3
658.929	6963.26
659.128	7092.29
659.326	6725.7
659.525	7313.47
659.724	6959.17
659.922	6502.47
660.121	6596.68
660.319	6895.68
660.518	6758.47
660.716	6654.02
660.915	6748.23
661.113	7417.91
661.312	6772.8
661.51	7186.49
661.709	6619.21
661.907	7129.15
662.105	7503.93
662.304	6721.6
662.502	6963.26
662.701	7452.73
662.899	7024.7
663.097	7123.01
663.296	6633.54
663.494	7360.57
663.692	7352.38
663.891	6643.78
664.089	6744.13
664.287	7104.57
664.485	7415.87
664.684	6862.91
664.882	7108.67
665.08	7159.87
665.278	7155.77
665.476	6824
665.675	7252.03
665.873	7596.09
666.071	7415.87
666.269	6930.5
666.467	7239.74
666.665	7252.03
666.863	7039.04
667.061	7299.13
667.259	7149.63
667.457	7082.05
667.655	7366.71
667.853	6676.55
668.051	7256.12
668.249	6838.34
668.447	7030.85
668.645	6936.64
668.843	7014.46
669.041	7198.78
669.239	7020.61
669.437	7080
669.635	6920.26
669.833	7245.88
670.031	7266.36
670.229	7071.81
670.426	7032.9
670.624	6934.59
670.822	7102.53
671.02	7098.43
671.218	7016.51
671.415	6805.57
671.613	7309.37
671.811	7047.23
672.009	7090.24
672.206	7446.59
672.404	7352.38
672.602	7266.36
672.799	7145.53
672.997	7366.71
673.195	7462.97
673.392	7071.81
673.59	6930.5
673.788	7526.46
673.985	6729.8
674.183	7268.41
674.38	7016.51
674.578	7426.11
674.775	7075.9
674.973	6969.41
675.17	7024.7
675.368	7417.91
675.565	7399.48
675.763	6969.41
675.96	7057.47
676.158	7538.74
676.355	7186.49
676.553	7094.33
676.75	7239.74
676.947	7211.07
677.145	7061.57
677.342	7190.59
677.539	7174.21
677.737	7327.8
677.934	7708.73
678.131	7307.32
678.329	6987.84
678.526	7536.7
678.723	7602.23
678.92	7262.27
679.118	7014.46
679.315	7153.73
679.512	7497.78
679.709	7184.45
679.906	7209.02
680.104	7551.03
680.301	7659.57
680.498	6811.71
680.695	7030.85
680.892	7170.11
681.089	7202.88
681.286	7219.26
681.483	6856.77
681.68	7532.6
681.877	7473.21
682.075	7028.8
682.272	7401.53
682.469	7260.22
682.665	7166.01
682.862	7045.18
683.059	7155.77
683.256	7266.36
683.453	7321.66
683.65	7161.92
683.847	7190.59
684.044	7262.27
684.241	7026.75
684.438	7432.25
684.635	7118.91
684.831	7620.66
685.028	7823.41
685.225	7112.77
685.422	7133.25
685.619	7403.58
685.815	7503.93
686.012	7237.69
686.209	7213.12
686.405	7127.1
686.602	7501.88
686.799	6848.58
686.996	6961.22
687.192	7012.42
687.389	7618.61
687.586	7141.44
687.782	7176.25
687.979	7790.64
688.175	7692.34
688.372	7163.97
688.568	7202.88
688.765	7043.14
688.962	7557.18
689.158	7192.64
689.355	6942.78
689.551	7538.74
689.748	7276.6
689.944	7186.49
690.14	6957.12
690.337	7379
690.533	7278.65
690.73	7229.5
690.926	7370.81
691.123	7516.22
691.319	7204.92
691.515	7217.21
691.712	7131.2
691.908	7397.43
692.104	7458.87
692.301	7262.27
692.497	7118.91
692.693	7585.85
692.889	7725.11
693.086	7102.53
693.282	6850.63
693.478	7217.21
693.674	7635
693.87	7268.41
694.067	7047.23
694.263	7295.04
694.459	7192.64
694.655	7419.96
694.851	7317.56
695.047	7350.33
695.243	7573.56
695.439	7458.87
695.635	6977.6
695.831	7559.22
696.027	7155.77
696.224	7039.04
696.42	7368.76
696.615	7651.38
696.811	7542.84
697.007	7077.95
697.203	7221.31
697.399	7352.38
697.595	7743.54
697.791	7071.81
697.987	7272.51
698.183	7217.21
698.379	7135.29
698.575	7176.25
698.77	7178.3
698.966	7432.25
699.162	7606.33
699.358	7186.49
699.554	7030.85
699.749	7333.95
699.945	7422.01
700.141	7102.53
700.337	7262.27
700.532	7460.92
700.728	7098.43
700.924	7071.81
701.119	7088.19
701.315	7123.01
701.511	7282.75
701.706	7432.25
701.902	6936.64
702.097	7274.56
702.293	7362.62
702.489	7174.21
702.684	7157.82
702.88	7118.91
703.075	7247.93
703.271	7213.12
703.466	7192.64
703.662	7305.28
703.857	7333.95
704.053	7196.73
704.248	6926.4
704.443	7411.77
704.639	7333.95
704.834	7309.37
705.03	7104.57
705.225	7716.92
705.42	7594.04
705.616	7284.8
705.811	6955.07
706.006	7118.91
706.202	7467.06
706.397	7303.23
706.592	7135.29
706.787	7473.21
706.983	7360.57
707.178	7434.3
707.373	7221.31
707.568	7508.02
707.763	7503.93
707.959	7096.38
708.154	7182.4
708.349	7282.75
708.544	7561.27
708.739	7215.16
708.934	7082.05
709.129	7522.36
709.324	7551.03
709.519	7034.94
709.714	7100.48
709.909	7704.63
710.104	7198.78
710.299	7303.23
710.494	7352.38
710.689	7520.31
710.884	7200.83
711.079	7229.5
711.274	7407.67
711.469	7516.22
711.664	7292.99
711.859	7112.77
712.054	7297.08
712.249	7376.95
712.443	7487.54
712.638	7088.19
712.833	6959.17
713.028	7073.85
713.223	7245.88
713.417	7354.43
713.612	7153.73
713.807	7538.74
714.002	7893.04
714.196	7268.41
714.391	7184.45
714.586	7436.35
714.78	7272.51
714.975	7206.97
715.17	7184.45
715.364	7268.41
715.559	7497.78
715.754	6895.68
715.948	7082.05
716.143	7770.16
716.337	7426.11
716.532	7467.06
716.726	7180.35
716.921	7432.25
717.115	7721.01
717.31	7125.05
717.504	7522.36
717.699	7166.01
717.893	7542.84
718.088	6967.36
718.282	7061.57
718.476	7305.28
718.671	7432.25
718.865	7082.05
719.059	7192.64
719.254	7170.11
719.448	7538.74
719.642	7092.29
719.837	6854.72
720.031	7454.78
720.225	7499.83
720.419	7252.03
720.614	6930.5
720.808	7430.2
721.002	7178.3
721.196	7049.28
721.39	7020.61
721.585	7585.85
721.779	7243.84
721.973	7069.76
722.167	6916.16
722.361	7256.12
722.555	7485.5
722.749	6975.55
722.943	7004.22
723.137	6905.92
723.331	7196.73
723.525	7118.91
723.719	7024.7
723.913	7307.32
724.107	7643.19
724.301	6895.68
724.495	7118.91
724.689	7321.66
724.883	7544.89
725.077	7288.89
725.271	6889.54
725.465	7338.04
725.659	7170.11
725.853	6991.94
726.046	6991.94
726.24	6942.78
726.434	7348.28
726.628	7018.56
726.822	7010.37
727.015	7585.85
727.209	7409.72
727.403	7350.33
727.596	6881.35
727.79	7462.97
727.984	7526.46
728.177	7133.25
728.371	7039.04
728.565	7381.05
728.758	7004.22
728.952	7049.28
729.146	7254.08
729.339	7557.18
729.533	7270.46
729.726	7043.14
729.92	7073.85
730.113	7559.22
730.307	7227.45
730.5	7149.63
730.694	7047.23
730.887	7239.74
731.081	7370.81
731.274	6944.83
731.468	7069.76
731.661	7178.3
731.854	7135.29
732.048	7055.42
732.241	6993.98
732.435	7137.34
732.628	7206.97
732.821	7063.61
733.014	7143.49
733.208	6893.63
733.401	7450.68
733.594	6934.59
733.788	7086.14
733.981	7544.89
734.174	7479.35
734.367	7028.8
734.56	7190.59
734.754	7587.89
734.947	7288.89
735.14	7163.97
735.333	7217.21
735.526	7323.71
735.719	7188.54
735.912	7039.04
736.105	7186.49
736.298	7262.27
736.491	7039.04
736.684	6973.5
736.877	7030.85
737.07	7237.69
737.263	7417.91
737.456	6998.08
737.649	6934.59
737.842	7170.11
738.035	7157.82
738.228	7219.26
738.421	7209.02
738.614	7299.13
738.807	7254.08
739	6737.99
739.192	6869.06
739.385	7338.04
739.578	7335.99
739.771	7252.03
739.964	6998.08
740.156	7297.08
740.349	7180.35
740.542	7434.3
740.735	6869.06
740.927	7041.09
741.12	6914.11
741.313	6901.83
741.505	7016.51
741.698	7278.65
741.891	7348.28
742.083	7155.77
742.276	7084.09
742.468	7307.32
742.661	7188.54
742.854	7139.39
743.046	7127.1
743.239	7718.96
743.431	7241.79
743.624	7125.05
743.816	6907.97
744.009	7209.02
744.201	7411.77
744.393	7440.44
744.586	7088.19
744.778	7389.24
744.971	7233.6
745.163	7026.75
745.355	7088.19
745.548	7209.02
745.74	7127.1
745.932	7139.39
746.125	7159.87
746.317	7696.44
746.509	7153.73
746.702	7241.79
746.894	7249.98
747.086	7176.25
747.278	7614.52
747.471	7127.1
747.663	7135.29
747.855	7241.79
748.047	7688.25
748.239	6983.74
748.431	6959.17
748.623	7602.23
748.815	7440.44
749.008	6905.92
749.2	7125.05
749.392	7432.25
749.584	7182.4
749.776	7159.87
749.968	7098.43
750.16	7475.26
750.352	7213.12
750.544	7069.76
750.736	6981.7
750.928	7274.56
751.12	7123.01
751.311	6961.22
751.503	6953.02
751.695	7276.6
751.887	7295.04
752.079	6805.57
752.271	6912.07
752.463	7874.61
752.654	7321.66
752.846	6993.98
753.038	6871.11
753.23	6957.12
753.421	7307.32
753.613	6910.02
753.805	7018.56
753.997	7331.9
754.188	7372.86
754.38	6948.93
754.572	6946.88
754.763	7127.1
754.955	7292.99
755.146	6930.5
755.338	7024.7
755.53	7331.9
755.721	6930.5
755.913	6830.15
756.104	6776.9
756.296	7022.66
756.487	7409.72
756.679	6914.11
756.87	6961.22
757.062	6826.05
757.253	7374.91
757.445	6873.15
757.636	6889.54
757.827	7221.31
758.019	7524.41
758.21	6801.47
758.401	6838.34
758.593	7405.63
758.784	7483.45
758.975	6813.76
759.167	6699.08
759.358	7094.33
759.549	7348.28
759.74	6887.49
759.932	6832.19
760.123	7282.75
760.314	6776.9
760.505	6948.93
760.696	6983.74
760.888	7510.07
761.079	6852.67
761.27	6772.8
761.461	6676.55
761.652	7481.4
761.843	6924.35
762.034	6936.64
762.225	6895.68
762.416	7043.14
762.607	7067.71
762.798	6756.42
762.989	6740.04
763.18	7788.6
763.371	6938.69
763.562	6928.45
763.753	6838.34
763.944	7231.55
764.135	7151.68
764.326	6914.11
764.517	6834.24
764.708	7108.67
764.899	6836.29
765.089	6737.99
765.28	6420.55
765.471	7016.51
765.662	6785.09
765.853	6754.37
766.043	6455.37
766.234	7108.67
766.425	6967.36
766.615	6737.99
766.806	6592.58
766.997	7209.02
767.187	6897.73
767.378	6500.42
767.569	6279.24
767.759	6781
767.95	6877.25
768.141	6852.67
768.331	6766.66
768.522	6721.6
768.712	6996.03
768.903	6660.17
769.093	6811.71
769.284	7307.32
769.474	6789.19
769.665	6434.89
769.855	6293.58
770.046	7012.42
770.236	6758.47
770.426	6770.76
770.617	6434.89
770.807	6744.13
770.998	6719.56
771.188	6676.55
771.378	6475.85
771.569	6901.83
771.759	7059.52
771.949	6504.52
772.139	6314.06
772.33	6682.69
772.52	7131.2
772.71	6490.18
772.9	6316.11
773.09	7141.44
773.281	7118.91
773.471	6402.12
773.661	6408.26
773.851	6963.26
774.041	6533.19
774.231	6469.7
774.421	6707.27
774.611	6987.84
774.802	6633.54
774.992	6438.98
775.182	6393.93
775.372	6611.01
775.562	6602.82
775.752	6471.75
775.942	6418.5
776.131	6912.07
776.321	6748.23
776.511	6504.52
776.701	6269
776.891	6627.4
777.081	6379.59
777.271	6340.68
777.461	6287.43
777.651	6725.7
777.84	6811.71
778.03	6412.36
778.22	6299.72
778.41	6781
778.599	6289.48
778.789	6346.83
778.979	6410.31
779.169	6694.98
779.358	6369.35
779.548	6590.53
779.738	6279.24
779.927	6395.98
780.117	6338.63
780.307	6412.36
780.496	6004.82
780.686	6590.53
780.875	6840.39
781.065	6375.5
781.254	6283.34
781.444	6322.25
781.633	6561.86
781.823	6273.1
782.012	6213.71
782.202	6438.98
782.391	6402.12
782.581	6064.21
782.77	6570.05
782.96	6750.28
783.149	6332.49
783.338	6328.39
783.528	5910.61
783.717	6516.81
783.906	6697.03
784.096	6162.51
784.285	6051.92
784.474	6336.59
784.663	6176.84
784.853	6115.41
785.042	6289.48
785.231	6133.84
785.42	6762.56
785.61	6170.7
785.799	6135.89
785.988	6176.84
786.177	6336.59
786.366	6291.53
786.555	6211.66
786.744	6703.17
786.933	6375.5
787.122	5953.62
787.312	6109.26
787.501	6266.96
787.69	6522.95
787.879	6121.55
788.068	5984.34
788.257	5951.57
788.445	6230.09
788.634	6240.33
788.823	6084.69
789.012	6971.46
789.201	6592.58
789.39	6144.08
789.579	5820.5
789.768	6150.22
789.957	6459.46
790.145	5967.95
790.334	5959.76
790.523	5951.57
790.712	6301.77
790.9	6031.44
791.089	6004.82
791.278	6383.69
791.467	6256.72
791.655	6107.21
791.844	6449.22
792.033	6082.64
792.221	6246.48
792.41	6076.49
792.599	5843.03
792.787	6506.57
792.976	6367.31
793.164	5967.95
793.353	6049.87
793.541	6336.59
793.73	6492.23
793.918	5961.81
794.107	5873.75
794.295	6037.58
794.484	6117.45
794.672	5916.75
794.861	6086.73
795.049	6244.43
795.238	6400.07
795.426	5691.48
795.614	6039.63
795.803	6105.17
795.991	6342.73
796.179	5957.71
796.368	5970
796.556	6314.06
796.744	6006.86
796.932	5851.22
797.121	5750.87
797.309	6072.4
797.497	6283.34
797.685	5869.65
797.874	6033.49
798.062	6000.72
798.25	6322.25
798.438	5855.31
798.626	5800.02
798.814	6244.43
799.002	6541.38
799.19	6010.96
799.378	5926.99
799.566	6533.19
799.755	6490.18
799.943	5972.05
800.131	5859.41
800.318	6142.03
800.506	6146.12
800.694	5877.84
800.882	6094.93
801.07	6490.18
801.258	5992.53
801.446	5857.36
801.634	5910.61
801.822	6043.73
802.01	6269
802.197	5859.41
802.385	6002.77
802.573	5955.66
802.761	5843.03
802.949	5986.38
803.136	5888.08
803.324	6508.62
803.512	6015.05
803.699	6062.16
803.887	5795.92
804.075	6477.9
804.262	5879.89
804.45	5851.22
804.638	6072.4
804.825	5984.34
805.013	5886.03
805.201	6090.83
805.388	5746.77
805.576	6008.91
805.763	6762.56
805.951	5754.96
806.138	6006.86
806.326	6694.98
806.513	6129.74
806.701	6115.41
806.888	5933.14
807.075	6385.74
807.263	6697.03
807.45	5744.72
807.638	6168.65
807.825	6664.26
808.012	6488.14
808.2	6064.21
808.387	6168.65
808.574	6461.51
808.761	6623.3
808.949	6154.32
809.136	6211.66
809.323	6262.86
809.51	6223.95
809.698	6271.05
809.885	6281.29
810.072	6322.25
810.259	6606.92
810.446	6006.86
810.633	6084.69
810.82	6692.93
811.008	6611.01
811.195	6246.48
811.382	6234.19
811.569	6385.74
811.756	6043.73
811.943	6158.41
812.13	6156.36
812.317	6129.74
812.504	6307.91
812.691	6215.76
812.878	6230.09
813.064	6789.19
813.251	6295.63
813.438	6121.55
813.625	6322.25
813.812	6234.19
813.999	6414.41
814.186	5982.29
814.372	6096.97
814.559	6248.52
814.746	6670.4
814.933	6273.1
815.12	6273.1
815.306	6277.19
815.493	6045.77
815.68	6156.36
815.866	6092.88
816.053	6570.05
816.24	6754.37
816.426	6416.46
816.613	6146.12
816.799	6592.58
816.986	6649.93
817.173	6328.39
817.359	6041.68
817.546	6481.99
817.732	5935.18
817.919	6033.49
818.105	6232.14
818.292	6301.77
818.478	6494.28
818.665	6385.74
818.851	6164.56
819.037	6867.01
819.224	6479.94
819.41	6107.21
819.597	6025.29
819.783	6819.91
819.969	6531.14
820.156	6062.16
820.342	6058.06
820.528	6848.58
820.714	6404.17
820.901	6570.05
821.087	6078.54
821.273	6600.77
821.459	6389.83
821.646	6107.21
821.832	6101.07
822.018	6334.54
822.204	6381.64
822.39	6236.24
822.576	6056.01
822.762	6285.39
822.948	6486.09
823.134	6434.89
823.32	6139.98
823.507	5980.24
823.693	6504.52
823.879	6453.32
824.065	5908.56
824.25	6549.57
824.436	5998.67
824.622	6021.2
824.808	6035.53
824.994	6070.35
825.18	5953.62
825.366	5920.85
825.552	6119.5
825.738	6320.2
825.923	6381.64
826.109	6441.03
826.295	6047.82
826.481	6144.08
826.667	5914.7
826.852	6144.08
827.038	6049.87
827.224	6535.24
827.409	6520.9
827.595	5791.83
827.781	6152.27
827.966	6496.33
828.152	6393.93
828.338	5931.09
828.523	5894.22
828.709	6062.16
828.894	6297.67
829.08	5982.29
829.266	6025.29
829.451	6107.21
829.637	6303.82
829.822	6031.44
830.008	5881.94
830.193	6410.31
830.378	6389.83
830.564	5892.18
830.749	5810.26
830.935	6228.04
831.12	6406.22
831.305	5802.07
831.491	6092.88
831.676	5867.6
831.861	6373.45
832.047	5988.43
832.232	5791.83
832.417	6250.57
832.602	5951.57
832.788	5691.48
832.973	5638.23
833.158	6010.96
833.343	6002.77
833.528	5804.11
833.714	6033.49
833.899	6094.93
834.084	6467.66
834.269	5943.38
834.454	5820.5
834.639	6152.27
834.824	5908.56
835.009	5965.9
835.194	5691.48
835.379	6166.6
835.564	6301.77
835.749	5824.59
835.934	5681.24
836.119	6150.22
836.304	6037.58
836.489	5769.3
836.674	5947.47
836.859	5689.43
837.044	6219.85
837.228	5800.02
837.413	5779.54
837.598	6115.41
837.783	6238.28
837.968	5703.76
838.152	5447.77
838.337	5472.34
838.522	6170.7
838.707	6205.52
838.891	5877.84
839.076	5908.56
839.261	6266.96
839.445	5748.82
839.63	5732.44
839.815	6066.25
839.999	5695.57
840.184	5748.82
840.368	5546.07
840.553	6113.36
840.737	5994.58
840.922	5642.32
841.106	5429.34
841.291	5496.92
841.475	5840.98
841.66	5470.3
841.844	5591.13
842.029	6484.04
842.213	5787.73
842.397	5634.13
842.582	5408.86
842.766	6099.02
842.951	5984.34
843.135	5568.6
843.319	5623.89
843.504	5705.81
843.688	5898.32
843.872	5507.16
844.056	5541.97
844.241	5709.91
844.425	5662.8
844.609	5808.21
844.793	5140.57
844.977	5916.75
845.161	5791.83
845.346	5159
845.53	5441.62
845.714	5558.36
845.898	6051.92
846.082	5415
846.266	5453.91
846.45	5535.83
846.634	5658.71
846.818	5404.76
847.002	5593.17
847.186	5810.26
847.37	5355.61
847.554	5271.64
847.738	5560.41
847.922	5640.28
848.106	5759.06
848.29	5380.18
848.473	5345.37
848.657	5687.38
848.841	5550.17
849.025	5468.25
849.209	5195.87
849.392	5644.37
849.576	5638.23
849.76	5034.08
849.944	5380.18
850.127	5808.21
850.311	5298.27
850.495	5234.78
850.678	5144.67
850.862	5793.87
851.046	5881.94
851.229	5605.46
851.413	5351.51
851.596	5519.45
851.78	5490.77
851.964	5404.76
852.147	5310.55
852.331	6381.64
852.514	5714
852.698	5290.07
852.881	5199.96
853.065	5800.02
853.248	5288.03
853.431	5398.62
853.615	5519.45
853.798	6064.21
853.982	5439.58
854.165	5367.9
854.348	5294.17
854.532	5144.67
854.715	5212.25
854.898	5277.79
855.081	5308.51
855.265	5711.96
855.448	5910.61
855.631	5208.16
855.814	5238.87
855.997	5638.23
856.181	5335.13
856.364	5179.48
856.547	5005.41
856.73	5476.44
856.913	5404.76
857.096	4968.54
857.279	5159
857.462	5214.3
857.645	5621.84
857.828	5128.28
858.011	5271.64
858.194	5388.38
858.377	5425.24
858.56	4968.54
858.743	4986.97
858.926	5005.41
859.109	5238.87
859.292	5175.39
859.475	4880.48
859.658	5648.47
859.841	5402.71
860.023	4966.49
860.206	5044.32
860.389	5343.32
860.572	5570.65
860.755	5154.91
860.937	5064.8
861.12	5216.35
861.303	5087.33
861.486	5058.65
861.668	4847.71
861.851	5271.64
862.034	5257.31
862.216	5171.29
862.399	4794.47
862.581	5197.92
862.764	5482.58
862.947	4905.06
863.129	4802.66
863.312	4802.66
863.494	5525.59
863.677	5138.52
863.859	4739.17
864.042	5171.29
864.224	5548.12
864.406	4933.73
864.589	4755.55
864.771	5263.45
864.954	4798.56
865.136	4773.99
865.318	4653.16
865.501	5136.48
865.683	4806.75
865.865	4874.34
866.048	4812.9
866.23	5027.93
866.412	5101.66
866.594	4765.79
866.777	4829.28
866.959	5048.41
867.141	4841.57
867.323	4948.06
867.505	4794.47
867.687	4984.93
867.869	4956.26
868.052	4720.74
868.234	4622.44
868.416	4880.48
868.598	4997.21
868.78	4694.12
868.962	4630.63
869.144	5175.39
869.326	5300.31
869.508	4794.47
869.69	4741.22
869.872	4788.32
870.054	5281.88
870.236	4542.57
870.417	4628.58
870.599	4882.53
870.781	5220.44
870.963	4853.86
871.145	4544.61
871.327	4550.76
871.508	5118.04
871.69	4663.4
871.872	4890.72
872.054	4919.39
872.235	4950.11
872.417	4667.49
872.599	4620.39
872.78	5206.11
872.962	4931.68
873.144	4550.76
873.325	4853.86
873.507	5251.16
873.689	5042.27
873.87	4454.5
874.052	4794.47
874.233	4776.03
874.415	5181.53
874.596	4802.66
874.778	4612.2
874.959	4898.91
875.141	5300.31
875.322	4704.35
875.503	4612.2
875.685	5136.48
875.866	4640.87
876.048	4657.25
876.229	4538.47
876.41	4886.62
876.592	4986.97
876.773	4790.37
876.954	4524.13
877.136	5271.64
877.317	4739.17
877.498	4616.29
877.679	4864.1
877.86	5208.16
878.042	5009.5
878.223	4821.09
878.404	5048.41
878.585	5382.23
878.766	5544.02
878.947	5027.93
879.128	4909.15
879.309	5316.7
879.49	5396.57
879.672	5068.89
879.853	4759.65
880.034	4782.18
880.215	5056.61
880.396	4884.58
880.576	4816.99
880.757	4860
880.938	5314.65
881.119	4894.82
881.3	4868.19
881.481	4984.93
881.662	5859.41
881.843	4702.31
882.023	4636.77
882.204	5220.44
882.385	5003.36
882.566	4853.86
882.747	5027.93
882.927	5025.89
883.108	5343.32
883.289	4651.11
883.469	5222.49
883.65	4943.97
883.831	5187.68
884.011	5185.63
884.192	5064.8
884.373	5312.6
884.553	5179.48
884.734	5009.5
884.914	5142.62
885.095	5720.15
885.275	5617.75
885.456	5261.4
885.636	4792.42
885.817	5050.46
885.997	5173.34
886.178	4819.04
886.358	4888.67
886.538	5294.17
886.719	6156.36
886.899	5009.5
887.08	5134.43
887.26	5511.25
887.44	5197.92
887.621	4937.82
887.801	5144.67
887.981	5752.91
888.161	5412.95
888.342	5142.62
888.522	4993.12
888.702	5408.86
888.882	5468.25
889.062	5273.69
889.242	4862.05
889.423	5728.34
889.603	5582.93
889.783	5253.21
889.963	5097.56
890.143	5640.28
890.323	5689.43
890.503	5179.48
890.683	5273.69
890.863	5281.88
891.043	5189.72
891.223	5175.39
891.403	5294.17
891.583	5480.54
891.763	5392.47
891.943	5193.82
892.122	5079.13
892.302	5431.38
892.482	5390.42
892.662	5224.54
892.842	5169.24
893.022	5226.59
893.201	5369.94
893.381	5333.08
893.561	5331.03
893.741	5769.3
893.92	5615.7
894.1	5263.45
894.28	5437.53
894.459	5617.75
894.639	5396.57
894.819	5283.93
894.998	5496.92
895.178	5449.82
895.357	5423.19
895.537	5320.79
895.716	5161.05
895.896	5341.27
896.075	5675.09
896.255	5353.56
896.434	4999.26
896.614	5511.25
896.793	5658.71
896.973	5431.38
897.152	5371.99
897.331	5388.38
897.511	5644.37
897.69	5105.76
897.87	5193.82
898.049	5591.13
898.228	5435.48
898.407	5349.47
898.587	5281.88
898.766	5312.6
898.945	5453.91
899.124	5285.98
899.304	5376.09
899.483	5550.17
899.662	5746.77
899.841	5240.92
900.02	5165.15
900.199	5636.18
900.378	5468.25
900.557	5136.48
900.737	4976.73
900.916	5494.87
901.095	5697.62
901.274	5335.13
901.453	4995.17
901.632	5161.05
901.811	5007.45
901.989	5140.57
902.168	5046.37
902.347	5544.02
902.526	5118.04
902.705	4984.93
902.884	5023.84
903.063	5328.99
903.242	5578.84
903.42	4771.94
903.599	5183.58
903.778	5447.77
903.957	5443.67
904.135	5040.22
904.314	4976.73
904.493	5214.3
904.672	5310.55
904.85	4993.12
905.029	4960.35
905.207	5290.07
905.386	6041.68
905.565	4876.38
905.743	4872.29
905.922	5140.57
906.1	5550.17
906.279	4837.47
906.457	4739.17
906.636	4900.96
906.814	5017.69
906.993	4876.38
907.171	4964.45
907.35	5328.99
907.528	5341.27
907.707	5191.77
907.885	4810.85
908.063	5439.58
908.242	4898.91
908.42	4849.76
908.598	4575.33
908.777	5021.79
908.955	5007.45
909.133	4814.95
909.311	4644.96
909.49	4868.19
909.668	5025.89
909.846	4835.42
910.024	4536.42
910.202	5154.91
910.38	5048.41
910.559	4757.6
910.737	4661.35
910.915	5013.6
911.093	4941.92
911.271	4841.57
911.449	4933.73
911.627	5118.04
911.805	5259.35
911.983	4712.55
912.161	4673.64
912.339	5017.69
912.517	5189.72
912.695	4753.51
912.872	4718.69
913.05	4788.32
913.228	4931.68
913.406	4663.4
913.584	4495.46
913.762	4986.97
913.939	4683.88
914.117	4546.66
914.295	4440.17
914.473	4878.43
914.65	4733.03
914.828	4499.56
915.006	4434.02
915.184	4565.09
915.361	4823.14
915.539	4597.86
915.716	4718.69
915.894	4763.75
916.072	4956.26
916.249	4769.89
916.427	4679.78
916.604	4472.93
916.782	4763.75
916.959	4325.48
917.137	4391.02
917.314	4630.63
917.492	4573.28
917.669	4538.47
917.847	4438.12
918.024	4546.66
918.201	4397.16
918.379	4337.77
918.556	4415.59
918.733	4667.49
918.911	4540.52
919.088	4655.2
919.265	4206.7
919.442	4636.77
919.62	4503.65
919.797	4173.93
919.974	4194.41
920.151	4423.78
920.328	4477.03
920.506	4225.13
920.683	4401.26
920.86	4188.27
921.037	4268.14
921.214	4264.04
921.391	4120.68
921.568	4472.93
921.745	4110.44
921.922	4235.37
922.099	4128.88
922.276	4690.02
922.453	4352.1
922.63	4026.48
922.807	4309.1
922.984	4415.59
923.161	4184.17
923.338	4094.06
923.514	4032.62
923.691	4120.68
923.868	4247.66
924.045	3838.06
924.222	3821.68
924.399	4180.07
924.575	4264.04
924.752	4051.05
924.929	4016.24
925.105	4239.47
925.282	3932.27
925.459	3915.89
925.635	3950.7
925.812	4110.44
925.989	3876.98
926.165	3813.49
926.342	3752.05
926.518	3711.09
926.695	4092.01
926.871	3836.02
927.048	3608.69
927.224	4143.21
927.401	3866.74
927.577	3674.23
927.754	3614.84
927.93	4087.92
928.107	4122.73
928.283	3610.74
928.459	3815.54
928.636	3805.3
928.812	3680.37
928.988	3551.35
929.165	3580.02
929.341	3733.62
929.517	3815.54
929.693	3874.93
929.87	3377.27
930.046	3967.09
930.222	3774.58
930.398	3502.2
930.574	3563.64
930.751	3848.3
930.927	3577.97
931.103	3602.55
931.279	3385.46
931.455	3448.95
931.631	3655.79
931.807	3195
931.983	3291.26
932.159	3266.68
932.335	3545.2
932.511	3483.77
932.687	3166.33
932.863	3598.45
933.039	3528.82
933.215	3207.29
933.391	3014.78
933.566	3393.65
933.742	3387.51
933.918	3149.95
934.094	3084.41
934.27	3385.46
934.445	3272.82
934.621	3131.51
934.797	2930.81
934.973	3467.38
935.148	3184.76
935.324	2873.47
935.5	2721.92
935.675	3319.93
935.851	3102.84
936.027	2871.42
936.202	2795.65
936.378	3004.54
936.553	2812.03
936.729	3127.42
936.904	2594.95
937.08	2603.14
937.255	2699.39
937.431	2543.75
937.606	2203.79
937.782	2566.28
937.957	2564.23
938.133	2455.69
938.308	2248.84
938.483	2521.22
938.659	2316.42
938.834	2248.84
939.009	2072.72
939.185	2359.43
939.36	2183.31
939.535	1890.45
939.71	2142.35
939.886	2461.83
940.061	2437.25
940.236	2168.97
940.411	2085
940.586	2306.18
940.761	2341
940.937	1996.94
941.112	1880.21
941.287	2138.25
941.462	2080.91
941.637	1699.98
941.812	1874.06
941.987	2105.48
942.162	1939.6
942.337	1874.06
942.512	1755.28
942.687	2105.48
942.862	2130.06
943.037	1593.49
943.212	1421.46
943.386	1804.43
943.561	2033.8
943.736	1931.41
943.911	2011.28
944.086	1955.98
944.26	1953.93
944.435	1673.36
944.61	1761.42
944.785	2281.61
944.959	2224.26
945.134	1620.11
945.309	1620.11
945.483	1712.27
945.658	2076.81
945.833	1439.89
946.007	1407.13
946.182	2183.31
946.357	1573.01
946.531	1577.11
946.706	1538.2
946.88	1507.48
947.055	1902.73
947.229	1591.44
947.404	1527.96
947.578	2085
947.752	1865.87
947.927	1464.47
948.101	1466.52
948.276	1849.49
948.45	1808.53
948.624	1695.89
948.799	1495.19
948.973	1865.87
949.147	1573.01
949.321	1675.41
949.496	1579.15
949.67	2054.28
949.844	1919.12
950.018	1587.35
950.193	1591.44
950.367	2336.9
950.541	1763.47
950.715	1775.76
950.889	1747.09
951.063	1667.22
951.237	1814.67
951.411	1304.73
951.585	1523.86
951.759	1802.38
951.933	1745.04
952.107	1607.83
952.281	1716.37
952.455	2117.77
952.629	1992.84
952.803	1587.35
952.977	1484.95
953.151	2003.08
953.325	1855.63
953.499	1806.48
953.672	1474.71
953.846	1497.24
954.02	1759.38
954.194	1507.48
954.368	1585.3
954.541	1861.77
954.715	1575.06
954.889	1683.6
955.062	1489.04
955.236	1792.14
955.41	1702.03
955.583	1716.37
955.757	1487
955.93	1747.09
956.104	1489.04
956.278	1521.81
956.451	1556.63
956.625	1892.49
956.798	2312.33
956.972	1906.83
957.145	1599.63
957.319	1738.9
957.492	1689.74
957.665	1742.99
957.839	1497.24
958.012	1861.77
958.185	1575.06
958.359	1714.32
958.532	1706.13
958.705	1962.12
958.879	1818.77
959.052	1579.15
959.225	1304.73
959.398	1659.03
959.572	1790.1
959.745	1534.1
959.918	1591.44
960.091	1681.55
960.264	1874.06
960.438	1448.08
960.611	1476.76
960.784	1872.01
960.957	1597.59
961.13	1878.16
961.303	1443.99
961.476	1681.55
961.649	1880.21
961.822	1425.56
961.995	1538.2
962.168	1910.93
962.341	1835.15
962.514	1456.28
962.686	1527.96
962.859	1779.86
963.032	1822.86
963.205	1501.33
963.378	1357.97
963.551	1755.28
963.723	1720.46
963.896	1570.96
964.069	1790.1
964.242	1663.12
964.414	1874.06
964.587	1585.3
964.76	1665.17
964.932	1767.57
965.105	1626.26
965.278	1552.53
965.45	1564.82
965.623	1773.71
965.795	1876.11
965.968	1374.36
966.14	1454.23
966.313	1654.93
966.485	1683.6
966.658	1513.62
966.83	1487
967.003	1978.51
967.175	1869.97
967.348	1421.46
967.52	1452.18
967.692	2082.95
967.865	1708.18
968.037	1476.76
968.209	1667.22
968.382	1570.96
968.554	1833.1
968.726	1448.08
968.898	1396.89
969.071	1632.4
969.243	1816.72
969.415	1478.8
969.587	1538.2
969.759	2111.63
969.932	1867.92
970.104	1487
970.276	1187.99
970.448	1501.33
970.62	1480.85
970.792	1482.9
970.964	1454.23
971.136	2074.76
971.308	1679.51
971.48	1464.47
971.652	1431.7
971.824	2076.81
971.996	1519.76
972.168	1409.17
972.339	1443.99
972.511	1769.62
972.683	1427.6
972.855	1544.34
973.027	1511.57
973.199	1560.72
973.37	1794.19
973.542	1497.24
973.714	1593.49
973.886	1663.12
974.057	1806.48
974.229	1253.53
974.401	1302.68
974.572	1351.83
974.744	1235.1
974.915	1294.49
975.087	1357.97
975.259	1773.71
975.43	1355.93
975.602	1284.25
975.773	1208.47
975.945	1296.53
976.116	1552.53
976.288	1298.58
976.459	1503.38
976.63	1466.52
976.802	1575.06
976.973	1274.01
977.145	1454.23
977.316	1831.05
977.487	1753.23
977.659	1478.8
977.83	1357.97
978.001	1847.44
978.172	1493.14
978.344	1337.49
978.515	1335.45
978.686	1396.89
978.857	1792.14
979.028	1306.77
979.2	1233.05
979.371	1851.53
979.542	1552.53
979.713	1409.17
979.884	981.15
980.055	1175.7
980.226	1347.73
980.397	1286.3
980.568	1243.29
980.739	1687.7
980.91	1482.9
981.081	1478.8
981.252	1134.75
981.423	1638.55
981.594	1618.07
981.765	1165.46
981.936	1282.2
982.106	1310.87
982.277	1669.27
982.448	1169.56
982.619	1380.5
982.79	1253.53
982.96	1650.83
983.131	1306.77
983.302	1022.11
983.472	1360.02
983.643	1357.97
983.814	1271.96
983.984	1222.81
984.155	1370.26
984.326	1570.96
984.496	1341.59
984.667	1124.51
984.837	1235.1
985.008	1609.87
985.178	1372.31
985.349	1187.99
985.519	1265.82
985.69	1245.34
985.86	1249.43
986.031	1108.12
986.201	1419.41
986.371	1470.61
986.542	1106.07
986.712	1028.25
986.882	1439.89
987.053	1405.08
987.223	1005.72
987.393	1261.72
987.563	1106.07
987.734	1525.91
987.904	1446.04
988.074	1128.6
988.244	1382.55
988.414	1181.85
988.585	1015.96
988.755	1163.42
988.925	1233.05
989.095	1675.41
989.265	1042.59
989.435	1218.71
989.605	1487
989.775	1417.37
989.945	1355.93
990.115	995.48
990.285	1257.62
990.455	1360.02
990.625	1177.75
990.795	1046.68
990.965	1550.48
991.134	1087.64
991.304	1009.82
991.474	1056.92
991.644	1405.08
991.814	1519.76
991.984	995.48
992.153	1001.63
992.323	1153.18
992.493	1167.51
992.662	864.41
992.832	1196.18
993.002	1169.56
993.171	1298.58
993.341	917.66
993.511	1185.94
993.68	1020.06
993.85	1329.3
994.019	860.32
994.189	932
994.358	1159.32
994.528	944.28
994.697	719.01
994.867	819.36
995.036	1413.27
995.206	1147.03
995.375	977.05
995.544	1099.93
995.714	1261.72
995.883	1120.41
996.052	1138.84
996.222	704.67
996.391	1702.03
996.56	1280.15
996.73	868.51
996.899	790.69
997.068	1497.24
997.237	1093.79
997.406	938.14
997.576	841.89
997.745	1106.07
997.914	1194.14
998.083	745.63
998.252	950.43
998.421	1093.79
998.59	979.1
998.759	807.07
998.928	719.01
999.097	1398.93
999.266	1312.92
999.435	987.29
999.604	669.86
999.773	1562.77
999.942	1028.25
1000.111	743.58
1000.28	716.96
1000.448	841.89
1000.617	876.7
1000.786	1032.35
1000.955	745.63
1001.124	991.39
1001.292	1699.98
1001.461	792.73
1001.63	833.69
1001.798	1392.79
1001.967	1347.73
1002.136	653.47
1002.304	747.68
1002.473	1200.28
1002.642	1190.04
1002.81	860.32
1002.979	751.78
1003.147	1206.42
1003.316	1667.22
1003.484	796.83
1003.653	686.24
1003.821	1284.25
1003.99	977.05
1004.158	891.04
1004.327	811.17
1004.495	1263.77
1004.663	778.4
1004.832	852.13
1005	567.46
1005.168	1093.79
1005.337	948.38
1005.505	630.95
1005.673	921.76
1005.842	1151.13
1006.01	1044.63
1006.178	735.39
1006.346	620.71
1006.514	1120.41
1006.683	1253.53
1006.851	661.66
1007.019	602.27
1007.187	741.54
1007.355	442.53
1007.523	493.73
1007.691	495.78
1007.859	604.32
1008.027	1097.88
1008.195	682.14
1008.363	612.51
1008.531	1224.86
1008.699	831.65
1008.867	575.65
1009.035	682.14
1009.203	1175.7
1009.37	882.85
1009.538	608.42
1009.706	972.96
1009.874	886.94
1010.042	827.55
1010.209	489.64
1010.377	622.75
1010.545	1108.12
1010.713	938.14
1010.88	612.51
1011.048	563.36
1011.216	817.31
1011.383	1171.61
1011.551	524.45
1011.718	524.45
1011.886	1024.16
1012.054	837.79
1012.221	594.08
1012.389	622.75
1012.556	733.34
1012.724	1280.15
1012.891	731.3
1013.058	475.3
1013.226	948.38
1013.393	1073.31
1013.561	426.15
1013.728	442.53
1013.895	899.23
1014.063	979.1
1014.23	350.37
1014.397	530.59
1014.565	950.43
1014.732	680.1
1014.899	471.2
1015.066	442.53
1015.233	852.13
1015.401	1106.07
1015.568	612.51
1015.735	637.09
1015.902	809.12
1016.069	987.29
1016.236	557.22
1016.403	581.79
1016.57	571.55
1016.737	958.62
1016.904	581.79
1017.071	460.96
1017.238	653.47
1017.405	991.39
1017.572	442.53
1017.739	684.19
1017.906	991.39
1018.073	1015.96
1018.24	436.39
1018.407	540.83
1018.573	1003.68
1018.74	694.43
1018.907	522.4
1019.074	336.04
1019.241	940.19
1019.407	888.99
1019.574	430.24
1019.741	225.45
1019.907	737.44
1020.074	880.8
1020.241	360.61
1020.407	413.86
1020.574	921.76
1020.74	841.89
1020.907	483.49
1021.073	456.87
1021.24	1298.58
1021.406	1081.5
1021.573	397.48
1021.739	317.61
1021.906	950.43
1022.072	710.82
1022.239	393.38
1022.405	454.82
1022.571	837.79
1022.738	608.42
1022.904	348.33
1023.07	442.53
1023.237	708.77
1023.403	915.61
1023.569	395.43
1023.735	499.88
1023.902	823.45
1024.068	823.45
1024.234	350.37
1024.4	350.37
1024.566	768.16
1024.732	903.32
1024.898	417.96
1025.065	239.78
1025.231	817.31
1025.397	723.1
1025.563	399.52
1025.729	258.21
1025.895	278.69
1026.061	530.59
1026.227	207.02
1026.392	477.35
1026.558	888.99
1026.724	815.26
1026.89	342.18
1027.056	489.64
1027.222	780.45
1027.388	473.25
1027.553	348.33
1027.719	233.64
1027.885	958.62
1028.051	755.87
1028.216	147.62
1028.382	268.45
1028.548	913.56
1028.713	604.32
1028.879	164.01
1029.045	501.92
1029.21	921.76
1029.376	841.89
1029.541	389.28
1029.707	379.04
1029.873	835.74
1030.038	780.45
1030.204	264.36
1030.369	350.37
1030.534	827.55
1030.7	495.78
1030.865	389.28
1031.031	315.56
1031.196	673.95
1031.361	659.62
1031.527	268.45
1031.692	209.06
1031.857	159.91
1032.023	735.39
1032.188	223.4
1032.353	338.09
1032.518	1028.25
1032.684	608.42
1032.849	131.24
1033.014	389.28
1033.179	837.79
1033.344	690.34
1033.509	379.04
1033.674	297.13
1033.839	716.96
1034.004	815.26
1034.17	278.69
1034.335	268.45
1034.5	608.42
1034.664	454.82
1034.829	215.21
1034.994	307.37
1035.159	751.78
1035.324	643.23
1035.489	225.45
1035.654	250.02
1035.819	837.79
1035.984	622.75
1036.148	319.65
1036.313	182.44
1036.478	790.69
1036.643	567.46
1036.807	192.68
1036.972	166.06
1037.137	964.76
1037.301	512.16
1037.466	-3.93
1037.631	333.99
1037.795	839.84
1037.96	641.18
1038.124	407.72
1038.289	159.91
1038.454	702.62
1038.618	727.2
1038.783	282.79
1038.947	237.74
1039.111	585.89
1039.276	487.59
1039.44	200.87
1039.605	630.95
1039.769	370.85
1039.933	403.62
1040.098	274.6
1040.262	467.11
1040.426	671.9
1040.591	712.86
1040.755	157.86
1040.919	239.78
1041.083	524.45
1041.248	530.59
1041.412	102.57
1041.576	45.23
1041.74	448.68
1041.904	805.02
1042.068	110.76
1042.232	276.65
1042.397	809.12
1042.561	518.31
1042.725	20.65
1042.889	366.76
1043.053	678.05
1043.217	641.18
1043.381	323.75
1043.544	184.49
1043.708	737.44
1043.872	192.68
1044.036	-61.27
1044.2	86.19
1044.364	665.76
1044.528	921.76
1044.691	3215.48
1044.855	96.43
1045.019	708.77
1045.183	573.6
1045.346	264.36
1045.51	80.04
1045.674	571.55
1045.837	655.52
1046.001	229.54
1046.165	147.62
1046.328	940.19
1046.492	602.27
1046.655	331.94
1046.819	264.36
1046.983	450.72
1047.146	616.61
1047.31	217.26
1047.473	34.99
1047.636	448.68
1047.8	313.51
1047.963	231.59
1048.127	102.57
1048.29	276.65
