Data from Ink_Intensity_USB4F045381__103__00103.txt Node

Date: Mon Jul 17 11:05:37 EDT 2023
User: mmckonesweet
Spectrometer: USB4F04538
Trigger mode: 4
Integration Time (sec): 9.000000E-1
Scans to average: 1
Electric dark correction enabled: true
Nonlinearity correction enabled: false
Boxcar width: 0
XAxis mode: Wavelengths
Number of Pixels in Spectrum: 3648
>>>>>Begin Spectral Data<<<<<
345.52	-1045.83
345.736	-1045.83
345.952	-1045.83
346.168	-1002.82
346.384	-957.77
346.6	-175.44
346.816	-279.89
347.032	-122.2
347.248	266.92
347.464	-128.34
347.68	-148.82
347.896	74.41
348.112	391.84
348.328	-120.15
348.544	-85.33
348.76	109.22
348.975	217.77
349.191	-271.7
349.407	-130.39
349.623	45.74
349.839	-103.76
350.055	-173.39
350.27	74.41
350.486	178.86
350.702	305.83
350.918	264.87
351.133	-197.97
351.349	135.85
351.565	344.74
351.781	-204.11
351.996	15.02
352.212	330.41
352.428	-68.95
352.644	-204.11
352.859	-267.6
353.075	279.21
353.291	160.42
353.506	-210.26
353.722	-304.46
353.938	-13.65
354.153	455.33
354.369	135.85
354.584	-236.88
354.8	268.97
355.016	-316.75
355.231	-245.07
355.447	-11.61
355.662	90.79
355.878	787.1
356.093	-343.38
356.309	-50.52
356.524	-210.26
356.74	271.01
356.955	-261.46
357.171	-81.24
357.386	205.48
357.602	-185.68
357.817	-140.63
358.033	-157.01
358.248	369.32
358.464	135.85
358.679	-154.96
358.895	-345.42
359.11	-27.99
359.325	285.35
359.541	29.35
359.756	-111.96
359.972	-286.03
360.187	123.56
360.402	-146.77
360.618	-114
360.833	942.75
361.048	176.81
361.264	-130.39
361.479	-81.24
361.694	-1.37
361.909	199.34
362.125	-306.51
362.34	-107.86
362.555	246.44
362.77	8.87
362.986	-294.22
363.201	-128.34
363.416	180.9
363.631	49.83
363.847	-214.35
364.062	-236.88
364.277	189.1
364.492	35.5
364.707	-150.87
364.922	-384.34
365.138	287.4
365.353	344.74
365.568	-267.6
365.783	-206.16
365.998	129.7
366.213	533.15
366.428	-224.59
366.643	43.69
366.858	309.93
367.073	187.05
367.288	-62.8
367.503	-210.26
367.718	111.27
367.933	287.4
368.148	-314.7
368.363	-50.52
368.578	-21.85
368.793	445.09
369.008	-253.27
369.223	-226.64
369.438	195.24
369.653	387.75
369.868	-310.61
370.083	-226.64
370.298	49.83
370.513	436.9
370.728	62.12
370.943	-240.98
371.157	-191.83
371.372	512.67
371.587	-265.55
371.802	-240.98
372.017	119.46
372.232	451.24
372.446	-36.18
372.661	-245.07
372.876	277.16
373.091	211.62
373.306	-60.76
373.52	-304.46
373.735	-138.58
373.95	381.6
374.165	-175.44
374.379	-224.59
374.594	-152.92
374.809	185
375.023	39.59
375.238	-183.63
375.453	172.71
375.667	-226.64
375.882	-109.91
376.097	-191.83
376.311	-13.65
376.526	-13.65
376.741	-249.17
376.955	135.85
377.17	553.63
377.384	567.97
377.599	-142.68
377.813	-259.41
378.028	565.92
378.242	236.2
378.457	-87.38
378.672	-367.95
378.886	144.04
379.101	-73.04
379.315	-335.18
379.53	-165.2
379.744	209.58
379.958	150.18
380.173	-212.31
380.387	-261.46
380.602	228.01
380.816	-118.1
381.031	-130.39
381.245	-109.91
381.459	185
381.674	2353.8
381.888	-210.26
382.103	66.22
382.317	-64.85
382.531	371.36
382.746	-77.14
382.96	-146.77
383.174	-48.47
383.388	496.29
383.603	62.12
383.817	-257.36
384.031	180.9
384.246	438.95
384.46	25.26
384.674	336.55
384.888	53.93
385.103	68.27
385.317	-302.42
385.531	-32.08
385.745	307.88
385.959	289.45
386.174	-152.92
386.388	-212.31
386.602	45.74
386.816	-126.29
387.03	-138.58
387.244	-58.71
387.458	68.27
387.672	324.26
387.887	-247.12
388.101	-329.04
388.315	352.93
388.529	115.37
388.743	-118.1
388.957	-218.45
389.171	297.64
389.385	-181.59
389.599	-116.05
389.813	129.7
390.027	250.53
390.241	631.46
390.455	-111.96
390.669	-144.72
390.883	-52.56
391.097	387.75
391.311	25.26
391.525	-134.48
391.738	279.21
391.952	182.95
392.166	-27.99
392.38	-283.99
392.594	283.3
392.808	256.68
393.022	-118.1
393.236	-167.25
393.449	213.67
393.663	189.1
393.877	-245.07
394.091	-73.04
394.305	-126.29
394.518	-68.95
394.732	-267.6
394.946	-138.58
395.16	379.56
395.373	92.84
395.587	-191.83
395.801	-191.83
396.015	336.55
396.228	240.29
396.442	-257.36
396.656	-427.34
396.869	373.41
397.083	504.48
397.297	4.78
397.51	-195.92
397.724	340.65
397.938	49.83
398.151	-263.51
398.365	-286.03
398.578	215.72
398.792	406.18
399.005	-9.56
399.219	-134.48
399.433	127.66
399.646	254.63
399.86	62.12
400.073	-23.89
400.287	215.72
400.5	-19.8
400.714	-19.8
400.927	-81.24
401.141	221.86
401.354	1141.4
401.567	197.29
401.781	-279.89
401.994	328.36
402.208	621.22
402.421	-138.58
402.635	-89.43
402.848	74.41
403.061	273.06
403.275	-19.8
403.488	-310.61
403.701	488.1
403.915	326.31
404.128	27.31
404.341	-173.39
404.555	254.63
404.768	49.83
404.981	-60.76
405.195	-134.48
405.408	467.62
405.621	348.84
405.834	-27.99
406.048	-169.3
406.261	447.14
406.474	492.2
406.687	-169.3
406.9	-13.65
407.114	41.64
407.327	101.03
407.54	-326.99
407.753	-314.7
407.966	-111.96
408.179	234.15
408.392	-167.25
408.605	-326.99
408.819	182.95
409.032	207.53
409.245	-150.87
409.458	-23.89
409.671	168.62
409.884	318.12
410.097	-261.46
410.31	62.12
410.523	281.25
410.736	-3.41
410.949	-66.9
411.162	-75.09
411.375	438.95
411.588	311.97
411.801	25.26
412.014	-208.21
412.227	49.83
412.44	74.41
412.653	-185.68
412.865	58.03
413.078	309.93
413.291	207.53
413.504	-118.1
413.717	-210.26
413.93	281.25
414.143	-114
414.356	-13.65
414.568	-230.74
414.781	328.36
414.994	182.95
415.207	-138.58
415.42	-122.2
415.632	342.69
415.845	627.36
416.058	-261.46
416.271	-286.03
416.483	96.94
416.696	459.43
416.909	-191.83
417.121	-154.96
417.334	242.34
417.547	619.17
417.759	-193.87
417.972	-286.03
418.185	-62.8
418.397	225.96
418.61	-138.58
418.823	-218.45
419.035	529.06
419.248	96.94
419.46	-40.28
419.673	6.83
419.885	262.82
420.098	115.37
420.311	-97.62
420.523	-353.62
420.736	346.79
420.948	166.57
421.161	-64.85
421.373	-298.32
421.586	232.1
421.798	-91.48
422.01	-281.94
422.223	94.89
422.435	33.45
422.648	311.97
422.86	-130.39
423.073	-87.38
423.285	342.69
423.497	-179.54
423.71	-126.29
423.922	-175.44
424.134	199.34
424.347	492.2
424.559	90.79
424.771	119.46
424.984	41.64
425.196	205.48
425.408	-273.75
425.621	-226.64
425.833	350.89
426.045	463.52
426.257	-179.54
426.47	-87.38
426.682	172.71
426.894	223.91
427.106	-89.43
427.318	-62.8
427.531	-1.37
427.743	281.25
427.955	-91.48
428.167	295.59
428.379	258.73
428.591	45.74
428.804	-23.89
429.016	-171.35
429.228	29.35
429.44	287.4
429.652	174.76
429.864	-259.41
430.076	66.22
430.288	98.99
430.5	-30.04
430.712	29.35
430.924	418.47
431.136	160.42
431.348	-351.57
431.56	-130.39
431.772	166.57
431.984	-44.37
432.196	-152.92
432.408	-124.24
432.62	-97.62
432.832	187.05
433.044	201.38
433.256	64.17
433.468	217.77
433.679	-161.11
433.891	-200.02
434.103	152.23
434.315	475.81
434.527	307.88
434.739	-19.8
434.95	-60.76
435.162	340.65
435.374	12.97
435.586	0.68
435.798	-122.2
436.009	-146.77
436.221	78.51
436.433	-48.47
436.645	-171.35
436.856	78.51
437.068	373.41
437.28	-134.48
437.491	262.82
437.703	242.34
437.915	207.53
438.126	-32.08
438.338	139.94
438.55	88.75
438.761	213.67
438.973	-3.41
439.184	-60.76
439.396	98.99
439.608	334.5
439.819	-206.16
440.031	-13.65
440.242	320.17
440.454	455.33
440.665	-32.08
440.877	-23.89
441.088	281.25
441.3	125.61
441.511	-222.55
441.723	-62.8
441.934	318.12
442.146	156.33
442.357	41.64
442.569	232.1
442.78	213.67
442.991	551.59
443.203	260.77
443.414	-130.39
443.626	475.81
443.837	21.16
444.048	-124.24
444.26	-218.45
444.471	180.9
444.682	369.32
444.894	-228.69
445.105	-142.68
445.316	461.48
445.528	266.92
445.739	25.26
445.95	152.23
446.161	242.34
446.373	381.6
446.584	-21.85
446.795	-79.19
447.006	402.08
447.217	590.5
447.429	-218.45
447.64	-132.44
447.851	479.91
448.062	303.78
448.273	-232.79
448.484	-81.24
448.695	250.53
448.907	199.34
449.118	80.55
449.329	250.53
449.54	53.93
449.751	-66.9
449.962	-89.43
450.173	-17.75
450.384	445.09
450.595	516.77
450.806	-62.8
451.017	-5.46
451.228	469.67
451.439	463.52
451.65	-71
451.861	-304.46
452.072	-32.08
452.283	146.09
452.494	248.49
452.705	19.11
452.915	623.27
453.126	305.83
453.337	213.67
453.548	-71
453.759	488.1
453.97	783.01
454.181	338.6
454.391	72.36
454.602	297.64
454.813	279.21
455.024	88.75
455.235	-73.04
455.445	324.26
455.656	381.6
455.867	189.1
456.078	51.88
456.288	246.44
456.499	371.36
456.71	-3.41
456.921	291.49
457.131	408.23
457.342	311.97
457.553	76.46
457.763	12.97
457.974	397.99
458.184	473.76
458.395	-85.33
458.606	-30.04
458.816	610.98
459.027	789.15
459.237	139.94
459.448	-111.96
459.659	520.87
459.869	772.77
460.08	-114
460.29	86.7
460.501	746.14
460.711	189.1
460.922	-48.47
461.132	53.93
461.343	971.42
461.553	10.92
461.764	66.22
461.974	101.03
462.184	559.78
462.395	412.32
462.605	92.84
462.816	6.83
463.026	387.75
463.236	570.02
463.447	156.33
463.657	74.41
463.867	621.22
464.078	236.2
464.288	101.03
464.498	15.02
464.709	248.49
464.919	443.04
465.129	193.19
465.339	-5.46
465.55	506.53
465.76	582.31
465.97	168.62
466.18	123.56
466.391	713.38
466.601	479.91
466.811	225.96
467.021	23.21
467.231	504.48
467.441	723.62
467.651	234.15
467.862	-60.76
468.072	447.14
468.282	766.62
468.492	131.75
468.702	266.92
468.912	400.04
469.122	1108.63
469.332	529.06
469.542	172.71
469.752	684.7
469.962	518.82
470.172	189.1
470.382	250.53
470.592	682.66
470.802	795.29
471.012	467.62
471.222	215.72
471.432	832.16
471.642	574.11
471.852	352.93
472.062	260.77
472.272	508.58
472.482	238.25
472.691	281.25
472.901	250.53
473.111	602.79
473.321	1102.49
473.531	230.06
473.741	410.28
473.95	731.81
474.16	768.67
474.37	453.28
474.58	285.35
474.79	1049.24
474.999	846.49
475.209	350.89
475.419	461.48
475.628	674.46
475.838	983.71
476.048	453.28
476.258	369.32
476.467	1073.82
476.677	551.59
476.886	676.51
477.096	584.35
477.306	608.93
477.515	1004.19
477.725	527.01
477.935	602.79
478.144	1165.98
478.354	639.65
478.563	576.16
478.773	436.9
478.982	893.6
479.192	1129.11
479.401	662.18
479.611	582.31
479.82	721.57
480.03	1041.05
480.239	570.02
480.449	481.96
480.658	1184.41
480.868	778.91
481.077	737.95
481.287	658.08
481.496	1116.83
481.705	1399.45
481.915	1077.91
482.124	975.52
482.333	987.8
482.543	1356.44
482.752	676.51
482.961	658.08
483.171	1139.35
483.38	862.88
483.589	694.94
483.799	713.38
484.008	924.32
484.217	1213.08
484.426	903.84
484.636	688.8
484.845	1049.24
485.054	776.86
485.263	1165.98
485.472	901.79
485.682	1526.42
485.891	1208.98
486.1	711.33
486.309	893.6
486.518	1278.62
486.727	1530.52
486.936	930.46
487.146	965.28
487.355	1493.65
487.564	1018.52
487.773	1028.76
487.982	1036.95
488.191	1122.97
488.4	1299.09
488.609	926.36
488.818	971.42
489.027	1929.87
489.236	1569.43
489.445	1043.1
489.654	1018.52
489.863	1606.29
490.072	1426.07
490.281	1471.12
490.49	1116.83
490.698	1706.64
490.907	1811.09
491.116	1082.01
491.325	1051.29
491.534	1706.64
491.743	1559.19
491.952	1233.56
492.16	1354.39
492.369	1591.95
492.578	1716.88
492.787	1303.19
492.996	1065.63
493.204	1319.57
493.413	2024.08
493.622	1065.63
493.831	1045.15
494.039	2028.17
494.248	1254.04
494.457	1196.7
494.665	1137.31
494.874	1663.63
495.083	2032.27
495.291	1389.21
495.5	1237.66
495.709	1950.35
495.917	1577.62
496.126	1526.42
496.335	1381.01
496.543	1608.34
496.752	1749.65
496.96	1757.84
497.169	1376.92
497.377	1723.02
497.586	1960.59
497.794	1643.15
498.003	1307.29
498.211	1766.03
498.42	2083.47
498.628	1616.53
498.837	1444.5
499.045	2011.79
499.254	1938.06
499.462	1553.04
499.671	1526.42
499.879	2441.86
500.087	2157.19
500.296	1585.81
500.504	1710.74
500.713	1876.62
500.921	2435.72
501.129	1585.81
501.338	1620.63
501.546	2032.27
501.754	1958.54
501.962	1694.35
502.171	1522.32
502.379	2075.27
502.587	2407.05
502.795	1790.61
503.004	1776.27
503.212	1944.2
503.42	2321.03
503.628	1774.22
503.837	1819.28
504.045	2273.93
504.253	2550.4
504.461	1761.94
504.669	1706.64
504.877	2278.02
505.085	2536.07
505.294	1657.49
505.502	2026.12
505.71	2130.57
505.918	2310.79
506.126	1876.62
506.334	1786.51
506.542	2058.89
506.75	2314.89
506.958	1966.73
507.166	1852.05
507.374	2189.96
507.582	2654.85
507.79	2048.65
507.998	1886.86
508.206	2411.14
508.414	2409.09
508.622	1989.26
508.83	1993.36
509.037	2681.47
509.245	2237.06
509.453	2013.84
509.661	1958.54
509.869	2486.92
510.077	2388.61
510.285	2136.71
510.492	1897.1
510.7	2945.66
510.908	2224.78
511.116	2146.95
511.324	2110.09
511.531	2335.37
511.739	2587.27
511.947	2341.51
512.155	2458.25
512.362	2636.42
512.57	2046.6
512.778	2003.6
512.985	2050.7
513.193	2683.52
513.401	2916.99
513.608	2269.83
513.816	2302.6
514.024	2738.82
514.231	2722.43
514.439	2335.37
514.646	2282.12
514.854	2792.06
515.061	2689.67
515.269	2388.61
515.477	2228.87
515.684	2361.99
515.892	2873.98
516.099	2192.01
516.307	2255.5
516.514	2757.25
516.722	3170.94
516.929	2388.61
517.136	2409.09
517.344	3111.55
517.551	2802.3
517.759	2501.25
517.966	2519.68
518.173	2665.09
518.381	2704
518.588	2450.05
518.796	2491.01
519.003	3021.44
519.21	2724.48
519.418	2546.31
519.625	2841.22
519.832	2857.6
520.039	2908.8
520.247	2402.95
520.454	2626.18
520.661	3076.73
520.868	3136.12
521.076	2757.25
521.283	2763.39
521.49	3523.19
521.697	3099.26
521.904	2845.31
522.112	2648.71
522.319	3314.3
522.526	3154.55
522.733	2701.95
522.94	2677.38
523.147	2933.37
523.354	3297.91
523.561	2734.72
523.768	2949.76
523.975	3342.97
524.183	3256.95
524.39	2847.36
524.597	2790.02
524.804	3181.18
525.011	3062.4
525.218	2794.11
525.425	2960
525.632	3582.58
525.838	3035.77
526.045	2925.18
526.252	2968.19
526.459	4461.16
526.666	3973.74
526.873	3074.68
527.08	3015.29
527.287	3662.45
527.494	3519.09
527.701	2912.89
527.907	3162.75
528.114	3414.65
528.321	3226.23
528.528	3162.75
528.735	3115.64
528.941	3308.15
529.148	3232.38
529.355	3058.3
529.562	3076.73
529.768	3887.73
529.975	3355.26
530.182	3281.53
530.388	3166.84
530.595	3840.62
530.802	3228.28
531.008	3428.98
531.215	3287.67
531.422	4022.89
531.628	4364.9
531.835	3254.9
532.042	3265.14
532.248	3537.52
532.455	3756.66
532.661	3416.69
532.868	3400.31
533.074	3699.31
533.281	3850.86
533.487	3580.53
533.694	3359.35
533.9	3598.96
534.107	3795.57
534.313	3519.09
534.52	3308.15
534.726	4033.13
534.933	4201.07
535.139	3428.98
535.345	3347.06
535.552	3887.73
535.758	3879.54
535.965	3703.41
536.171	3601.01
536.377	4248.17
536.584	4272.75
536.79	3617.4
536.996	3678.83
537.203	4002.41
537.409	4153.96
537.615	3770.99
537.821	3863.15
538.028	4317.8
538.234	4219.5
538.44	3824.24
538.646	3973.74
538.853	4211.31
539.059	4012.65
539.265	4149.87
539.471	3678.83
539.677	4362.86
539.883	4084.33
540.09	3924.59
540.296	4338.28
540.502	4448.87
540.708	4016.75
540.914	4125.29
541.12	4041.32
541.326	4385.38
541.532	4293.23
541.738	4020.85
541.944	4090.48
542.15	4645.48
542.356	4371.05
542.562	4160.11
542.768	4301.42
542.974	5010.01
543.18	4899.42
543.386	4182.63
543.592	4133.48
543.798	4977.25
544.004	4688.48
544.21	4131.44
544.415	4280.94
544.621	4625
544.827	4706.91
545.033	4235.88
545.239	4629.09
545.445	4584.04
545.651	4715.11
545.856	4268.65
546.062	4321.9
546.268	4670.05
546.474	4584.04
546.679	4393.58
546.885	4442.73
547.091	4475.49
547.297	5233.24
547.502	4436.58
547.708	4385.38
547.914	4455.01
548.119	4928.1
548.325	4516.45
548.531	4362.86
548.736	5290.59
548.942	4637.28
549.147	4354.66
549.353	4749.92
549.559	5048.93
549.764	4967.01
549.97	4647.52
550.175	4737.63
550.381	5079.65
550.586	4676.2
550.792	4737.63
550.997	4725.35
551.203	4999.77
551.408	5163.61
551.614	4633.19
551.819	4708.96
552.025	5491.29
552.23	5450.33
552.435	4799.07
552.641	5100.12
552.846	4778.59
553.052	5485.14
553.257	5077.6
553.462	4887.14
553.668	4919.9
553.873	5397.08
554.078	4749.92
554.283	4907.62
554.489	5364.31
554.694	5284.44
554.899	4901.47
555.105	5124.7
555.31	5466.71
555.515	5317.21
555.72	5136.99
555.925	4967.01
556.131	5509.72
556.336	5177.95
556.541	5237.34
556.746	5059.17
556.951	5718.61
557.156	5571.16
557.361	5259.87
557.567	5198.43
557.772	6009.42
557.977	5624.4
558.182	5235.29
558.387	5102.17
558.592	5337.69
558.797	5902.93
559.002	5384.79
559.207	5392.98
559.412	5546.58
559.617	6017.61
559.822	5141.08
560.027	5292.63
560.232	5704.28
560.437	5804.63
560.642	5470.81
560.847	5239.39
561.051	5710.42
561.256	5579.35
561.461	5608.02
561.666	5268.06
561.871	5741.14
562.076	6054.48
562.281	5718.61
562.485	5362.26
562.69	5997.14
562.895	6029.9
563.1	5626.45
563.305	5337.69
563.509	6138.44
563.714	6543.94
563.919	5354.07
564.123	5546.58
564.328	5818.96
564.533	6177.36
564.737	5757.52
564.942	5694.04
565.147	6386.25
565.351	6494.79
565.556	5827.15
565.761	5773.91
565.965	6091.34
566.17	5810.77
566.374	5784.15
566.579	5802.58
566.784	6029.9
566.988	6079.05
567.193	5663.32
567.397	5767.76
567.602	5997.14
567.806	5947.98
568.011	5929.55
568.215	6009.42
568.42	6255.18
568.624	6341.19
568.828	5825.11
569.033	6036.05
569.237	6568.52
569.442	6423.11
569.646	5792.34
569.85	6148.68
570.055	6447.69
570.259	6425.16
570.463	6421.06
570.668	6185.55
570.872	6373.96
571.076	6287.95
571.281	6386.25
571.485	6206.03
571.689	6597.19
571.893	6609.48
572.098	6406.73
572.302	6300.23
572.506	6464.07
572.71	6558.28
572.914	6496.84
573.119	6441.54
573.323	6877.76
573.527	7064.13
573.731	6376.01
573.935	6285.9
574.139	6791.75
574.343	6599.24
574.547	6439.5
574.751	6509.13
574.955	7158.33
575.159	7176.77
575.364	6292.04
575.568	6398.54
575.772	6785.6
575.976	7184.96
576.18	6539.85
576.383	6376.01
576.587	6992.45
576.791	7103.04
576.995	6517.32
577.199	6599.24
577.403	7168.57
577.607	7121.47
577.811	6652.49
578.015	6767.17
578.219	7193.15
578.422	7252.54
578.626	6937.15
578.83	6984.26
579.034	7402.04
579.238	7148.09
579.442	6824.51
579.645	7144
579.849	7277.12
580.053	7277.12
580.257	7133.76
580.46	6916.67
580.664	7594.55
580.868	7430.71
581.071	7234.11
581.275	7129.66
581.479	7160.38
581.682	7371.32
581.886	6961.73
582.09	7053.89
582.293	7569.98
582.497	7594.55
582.7	7277.12
582.904	7111.23
583.107	7393.85
583.311	7359.03
583.515	7346.75
583.718	7242.3
583.922	7709.24
584.125	7850.55
584.329	7232.06
584.532	7318.07
584.735	7914.03
584.939	7559.74
585.142	7273.02
585.346	7027.26
585.549	7475.77
585.753	7633.46
585.956	7395.9
586.159	7770.68
586.363	8170.03
586.566	8034.86
586.769	7549.5
586.973	7213.63
587.176	7811.64
587.379	7936.56
587.582	8045.1
587.786	7758.39
587.989	7879.22
588.192	8280.62
588.395	7737.91
588.599	7959.09
588.802	8084.02
589.005	7973.43
589.208	7596.6
589.411	7651.89
589.615	8391.21
589.818	8598.06
590.021	8090.16
590.224	8024.62
590.427	8167.98
590.63	8315.44
590.833	7791.16
591.036	7887.41
591.239	8124.97
591.442	8340.01
591.645	8073.78
591.848	7957.04
592.051	8481.32
592.254	8331.82
592.457	8159.79
592.66	8041.01
592.863	8225.33
593.066	8458.79
593.269	8262.19
593.472	8045.1
593.675	8149.55
593.878	8499.75
594.081	8421.93
594.284	8135.21
594.486	8706.6
594.689	8481.32
594.892	8401.45
595.095	8192.56
595.298	8669.73
595.5	8579.62
595.703	8489.51
595.906	8354.35
596.109	9060.9
596.311	9042.46
596.514	8297
596.717	8563.24
596.92	9093.66
597.122	8827.43
597.325	8362.54
597.528	8348.2
597.73	9153.06
597.933	8561.19
598.136	8446.51
598.338	8208.94
598.541	9202.21
598.743	9206.3
598.946	8436.27
599.148	8972.83
599.351	9155.1
599.554	9257.5
599.756	8903.2
599.959	8651.3
600.161	9222.69
600.363	9681.43
600.566	9089.57
600.768	8708.65
600.971	9529.88
601.173	9247.26
601.376	8849.96
601.578	8933.92
601.78	9409.05
601.983	9601.56
602.185	8905.25
602.388	9120.29
602.59	9265.69
602.792	9296.41
602.995	9175.58
603.197	9034.27
603.399	9472.54
603.601	9431.58
603.804	8974.88
604.006	8895.01
604.208	9325.08
604.41	8899.11
604.613	9370.14
604.815	9015.84
605.017	10144.27
605.219	9384.48
605.421	9517.59
605.623	9179.68
605.826	9724.44
606.028	9763.35
606.23	9247.26
606.432	9257.5
606.634	10170.9
606.836	9945.62
607.038	9265.69
607.24	9480.73
607.442	9734.68
607.644	9689.62
607.846	9581.08
608.048	9499.16
608.25	10109.46
608.452	9415.19
608.654	9333.28
608.856	8958.5
609.058	9615.9
609.26	9878.04
609.462	9607.7
609.664	9396.76
609.866	10347.02
610.067	10203.66
610.269	9732.63
610.471	9462.3
610.673	9763.35
610.875	10099.22
611.077	9421.34
611.278	9546.26
611.48	10027.54
611.682	10443.28
611.884	9882.13
612.085	9515.55
612.287	9851.41
612.489	10074.64
612.69	9579.03
612.892	9810.45
613.094	10166.8
613.295	10207.76
613.497	9433.63
613.699	9632.28
613.9	10484.23
614.102	10330.64
614.304	9837.08
614.505	9749.01
614.707	9996.82
614.908	9992.72
615.11	9687.57
615.311	10150.42
615.513	10213.9
615.714	10453.52
615.916	9751.06
616.117	9998.87
616.319	9953.81
616.52	10371.6
616.722	9953.81
616.923	10041.87
617.124	10545.67
617.326	10297.87
617.527	9959.95
617.729	10449.42
617.93	10666.5
618.131	10576.39
618.333	10035.73
618.534	10158.61
618.735	10273.29
618.937	10629.64
619.138	9908.76
619.339	9880.08
619.54	10572.3
619.742	10263.05
619.943	10285.58
620.144	10420.75
620.345	10594.83
620.546	10785.29
620.748	10181.14
620.949	10203.66
621.15	10781.19
621.351	10658.31
621.552	10392.08
621.753	10183.18
621.954	10412.56
622.155	11225.6
622.356	10273.29
622.558	10582.54
622.759	10596.87
622.96	11231.74
623.161	10408.46
623.362	10445.32
623.563	10637.83
623.764	10686.98
623.965	10525.19
624.166	10740.23
624.366	10576.39
624.567	10844.68
624.768	10224.14
624.969	10426.89
625.17	10799.62
625.371	10873.35
625.572	10412.56
625.773	10551.82
625.973	11207.17
626.174	10908.16
626.375	10789.38
626.576	10998.27
626.777	11104.77
626.977	11502.08
627.178	10670.6
627.379	10938.88
627.58	10838.53
627.78	11172.35
627.981	10787.33
628.182	11035.14
628.382	11321.85
628.583	10721.8
628.784	10795.53
628.984	10885.64
629.185	11481.6
629.386	11207.17
629.586	11123.2
629.787	10871.3
629.987	11297.28
630.188	11291.13
630.388	11143.68
630.589	11102.72
630.79	11813.37
630.99	11227.65
631.191	11219.46
631.391	11135.49
631.591	11151.87
631.792	11907.57
631.992	11131.39
632.193	10957.32
632.393	11635.19
632.594	11371.01
632.794	11264.51
632.994	11397.63
633.195	11229.7
633.395	11328
633.595	11137.54
633.796	11389.44
633.996	11401.72
634.196	11606.52
634.397	11211.26
634.597	11602.43
634.797	11106.82
634.997	11928.05
635.198	11561.47
635.398	11119.1
635.598	11864.57
635.798	12083.7
635.998	11776.5
636.199	11301.37
636.399	11559.42
636.599	11473.4
636.799	11471.36
636.999	11723.26
637.199	11708.92
637.399	12141.04
637.599	11551.23
637.799	11452.92
637.999	11586.04
638.199	12079.6
638.399	11436.54
638.599	11590.14
638.799	12270.06
638.999	12487.15
639.199	11655.67
639.399	11715.06
639.599	12354.03
639.799	11743.74
639.999	11680.25
640.199	11788.79
640.399	12147.19
640.599	11923.96
640.799	11993.59
640.998	12093.94
641.198	12202.48
641.398	12079.6
641.598	11641.34
641.798	11803.13
641.997	13269.47
642.197	12157.43
642.397	12009.97
642.597	11610.62
642.796	12351.98
642.996	12515.82
643.196	12177.9
643.395	11657.72
643.595	12276.21
643.795	11766.26
643.994	12028.4
644.194	12069.36
644.394	12532.2
644.593	12210.67
644.793	11909.62
644.992	12335.6
645.192	12337.65
645.392	11946.48
645.591	12292.59
645.791	12304.88
645.99	12720.62
646.19	12505.58
646.389	12456.43
646.589	12270.06
646.788	12483.05
646.987	12616.17
647.187	12962.28
647.386	12536.3
647.586	12698.09
647.785	12804.58
647.984	12397.04
648.184	12515.82
648.383	12460.52
648.582	12487.15
648.782	12462.57
648.981	12693.99
649.18	12276.21
649.38	12839.4
649.579	12528.11
649.778	12476.91
649.977	12894.69
650.177	12825.06
650.376	12540.4
650.575	12251.63
650.774	13027.81
650.973	12665.32
651.173	12499.44
651.372	12720.62
651.571	12921.32
651.77	13001.19
651.969	12433.9
652.168	12798.44
652.367	12812.78
652.566	13019.62
652.765	12526.06
652.964	12980.71
653.163	13218.27
653.362	13113.83
653.561	12640.75
653.76	12739.05
653.959	12847.59
654.158	13433.31
654.357	13062.63
654.556	12698.09
654.755	13425.12
654.954	13218.27
655.153	12769.77
655.352	12960.23
655.551	13306.34
655.749	12886.5
655.948	13148.64
656.147	13132.26
656.346	13451.74
656.545	13117.92
656.743	13195.75
656.942	13382.11
657.141	13238.75
657.34	13062.63
657.538	12880.36
657.737	13275.62
657.936	13388.25
658.135	13390.3
658.333	13126.11
658.532	13183.46
658.731	13808.09
658.929	13613.53
659.128	13349.34
659.326	13232.61
659.525	13531.61
659.724	13543.9
659.922	13205.99
660.121	13208.03
660.319	13410.78
660.518	13173.22
660.716	13320.67
660.915	13308.38
661.113	13720.03
661.312	13316.58
661.51	13339.1
661.709	13097.44
661.907	13595.1
662.105	14068.18
662.304	13285.86
662.502	13636.06
662.701	13939.16
662.899	13578.72
663.097	13722.07
663.296	13232.61
663.494	13869.53
663.692	13976.02
663.891	13367.77
664.089	13406.69
664.287	13890.01
664.485	14092.76
664.684	13617.63
664.882	13615.58
665.08	13609.43
665.278	14019.03
665.476	13634.01
665.675	13777.37
665.873	14227.92
666.071	14293.46
666.269	13595.1
666.467	13758.94
666.665	13902.29
666.863	13681.11
667.061	13691.35
667.259	13584.86
667.457	14008.79
667.655	13863.38
667.853	13461.98
668.051	13769.18
668.249	13668.83
668.447	14010.84
668.645	13621.72
668.843	13976.02
669.041	14090.71
669.239	13703.64
669.437	13765.08
669.635	13824.47
669.833	13928.92
670.031	14076.37
670.229	13914.58
670.426	14019.03
670.624	13955.54
670.822	13822.42
671.02	13875.67
671.218	13820.38
671.415	13810.14
671.613	14291.41
671.811	13953.49
672.009	13795.8
672.206	14416.33
672.404	14166.48
672.602	13871.58
672.799	14004.69
672.997	14252.5
673.195	14365.14
673.392	13992.41
673.59	13674.97
673.788	14203.35
673.985	13580.76
674.183	13955.54
674.38	13834.71
674.578	14275.02
674.775	13873.62
674.973	13924.82
675.17	13930.97
675.368	14512.59
675.565	14295.5
675.763	13953.49
675.96	13844.95
676.158	14553.55
676.355	14189.01
676.553	13857.24
676.75	13939.16
676.947	14227.92
677.145	14336.46
677.342	14211.54
677.539	14217.68
677.737	14223.83
677.934	14770.63
678.131	14049.75
678.329	13976.02
678.526	14666.19
678.723	14725.58
678.92	14100.95
679.118	14209.49
679.315	14025.17
679.512	14420.43
679.709	14164.43
679.906	14033.36
680.104	14709.19
680.301	14275.02
680.498	13797.85
680.695	14031.32
680.892	14082.52
681.089	14221.78
681.286	14262.74
681.483	13963.73
681.68	14334.42
681.877	14469.58
682.075	14072.28
682.272	14123.48
682.469	14481.87
682.665	14266.83
682.862	13883.86
683.059	13965.78
683.256	14332.37
683.453	14502.35
683.65	14174.67
683.847	14137.81
684.044	14545.36
684.241	14082.52
684.438	14502.35
684.635	14057.94
684.831	14926.28
685.028	15139.27
685.225	14012.88
685.422	14356.94
685.619	14459.34
685.815	14289.36
686.012	14291.41
686.209	14213.59
686.405	13980.12
686.602	14643.66
686.799	13844.95
686.996	13971.93
687.192	13765.08
687.389	14651.85
687.586	13998.55
687.782	14189.01
687.979	14748.11
688.175	14717.39
688.372	14137.81
688.568	14336.46
688.765	14189.01
688.962	14629.32
689.158	14170.58
689.355	13959.64
689.551	14571.98
689.748	14166.48
689.944	14408.14
690.14	14141.91
690.337	14545.36
690.533	14445.01
690.73	14223.83
690.926	14475.73
691.123	14483.92
691.319	14330.32
691.515	14182.87
691.712	14201.3
691.908	14621.13
692.104	14729.67
692.301	14039.51
692.497	14014.93
692.693	14639.56
692.889	14629.32
693.086	14477.77
693.282	13828.57
693.478	14475.73
693.674	14897.61
693.87	14123.48
694.067	13955.54
694.263	14561.74
694.459	14584.27
694.655	14477.77
694.851	14524.88
695.047	14647.76
695.243	14817.74
695.439	14402
695.635	14246.35
695.831	14492.11
696.027	14586.32
696.224	14051.8
696.42	14326.22
696.615	15016.39
696.811	14528.97
697.007	14070.23
697.203	14166.48
697.399	14461.39
697.595	14715.34
697.791	14229.97
697.987	14299.6
698.183	14135.76
698.379	14029.27
698.575	14295.5
698.77	14285.26
698.966	14744.01
699.162	14721.48
699.358	14414.29
699.554	14143.95
699.749	14709.19
699.945	14737.87
700.141	14021.08
700.337	14506.45
700.532	14627.28
700.728	14361.04
700.924	14504.4
701.119	14293.46
701.315	14645.71
701.511	14651.85
701.706	14479.82
701.902	14219.73
702.097	14578.12
702.293	14918.09
702.489	14324.18
702.684	14424.53
702.88	14637.52
703.075	14330.32
703.271	14430.67
703.466	14320.08
703.662	14520.78
703.857	14721.48
704.053	14352.85
704.248	14588.36
704.443	14729.67
704.639	14866.89
704.834	14449.1
705.03	14203.35
705.225	14924.23
705.42	14696.91
705.616	14365.14
705.811	14340.56
706.006	14627.28
706.202	14606.8
706.397	14211.54
706.592	14205.39
706.787	14504.4
706.983	14645.71
707.178	14674.38
707.373	14643.66
707.568	14760.39
707.763	14657.99
707.959	14414.29
708.154	14150.1
708.349	14373.33
708.544	14721.48
708.739	14406.09
708.934	14234.07
709.129	14774.73
709.324	14612.94
709.519	14504.4
709.714	14164.43
709.909	14852.55
710.104	14547.4
710.299	14283.22
710.494	14402
710.689	14672.33
710.884	14772.68
711.079	14393.81
711.274	14432.72
711.469	14860.74
711.664	14547.4
711.859	14465.49
712.054	14701
712.249	14987.72
712.443	14909.9
712.638	14332.37
712.833	14459.34
713.028	14578.12
713.223	14332.37
713.417	14692.81
713.612	14508.49
713.807	14723.53
714.002	15354.3
714.196	14889.42
714.391	14268.88
714.586	14832.07
714.78	14643.66
714.975	14555.6
715.17	14084.56
715.364	14430.67
715.559	14803.4
715.754	13990.36
715.948	14186.96
716.143	15116.74
716.337	14647.76
716.532	14545.36
716.726	14318.03
716.921	14903.75
717.115	15018.44
717.31	14387.66
717.504	14952.9
717.699	14455.25
717.893	14770.63
718.088	14205.39
718.282	14012.88
718.476	14756.3
718.671	14653.9
718.865	14295.5
719.059	14051.8
719.254	14557.64
719.448	15135.17
719.642	15589.82
719.837	14107.09
720.031	14510.54
720.225	14535.12
720.419	14234.07
720.614	14225.87
720.808	14823.88
721.002	14344.66
721.196	13982.17
721.39	14279.12
721.585	15014.34
721.779	14459.34
721.973	14180.82
722.167	14002.65
722.361	14555.6
722.555	14701
722.749	14268.88
722.943	14234.07
723.137	14428.62
723.331	14453.2
723.525	14209.49
723.719	14279.12
723.913	14643.66
724.107	14657.99
724.301	14268.88
724.495	14184.91
724.689	14905.8
724.883	14873.03
725.077	14068.18
725.271	14191.06
725.465	14797.26
725.659	14574.03
725.853	14426.57
726.046	13928.92
726.24	14039.51
726.434	14498.25
726.628	14303.7
726.822	14395.85
727.015	14746.06
727.209	14653.9
727.403	14100.95
727.596	13971.93
727.79	14541.26
727.984	14864.84
728.177	14334.42
728.371	14340.56
728.565	14809.54
728.758	14080.47
728.952	14234.07
729.146	14080.47
729.339	14952.9
729.533	14504.4
729.726	14242.26
729.92	14318.03
730.113	14961.09
730.307	14807.5
730.5	14289.36
730.694	14287.31
730.887	14336.46
731.081	14619.08
731.274	14221.78
731.468	14408.14
731.661	14563.79
731.854	14498.25
732.048	14387.66
732.241	14166.48
732.435	14569.93
732.628	14531.02
732.821	14260.69
733.014	14551.5
733.208	14447.05
733.401	14936.52
733.594	14150.1
733.788	14211.54
733.981	14924.23
734.174	14760.39
734.367	14602.7
734.56	14393.81
734.754	14938.57
734.947	14756.3
735.14	14537.16
735.333	14356.94
735.526	15069.64
735.719	14469.58
735.912	14422.48
736.105	14393.81
736.298	14551.5
736.491	14582.22
736.684	14543.31
736.877	14156.24
737.07	14811.59
737.263	14862.79
737.456	14293.46
737.649	14373.33
737.842	14442.96
738.035	14571.98
738.228	14565.84
738.421	14752.2
738.614	14969.29
738.807	14637.52
739	14348.75
739.192	14283.22
739.385	14592.46
739.578	14617.04
739.771	14686.67
739.964	14236.11
740.156	14655.95
740.349	14707.15
740.542	14633.42
740.735	14467.53
740.927	14420.43
741.12	14467.53
741.313	14311.89
741.505	14737.87
741.698	14531.02
741.891	14926.28
742.083	14504.4
742.276	14637.52
742.468	14637.52
742.661	14551.5
742.854	14496.21
743.046	14535.12
743.239	15231.43
743.431	14879.18
743.624	14494.16
743.816	14252.5
744.009	14445.01
744.201	14703.05
744.393	14565.84
744.586	14399.95
744.778	14856.65
744.971	14594.51
745.163	14436.81
745.355	14440.91
745.548	14703.05
745.74	14471.63
745.932	14156.24
746.125	14512.59
746.317	15049.16
746.509	14750.15
746.702	14512.59
746.894	14338.51
747.086	14633.42
747.278	15045.06
747.471	14606.8
747.663	14617.04
747.855	14877.13
748.047	15182.27
748.239	14350.8
748.431	14379.47
748.623	15208.9
748.815	14909.9
749.008	14559.69
749.2	14576.08
749.392	14633.42
749.584	14533.07
749.776	14705.1
749.968	14576.08
750.16	15278.53
750.352	14414.29
750.544	14313.94
750.736	14297.55
750.928	14957
751.12	14721.48
751.311	14178.77
751.503	14348.75
751.695	14643.66
751.887	14496.21
752.079	14244.31
752.271	14375.38
752.463	15401.41
752.654	14680.52
752.846	14293.46
753.038	14367.18
753.23	14467.53
753.421	14606.8
753.613	14309.84
753.805	14563.79
753.997	14655.95
754.188	14846.41
754.38	14205.39
754.572	14164.43
754.763	14756.3
754.955	14471.63
755.146	14291.41
755.338	14440.91
755.53	14500.3
755.721	14406.09
755.913	14094.8
756.104	13898.2
756.296	14436.81
756.487	14797.26
756.679	14223.83
756.87	14064.08
757.062	14313.94
757.253	14586.32
757.445	14053.84
757.636	14270.93
757.827	14547.4
758.019	15104.45
758.21	14021.08
758.401	14082.52
758.593	14875.08
758.784	14688.71
758.975	13908.44
759.167	13978.07
759.358	14496.21
759.549	14709.19
759.74	14119.38
759.932	14047.7
760.123	14438.86
760.314	14252.5
760.505	14111.19
760.696	14066.13
760.888	14614.99
761.079	14205.39
761.27	13869.53
761.461	13758.94
761.652	14614.99
761.843	13963.73
762.034	14066.13
762.225	14135.76
762.416	14133.72
762.607	14279.12
762.798	13830.62
762.989	13916.63
763.18	14944.71
763.371	13965.78
763.562	14100.95
763.753	13920.73
763.944	14270.93
764.135	14281.17
764.326	13941.21
764.517	13582.81
764.708	13988.31
764.899	14213.59
765.089	13689.31
765.28	13593.05
765.471	14105.04
765.662	14492.11
765.853	13926.87
766.043	13740.5
766.234	14215.63
766.425	14172.63
766.615	13763.03
766.806	13562.33
766.997	14232.02
767.187	14012.88
767.378	13763.03
767.569	13378.01
767.759	14080.47
767.95	14010.84
768.141	13828.57
768.331	13662.68
768.522	13830.62
768.712	14242.26
768.903	13670.87
769.093	13631.96
769.284	14277.07
769.474	14092.76
769.665	13339.1
769.855	13476.32
770.046	13971.93
770.236	13738.46
770.426	13791.7
770.617	13459.93
770.807	13914.58
770.998	13887.96
771.188	13486.56
771.378	13357.53
771.569	13871.58
771.759	13943.25
771.949	13310.43
772.139	13312.48
772.33	13576.67
772.52	14195.15
772.71	13201.89
772.9	13154.79
773.09	13851.1
773.281	14002.65
773.471	13277.66
773.661	13480.41
773.851	13726.17
774.041	13441.5
774.231	13179.36
774.421	13361.63
774.611	13863.38
774.802	13392.35
774.992	13457.89
775.182	13302.24
775.372	13543.9
775.562	13705.69
775.752	13232.61
775.942	13023.72
776.131	14037.46
776.321	13560.28
776.511	13105.63
776.701	12974.56
776.891	13834.71
777.081	13134.31
777.271	13246.94
777.461	12896.74
777.651	13654.49
777.84	13904.34
778.03	13251.04
778.22	12947.94
778.41	13808.09
778.599	13214.18
778.789	13044.2
778.979	12657.13
779.169	13400.54
779.358	13320.67
779.548	13382.11
779.738	12964.32
779.927	13527.52
780.117	13068.77
780.307	13222.37
780.496	12806.63
780.686	13492.7
780.875	13437.41
781.065	13081.06
781.254	12653.03
781.444	13103.59
781.633	13339.1
781.823	13003.24
782.012	12960.23
782.202	13040.1
782.391	13066.72
782.581	12659.18
782.77	12978.66
782.96	13208.03
783.149	13183.46
783.338	12802.54
783.528	12442.09
783.717	13353.44
783.906	13427.17
784.096	12792.3
784.285	12724.71
784.474	12726.76
784.663	12655.08
784.853	12786.15
785.042	12829.16
785.231	12906.98
785.42	13103.59
785.61	12857.83
785.799	12415.47
785.988	12642.79
786.177	12915.17
786.366	12798.44
786.555	12894.69
786.744	13162.98
786.933	12882.41
787.122	12532.2
787.312	12542.44
787.501	12671.47
787.69	13222.37
787.879	12681.71
788.068	12503.53
788.257	12419.57
788.445	12634.6
788.634	12650.99
788.823	12364.27
789.012	13586.91
789.201	13169.12
789.39	12569.07
789.579	12208.62
789.768	12782.06
789.957	12919.27
790.145	12493.29
790.334	12247.54
790.523	12376.56
790.712	12902.89
790.9	12546.54
791.089	12378.61
791.278	13021.67
791.467	12786.15
791.655	12546.54
791.844	12866.02
792.033	12401.13
792.221	12519.92
792.41	12243.44
792.599	12075.51
792.787	12863.97
792.976	12968.42
793.164	12429.81
793.353	12165.62
793.541	12878.31
793.73	12693.99
793.918	12333.55
794.107	12343.79
794.295	12669.42
794.484	12569.07
794.672	12495.34
794.861	12175.86
795.049	12569.07
795.238	13054.44
795.426	12335.6
795.614	12147.19
795.803	12558.83
795.991	12818.92
796.179	12268.02
796.368	12108.27
796.556	12718.57
796.744	12095.99
796.932	12100.08
797.121	11850.23
797.309	12526.06
797.497	12767.72
797.685	12405.23
797.874	12141.04
798.062	12526.06
798.25	12827.11
798.438	12526.06
798.626	12241.39
798.814	12394.99
799.002	13050.34
799.19	12476.91
799.378	12175.86
799.566	12874.21
799.755	12851.69
799.943	12308.97
800.131	12403.18
800.318	12454.38
800.506	12663.27
800.694	12200.43
800.882	12394.99
801.07	12773.86
801.258	12497.39
801.446	12349.93
801.634	12120.56
801.822	12450.28
802.01	12601.83
802.197	12419.57
802.385	12511.72
802.573	12751.34
802.761	12212.72
802.949	12487.15
803.136	12354.03
803.324	13017.57
803.512	12947.94
803.699	12466.67
803.887	12413.42
804.075	13009.38
804.262	12444.14
804.45	12251.63
804.638	12384.75
804.825	12663.27
805.013	12552.68
805.201	12702.18
805.388	12413.42
805.576	12724.71
805.763	13279.71
805.951	12415.47
806.138	12765.67
806.326	13273.57
806.513	13015.52
806.701	12718.57
806.888	12534.25
807.075	13146.59
807.263	13138.4
807.45	12384.75
807.638	12829.16
807.825	13337.06
808.012	12968.42
808.2	12642.79
808.387	12937.7
808.574	12993
808.761	13390.3
808.949	12577.26
809.136	12751.34
809.323	13046.24
809.51	13042.15
809.698	12960.23
809.885	12997.09
810.072	13085.15
810.259	13515.23
810.446	12806.63
810.633	12820.97
810.82	13435.36
811.008	13234.66
811.195	12982.76
811.382	13001.19
811.569	13011.43
811.756	12730.86
811.943	12769.77
812.13	12800.49
812.317	13169.12
812.504	12933.61
812.691	12861.93
812.878	12888.55
813.064	13388.25
813.251	13222.37
813.438	12800.49
813.625	13009.38
813.812	12892.65
813.999	13185.51
814.186	12966.37
814.372	12866.02
814.559	13199.84
814.746	13586.91
814.933	12737
815.12	13232.61
815.306	13033.96
815.493	12890.6
815.68	13105.63
815.866	12941.8
816.053	13238.75
816.24	13640.15
816.426	13224.42
816.613	12872.17
816.799	13242.85
816.986	13439.45
817.173	12567.02
817.359	12820.97
817.546	13230.56
817.732	12491.24
817.919	12571.11
818.105	13040.1
818.292	12927.46
818.478	13353.44
818.665	13158.88
818.851	12906.98
819.037	13746.65
819.224	13181.41
819.41	12366.32
819.597	12804.58
819.783	13408.73
819.969	13242.85
820.156	12909.03
820.342	12579.31
820.528	13785.56
820.714	13013.48
820.901	12933.61
821.087	12816.87
821.273	13459.93
821.459	12741.1
821.646	12804.58
821.832	12681.71
822.018	13060.58
822.204	12714.47
822.39	12960.23
822.576	12503.53
822.762	13367.77
822.948	13025.76
823.134	12954.08
823.32	12859.88
823.507	12704.23
823.693	13326.82
823.879	12835.3
824.065	12689.9
824.25	13242.85
824.436	12667.37
824.622	12448.24
824.808	12591.59
824.994	12935.65
825.18	12614.12
825.366	12446.19
825.552	12585.45
825.738	12863.97
825.923	13197.79
826.109	12923.37
826.295	12419.57
826.481	12751.34
826.667	12661.23
826.852	12712.42
827.038	12564.97
827.224	13132.26
827.409	13119.97
827.595	12390.89
827.781	12511.72
827.966	13074.92
828.152	12900.84
828.338	12618.22
828.523	12249.58
828.709	12493.29
828.894	12771.82
829.08	12417.52
829.266	12481
829.451	12569.07
829.637	12712.42
829.822	12642.79
830.008	12288.5
830.193	12816.87
830.378	12909.03
830.564	12607.98
830.749	12419.57
830.935	12657.13
831.12	12581.35
831.305	12104.18
831.491	12222.96
831.676	12409.33
831.861	12757.48
832.047	12304.88
832.232	11940.34
832.417	12569.07
832.602	12560.88
832.788	12077.55
832.973	12214.77
833.158	12558.83
833.343	12567.02
833.528	12333.55
833.714	12313.07
833.899	12345.84
834.084	12839.4
834.269	12331.5
834.454	12216.82
834.639	12464.62
834.824	12616.17
835.009	12063.22
835.194	11938.29
835.379	12843.49
835.564	12757.48
835.749	12241.39
835.934	12124.66
836.119	12425.71
836.304	12182
836.489	11739.64
836.674	12247.54
836.859	12124.66
837.044	12714.47
837.228	12102.13
837.413	11790.84
837.598	12431.85
837.783	12311.02
837.968	11948.53
838.152	11856.37
838.337	11702.78
838.522	12577.26
838.707	12409.33
838.891	12255.73
839.076	12243.44
839.261	12386.8
839.445	11796.98
839.63	12083.7
839.815	12603.88
839.999	11946.48
840.184	11885.05
840.368	11618.81
840.553	12130.8
840.737	12196.34
840.922	11608.57
841.106	11899.38
841.291	11844.09
841.475	11936.24
841.66	11790.84
841.844	11543.03
842.029	12454.38
842.213	11506.17
842.397	11483.64
842.582	11246.08
842.766	12239.34
842.951	11860.47
843.135	11624.95
843.319	11583.99
843.504	11727.35
843.688	12157.43
843.872	11450.88
844.056	11301.37
844.241	11819.51
844.425	11583.99
844.609	11813.37
844.793	11291.13
844.977	12024.31
845.161	11887.09
845.346	11360.77
845.53	11514.36
845.714	11606.52
845.898	12196.34
846.082	11178.5
846.266	11301.37
846.45	11385.34
846.634	11790.84
846.818	11403.77
847.002	11457.02
847.186	11839.99
847.37	11192.83
847.554	11106.82
847.738	11270.65
847.922	11557.37
848.106	11575.8
848.29	11082.24
848.473	11330.05
848.657	11545.08
848.841	11348.48
849.025	11264.51
849.209	11065.86
849.392	11594.23
849.576	11590.14
849.76	10828.29
849.944	11518.46
850.127	11436.54
850.311	11098.63
850.495	10998.27
850.678	11039.23
850.862	11905.52
851.046	11790.84
851.229	11323.9
851.413	10959.36
851.596	11280.89
851.78	11440.64
851.964	11158.02
852.147	11346.43
852.331	12237.3
852.514	11647.48
852.698	11039.23
852.881	10725.9
853.065	11608.57
853.248	11147.78
853.431	11276.8
853.615	10990.08
853.798	11694.58
853.982	11457.02
854.165	11188.74
854.348	10996.23
854.532	10838.53
854.715	11135.49
854.898	10875.4
855.081	10856.97
855.265	11690.49
855.448	11446.78
855.631	10793.48
855.814	10795.53
855.997	11262.46
856.181	10977.8
856.364	10838.53
856.547	10613.26
856.73	10975.75
856.913	10922.5
857.096	10781.19
857.279	10865.16
857.462	10783.24
857.645	11348.48
857.828	10856.97
858.011	10869.25
858.194	10727.94
858.377	11061.76
858.56	10510.86
858.743	10848.77
858.926	10639.88
859.109	11088.39
859.292	10363.4
859.475	10557.96
859.658	11174.4
859.841	11188.74
860.023	10437.13
860.206	10588.68
860.389	10899.97
860.572	11180.54
860.755	10449.42
860.937	10279.44
861.12	10691.08
861.303	10756.61
861.486	10416.65
861.668	10185.23
861.851	10791.43
862.034	10809.86
862.216	10494.47
862.399	10170.9
862.581	10537.48
862.764	10875.4
862.947	10351.12
863.129	10299.92
863.312	10410.51
863.494	10588.68
863.677	10357.26
863.859	9978.39
864.042	10641.93
864.224	10691.08
864.406	10353.16
864.589	9980.43
864.771	10506.76
864.954	10156.56
865.136	9875.99
865.318	9859.6
865.501	10383.88
865.683	9908.76
865.865	10134.03
866.048	10086.93
866.23	10318.35
866.412	10099.22
866.594	9855.51
866.777	10043.92
866.959	10365.45
867.141	10041.87
867.323	10213.9
867.505	10177.04
867.687	10385.93
867.869	10322.45
868.052	10091.02
868.234	9626.14
868.416	10111.5
868.598	10402.32
868.78	9847.32
868.962	9744.92
869.144	10609.16
869.326	10125.84
869.508	9949.71
869.69	9949.71
869.872	9869.84
870.054	10510.86
870.236	9640.47
870.417	10037.78
870.599	9847.32
870.781	10459.66
870.963	9775.64
871.145	9830.93
871.327	9691.67
871.508	10539.53
871.69	9957.91
871.872	10041.87
872.054	10158.61
872.235	10265.1
872.417	9898.52
872.599	9742.87
872.78	10600.97
872.962	10168.85
873.144	9630.23
873.325	9978.39
873.507	10531.34
873.689	10170.9
873.87	9634.33
874.052	9808.4
874.233	10072.59
874.415	10152.46
874.596	9804.31
874.778	9835.03
874.959	10314.25
875.141	10256.91
875.322	9822.74
875.503	9695.77
875.685	10371.6
875.866	9683.48
876.048	9800.21
876.229	9683.48
876.41	10045.97
876.592	10082.83
876.773	9783.83
876.954	9628.18
877.136	10543.63
877.317	10068.5
877.498	9929.24
877.679	9867.8
877.86	10359.31
878.042	10322.45
878.223	10029.59
878.404	10316.3
878.585	10408.46
878.766	10613.26
878.947	10396.17
879.128	10166.8
879.309	10324.49
879.49	10467.85
879.672	10244.62
879.853	9982.48
880.034	10050.07
880.215	10289.68
880.396	10205.71
880.576	9996.82
880.757	10279.44
880.938	10740.23
881.119	10045.97
881.3	10060.31
881.481	10283.53
881.662	11035.14
881.843	10002.96
882.023	10062.35
882.204	10402.32
882.385	10627.59
882.566	10142.22
882.747	10177.04
882.927	10596.87
883.108	10627.59
883.289	10248.72
883.469	10560.01
883.65	10416.65
883.831	10723.85
884.011	10492.43
884.192	10594.83
884.373	10781.19
884.553	10707.46
884.734	10547.72
884.914	10682.89
885.095	11340.29
885.275	11080.19
885.456	10885.64
885.636	10404.36
885.817	10715.66
885.997	10738.18
886.178	10582.54
886.358	10549.77
886.538	10947.08
886.719	11749.88
886.899	10562.06
887.08	10668.55
887.26	10985.99
887.44	10756.61
887.621	10629.64
887.801	10703.37
887.981	11684.34
888.161	11147.78
888.342	10691.08
888.522	10723.85
888.702	11106.82
888.882	11481.6
889.062	11119.1
889.242	10316.3
889.423	11459.07
889.603	11190.78
889.783	10795.53
889.963	10652.17
890.143	11145.73
890.323	11344.38
890.503	10904.07
890.683	10773
890.863	11123.2
891.043	11129.34
891.223	10758.66
891.403	10664.46
891.583	11055.62
891.763	11014.66
891.943	10775.05
892.122	10686.98
892.302	11207.17
892.482	10945.03
892.662	10715.66
892.842	10963.46
893.022	11125.25
893.201	11047.43
893.381	11166.21
893.561	10588.68
893.741	11346.43
893.92	11338.24
894.1	10801.67
894.28	10928.64
894.459	11383.29
894.639	11350.53
894.819	10981.89
894.998	10889.73
895.178	11313.66
895.357	11203.07
895.537	10940.93
895.716	10891.78
895.896	11149.82
896.075	11444.73
896.255	10725.9
896.434	10545.67
896.614	11514.36
896.793	11387.39
896.973	10795.53
897.152	10662.41
897.331	11272.7
897.511	11477.5
897.69	10631.69
897.87	10830.34
898.049	11055.62
898.228	11188.74
898.407	11223.55
898.587	10998.27
898.766	10945.03
898.945	11231.74
899.124	11010.56
899.304	10770.95
899.483	11246.08
899.662	11571.71
899.841	10635.78
900.02	10985.99
900.199	11393.53
900.378	11117.06
900.557	10639.88
900.737	10473.99
900.916	11123.2
901.095	11229.7
901.274	11037.19
901.453	10539.53
901.632	10752.52
901.811	10705.42
901.989	10469.9
902.168	10553.87
902.347	11016.71
902.526	10797.57
902.705	10557.96
902.884	10555.91
903.063	11192.83
903.242	11268.61
903.42	10582.54
903.599	10576.39
903.778	11145.73
903.957	11082.24
904.135	10828.29
904.314	10363.4
904.493	10949.12
904.672	10797.57
904.85	10523.15
905.029	10324.49
905.207	10719.75
905.386	11450.88
905.565	10306.06
905.743	10457.61
905.922	10564.11
906.1	10822.15
906.279	10129.94
906.457	10340.88
906.636	10471.95
906.814	10414.6
906.993	10201.61
907.171	10336.78
907.35	10766.85
907.528	10695.18
907.707	10498.57
907.885	10031.63
908.063	10775.05
908.242	10723.85
908.42	10136.08
908.598	9859.6
908.777	10426.89
908.955	10342.92
909.133	10353.16
909.311	9798.17
909.49	10127.89
909.668	10201.61
909.846	10056.21
910.024	9538.07
910.202	10330.64
910.38	10365.45
910.559	9841.17
910.737	9695.77
910.915	10486.28
911.093	10293.77
911.271	9849.36
911.449	10369.55
911.627	10271.25
911.805	10773
911.983	9955.86
912.161	9720.34
912.339	10056.21
912.517	10203.66
912.695	9976.34
912.872	9722.39
913.05	9863.7
913.228	9931.28
913.406	9470.49
913.584	9671.19
913.762	9986.58
913.939	9919
914.117	9445.91
914.295	9484.83
914.473	9869.84
914.65	10052.11
914.828	9480.73
915.006	9259.55
915.184	9519.64
915.361	9695.77
915.539	9480.73
915.716	9671.19
915.894	9650.71
916.072	9736.73
916.249	9443.87
916.427	9310.75
916.604	9359.9
916.782	9597.46
916.959	9093.66
917.137	9200.16
917.314	9667.1
917.492	9320.99
917.669	9216.54
917.847	9146.91
918.024	9368.09
918.201	9220.64
918.379	9083.42
918.556	9003.55
918.733	9650.71
918.911	9064.99
919.088	9112.1
919.265	8981.03
919.442	9234.97
919.62	9136.67
919.797	8852
919.974	8682.02
920.151	9050.66
920.328	9073.18
920.506	8520.23
920.683	8972.83
920.86	8899.11
921.037	8809
921.214	8616.49
921.391	8593.96
921.568	9058.85
921.745	8661.54
921.922	8684.07
922.099	8487.47
922.276	8991.27
922.453	8917.54
922.63	8577.58
922.807	8528.42
922.984	8653.35
923.161	8514.09
923.338	8395.31
923.514	8307.24
923.691	8639.01
923.868	8809
924.045	8129.07
924.222	8079.92
924.399	8315.44
924.575	8716.84
924.752	8260.14
924.929	8354.35
925.105	8323.63
925.282	8073.78
925.459	8198.7
925.635	8053.3
925.812	8249.9
925.989	8034.86
926.165	8286.76
926.342	7770.68
926.518	7832.12
926.695	8088.11
926.871	7813.68
927.048	7590.45
927.224	8043.06
927.401	7926.32
927.577	7893.55
927.754	7420.47
927.93	8233.52
928.107	7903.79
928.283	7600.69
928.459	7655.99
928.636	7848.5
928.812	7760.44
928.988	7324.22
929.165	7197.24
929.341	7699
929.517	7635.51
929.693	7809.59
929.87	6924.86
930.046	7830.07
930.222	7434.81
930.398	7227.96
930.574	7348.79
930.751	7402.04
930.927	7180.86
931.103	7203.39
931.279	7320.12
931.455	7127.61
931.631	7287.36
931.807	6769.22
931.983	7014.98
932.159	6971.97
932.335	7107.13
932.511	6775.36
932.687	6801.99
932.863	7014.98
933.039	7031.36
933.215	6615.62
933.391	6412.87
933.566	6711.88
933.742	6838.85
933.918	6511.18
934.094	6226.51
934.27	6650.44
934.445	6758.98
934.621	6558.28
934.797	6177.36
934.973	6761.03
935.148	6531.65
935.324	6025.81
935.5	5782.1
935.675	6535.75
935.851	5947.98
936.027	5814.87
936.202	5753.43
936.378	6060.62
936.553	5620.31
936.729	5952.08
936.904	5339.74
937.08	5466.71
937.255	5030.49
937.431	5089.88
937.606	4952.67
937.782	5247.58
937.957	5089.88
938.133	5112.41
938.308	4762.21
938.483	4846.18
938.659	4620.9
938.834	4688.48
939.009	4299.37
939.185	4653.67
939.36	4401.77
939.535	4211.31
939.71	4362.86
939.886	4588.13
940.061	4571.75
940.236	4373.1
940.411	4151.92
940.586	4307.56
940.761	4502.12
940.937	3883.63
941.112	3908.21
941.287	4223.59
941.462	3981.93
941.637	3795.57
941.812	3717.75
941.987	3934.83
942.162	3902.06
942.337	3766.9
942.512	3547.76
942.687	4123.24
942.862	4084.33
943.037	3531.38
943.212	3177.08
943.386	3740.27
943.561	3787.38
943.736	3734.13
943.911	3875.44
944.086	3830.38
944.26	3764.85
944.435	3351.16
944.61	3525.24
944.785	3949.17
944.959	4213.35
945.134	3494.52
945.309	3289.72
945.483	3492.47
945.658	3879.54
945.833	3287.67
946.007	3230.33
946.182	4022.89
946.357	3381.88
946.531	3187.32
946.706	3320.44
946.88	3252.86
947.055	3676.79
947.229	3293.82
947.404	3336.82
947.578	3828.34
947.752	3558
947.927	3416.69
948.101	3168.89
948.276	3635.83
948.45	3705.46
948.624	3474.04
948.799	3400.31
948.973	3621.49
949.147	3414.65
949.321	3424.89
949.496	3330.68
949.67	3992.17
949.844	3410.55
950.018	3578.48
950.193	3281.53
950.367	4156.01
950.541	3584.63
950.715	3461.75
950.889	3570.29
951.063	3543.67
951.237	3791.47
951.411	3228.28
951.585	3226.23
951.759	3773.04
951.933	3621.49
952.107	3330.68
952.281	3662.45
952.455	3850.86
952.629	3873.39
952.803	3367.54
952.977	3193.47
953.151	3764.85
953.325	3795.57
953.499	3506.81
953.672	3304.06
953.846	3451.51
954.02	3449.46
954.194	3242.62
954.368	3394.17
954.541	3744.37
954.715	3594.87
954.889	3558
955.062	3179.13
955.236	3555.96
955.41	3648.11
955.583	3471.99
955.757	3256.95
955.93	3465.85
956.104	3203.71
956.278	3195.51
956.451	3254.9
956.625	3644.02
956.798	3910.25
956.972	3664.5
957.145	3246.71
957.319	3496.57
957.492	3553.91
957.665	3357.3
957.839	3244.67
958.012	3555.96
958.185	3451.51
958.359	3271.29
958.532	3637.88
958.705	3654.26
958.879	3576.44
959.052	3396.21
959.225	3048.06
959.398	3486.33
959.572	3637.88
959.745	3240.57
959.918	3334.78
960.091	3467.89
960.264	3562.1
960.438	3066.49
960.611	3084.92
960.784	3662.45
960.957	3330.68
961.13	3543.67
961.303	3211.9
961.476	3400.31
961.649	3572.34
961.822	3046.01
961.995	3224.19
962.168	3562.1
962.341	3551.86
962.514	2914.94
962.686	3158.65
962.859	3461.75
963.032	3682.93
963.205	3250.81
963.378	2927.23
963.551	3449.46
963.723	3322.49
963.896	3351.16
964.069	3428.98
964.242	3385.97
964.414	3646.07
964.587	3285.62
964.76	3310.2
964.932	3377.78
965.105	3302.01
965.278	3054.2
965.45	3066.49
965.623	3228.28
965.795	3707.51
965.968	3105.4
966.14	3160.7
966.313	3209.85
966.485	3353.21
966.658	3146.36
966.83	3005.05
967.003	3492.47
967.175	3428.98
967.348	3056.25
967.52	3086.97
967.692	3814
967.865	3453.56
968.037	3121.79
968.209	3263.1
968.382	3324.54
968.554	3564.15
968.726	3123.84
968.898	3017.34
969.071	3400.31
969.243	3392.12
969.415	3089.02
969.587	3109.5
969.759	3773.04
969.932	3371.64
970.104	3025.53
970.276	2710.15
970.448	3105.4
970.62	3064.44
970.792	3089.02
970.964	3080.83
971.136	3678.83
971.308	3240.57
971.48	2800.26
971.652	2910.85
971.824	3484.28
971.996	2998.91
972.168	2994.81
972.339	2933.37
972.511	3383.93
972.683	2998.91
972.855	3121.79
973.027	2892.41
973.199	3062.4
973.37	3215.99
973.542	3140.22
973.714	2900.61
973.886	3142.27
974.057	3238.52
974.229	2798.21
974.401	2998.91
974.572	2990.72
974.744	2687.62
974.915	2749.06
975.087	2826.88
975.259	3451.51
975.43	2970.24
975.602	2847.36
975.773	2790.02
975.945	2771.58
976.116	3226.23
976.288	2646.66
976.459	3136.12
976.63	2935.42
976.802	3048.06
976.973	2708.1
977.145	2859.65
977.316	3512.95
977.487	2986.62
977.659	2847.36
977.83	2624.13
978.001	3353.21
978.172	2990.72
978.344	2632.32
978.515	2871.93
978.686	2851.46
978.857	3326.58
979.028	2794.11
979.2	2534.02
979.371	3095.16
979.542	2929.28
979.713	2792.06
979.884	2273.93
980.055	2671.23
980.226	2826.88
980.397	2433.67
980.568	2646.66
980.739	3150.46
980.91	2822.78
981.081	2751.1
981.252	2484.87
981.423	2994.81
981.594	3056.25
981.765	2525.83
981.936	2617.99
982.106	2974.33
982.277	3074.68
982.448	2599.55
982.619	2624.13
982.79	2689.67
982.96	3113.6
983.131	2478.72
983.302	2458.25
983.472	2650.75
983.643	3003
983.814	2622.08
983.984	2654.85
984.155	2685.57
984.326	2990.72
984.496	2642.56
984.667	2484.87
984.837	2675.33
985.008	3003
985.178	2675.33
985.349	2464.39
985.519	2640.51
985.69	2394.76
985.86	2445.96
986.031	2513.54
986.201	2826.88
986.371	2673.28
986.542	2243.21
986.712	2169.48
986.882	2826.88
987.053	2736.77
987.223	2298.5
987.393	2450.05
987.563	2491.01
987.734	2773.63
987.904	2632.32
988.074	2247.3
988.244	2720.39
988.414	2493.06
988.585	2261.64
988.755	2402.95
988.925	2493.06
989.095	2886.27
989.265	2378.37
989.435	2337.41
989.605	2738.82
989.775	2742.91
989.945	2716.29
990.115	2151.05
990.285	2568.84
990.455	2568.84
990.625	2564.74
990.795	2149
990.965	2716.29
991.134	2257.54
991.304	2343.56
991.474	2232.97
991.644	2587.27
991.814	2790.02
991.984	1966.73
992.153	2155.15
992.323	2275.98
992.493	2527.88
992.662	1950.35
992.832	2286.22
993.002	2448.01
993.171	2423.43
993.341	2128.52
993.511	2228.87
993.68	2263.69
993.85	2491.01
994.019	1979.02
994.189	2081.42
994.358	2488.96
994.528	2290.31
994.697	1952.4
994.867	2017.93
995.036	2474.63
995.206	2269.83
995.375	1958.54
995.544	2265.74
995.714	2466.44
995.883	2353.8
996.052	2239.11
996.222	1925.77
996.391	2820.74
996.56	2341.51
996.73	2019.98
996.899	1915.53
997.068	2663.04
997.237	2327.18
997.406	1933.97
997.576	1841.81
997.745	2165.39
997.914	2513.54
998.083	1794.7
998.252	1880.72
998.421	2257.54
998.59	1976.97
998.759	1886.86
998.928	1792.66
999.097	2564.74
999.266	2314.89
999.435	1952.4
999.604	1768.08
999.773	2761.34
999.942	2204.3
1000.111	1727.12
1000.28	1655.44
1000.448	1942.16
1000.617	1917.58
1000.786	2060.94
1000.955	1788.56
1001.124	2251.4
1001.292	2820.74
1001.461	1825.42
1001.63	1770.13
1001.798	2519.68
1001.967	2433.67
1002.136	1641.11
1002.304	1737.36
1002.473	2187.91
1002.642	2058.89
1002.81	1852.05
1002.979	1675.92
1003.147	2327.18
1003.316	2613.89
1003.484	1677.97
1003.653	1608.34
1003.821	2396.81
1003.99	2011.79
1004.158	1970.83
1004.327	1806.99
1004.495	2124.43
1004.663	1884.81
1004.832	1776.27
1005	1591.95
1005.168	2173.58
1005.337	1960.59
1005.505	1485.46
1005.673	1770.13
1005.842	2099.85
1006.01	2077.32
1006.178	1677.97
1006.346	1604.24
1006.514	2032.27
1006.683	2175.63
1006.851	1671.83
1007.019	1387.16
1007.187	1780.37
1007.355	1389.21
1007.523	1383.06
1007.691	1460.88
1007.859	1479.32
1008.027	2110.09
1008.195	1606.29
1008.363	1413.78
1008.531	2017.93
1008.699	1761.94
1008.867	1501.84
1009.035	1432.21
1009.203	2073.23
1009.37	1944.2
1009.538	1553.04
1009.706	1901.2
1009.874	1866.38
1010.042	1811.09
1010.209	1428.12
1010.377	1407.64
1010.545	1991.31
1010.713	1837.71
1010.88	1450.64
1011.048	1530.52
1011.216	1698.45
1011.383	2118.28
1011.551	1405.59
1011.718	1387.16
1011.886	2097.8
1012.054	1755.79
1012.221	1237.66
1012.389	1421.97
1012.556	1610.39
1012.724	2140.81
1012.891	1462.93
1013.058	1256.09
1013.226	1905.29
1013.393	1845.9
1013.561	1249.94
1013.728	1282.71
1013.895	1915.53
1014.063	1858.19
1014.23	1133.21
1014.397	1319.57
1014.565	1878.67
1014.732	1430.16
1014.899	1272.47
1015.066	1168.02
1015.233	1550.99
1015.401	1786.51
1015.568	1358.49
1015.735	1532.56
1015.902	1589.91
1016.069	1723.02
1016.236	1276.57
1016.403	1122.97
1016.57	1356.44
1016.737	1704.59
1016.904	1307.29
1017.071	1104.54
1017.238	1411.73
1017.405	1747.6
1017.572	1184.41
1017.739	1446.55
1017.906	1757.84
1018.073	1667.73
1018.24	1106.59
1018.407	1352.34
1018.573	1733.26
1018.74	1550.99
1018.907	1233.56
1019.074	975.52
1019.241	1565.33
1019.407	1483.41
1019.574	1163.93
1019.741	924.32
1019.907	1460.88
1020.074	1565.33
1020.241	848.54
1020.407	1059.48
1020.574	1475.22
1020.74	1532.56
1020.907	1028.76
1021.073	1034.91
1021.24	1999.5
1021.406	1700.5
1021.573	1051.29
1021.739	1059.48
1021.906	1710.74
1022.072	1360.53
1022.239	1061.53
1022.405	1041.05
1022.571	1424.02
1022.738	1192.6
1022.904	918.17
1023.07	1053.34
1023.237	1362.58
1023.403	1604.24
1023.569	1018.52
1023.735	1077.91
1023.902	1536.66
1024.068	1297.05
1024.234	848.54
1024.4	942.75
1024.566	1317.53
1024.732	1514.13
1024.898	1032.86
1025.065	762.53
1025.231	1495.7
1025.397	1198.74
1025.563	1020.57
1025.729	883.36
1025.895	715.42
1026.061	1143.45
1026.227	787.1
1026.392	862.88
1026.558	1442.45
1026.724	1362.58
1026.89	914.08
1027.056	1024.67
1027.222	1329.81
1027.388	1190.55
1027.553	834.21
1027.719	785.05
1027.885	1680.02
1028.051	1335.96
1028.216	617.12
1028.382	905.88
1028.548	1507.99
1028.713	1180.31
1028.879	735.9
1029.045	1073.82
1029.21	1561.23
1029.376	1469.08
1029.541	918.17
1029.707	797.34
1029.873	1352.34
1030.038	1350.29
1030.204	748.19
1030.369	821.92
1030.534	1409.69
1030.7	1024.67
1030.865	823.97
1031.031	733.86
1031.196	1270.42
1031.361	1163.93
1031.527	701.09
1031.692	670.37
1031.857	692.9
1032.023	1264.28
1032.188	672.42
1032.353	895.64
1032.518	1612.43
1032.684	1155.74
1032.849	598.69
1033.014	717.47
1033.179	1198.74
1033.344	1235.61
1033.509	787.1
1033.674	705.18
1033.839	1254.04
1034.004	1276.57
1034.17	627.36
1034.335	649.89
1034.5	909.98
1034.664	973.47
1034.829	668.32
1034.994	615.07
1035.159	1114.78
1035.324	1141.4
1035.489	719.52
1035.654	608.93
1035.819	1442.45
1035.984	1161.88
1036.148	740
1036.313	549.54
1036.478	1231.51
1036.643	1012.38
1036.807	586.4
1036.972	492.2
1037.137	1321.62
1037.301	971.42
1037.466	459.43
1037.631	635.55
1037.795	1274.52
1037.96	1073.82
1038.124	823.97
1038.289	582.31
1038.454	1163.93
1038.618	1073.82
1038.783	635.55
1038.947	746.14
1039.111	918.17
1039.276	783.01
1039.44	492.2
1039.605	1057.43
1039.769	864.93
1039.933	1000.09
1040.098	664.22
1040.262	797.34
1040.426	1065.63
1040.591	1010.33
1040.755	516.77
1040.919	447.14
1041.083	1036.95
1041.248	834.21
1041.412	361.13
1041.576	469.67
1041.74	783.01
1041.904	961.18
1042.068	420.52
1042.232	527.01
1042.397	1159.83
1042.561	950.94
1042.725	277.16
1042.889	660.13
1043.053	998.04
1043.217	1049.24
1043.381	592.55
1043.544	309.93
1043.708	1163.93
1043.872	535.2
1044.036	172.71
1044.2	404.13
1044.364	1155.74
1044.528	1213.08
1044.691	5313.11
1044.855	373.41
1045.019	1114.78
1045.183	1022.62
1045.346	395.94
1045.51	330.41
1045.674	940.7
1045.837	950.94
1046.001	352.93
1046.165	311.97
1046.328	1444.5
1046.492	973.47
1046.655	547.49
1046.819	477.86
1046.983	668.32
1047.146	819.87
1047.31	567.97
1047.473	234.15
1047.636	832.16
1047.8	647.84
1047.963	369.32
1048.127	389.8
1048.29	565.92
