Data from Ink_Intensity_USB4F045381__114__00114.txt Node

Date: Mon Jul 17 11:09:39 EDT 2023
User: mmckonesweet
Spectrometer: USB4F04538
Trigger mode: 4
Integration Time (sec): 9.000000E-1
Scans to average: 1
Electric dark correction enabled: true
Nonlinearity correction enabled: false
Boxcar width: 0
XAxis mode: Wavelengths
Number of Pixels in Spectrum: 3648
>>>>>Begin Spectral Data<<<<<
345.52	-981.15
345.736	-981.15
345.952	-981.15
346.168	-1007.77
346.384	-966.81
346.6	-157.86
346.816	-317.61
347.032	-239.78
347.248	255.83
347.464	-184.49
347.68	-49.32
347.896	145.24
348.112	333.65
348.328	-125.1
348.544	-47.27
348.76	59.22
348.975	327.5
349.191	-178.34
349.407	-217.26
349.623	83.8
349.839	10.07
350.055	-116.9
350.27	-22.7
350.486	196.43
350.702	317.26
350.918	206.67
351.133	-223.4
351.349	104.28
351.565	345.94
351.781	-223.4
351.996	18.26
352.212	288.59
352.428	-47.27
352.644	-227.5
352.859	-219.3
353.075	327.5
353.291	112.47
353.506	-80.04
353.722	-213.16
353.938	-57.51
354.153	487.25
354.369	114.52
354.584	-247.97
354.8	268.11
355.016	-293.03
355.231	-198.82
355.447	-102.57
355.662	108.37
355.878	810.82
356.093	-354.47
356.309	-57.51
356.524	-256.17
356.74	233.3
356.955	-262.31
357.171	-34.99
357.386	149.33
357.602	-123.05
357.817	-14.51
358.033	-143.53
358.248	350.03
358.464	272.21
358.679	-174.25
358.895	-260.26
359.11	-45.23
359.325	264.02
359.541	69.46
359.756	61.27
359.972	-243.88
360.187	153.43
360.402	-223.4
360.618	-149.67
360.833	970.57
361.048	141.14
361.264	-166.06
361.479	-24.75
361.694	-6.31
361.909	233.3
362.125	-108.71
362.34	-92.33
362.555	253.78
362.77	210.77
362.986	-350.37
363.201	-219.3
363.416	210.77
363.631	10.07
363.847	-229.54
364.062	-96.43
364.277	214.87
364.492	149.33
364.707	-194.73
364.922	-282.79
365.138	296.78
365.353	374.61
365.568	-258.21
365.783	-141.48
365.998	67.41
366.213	481.1
366.428	-233.64
366.643	24.4
366.858	247.63
367.073	245.59
367.288	-123.05
367.503	-221.35
367.718	126.8
367.933	272.21
368.148	-184.49
368.363	-26.79
368.578	30.55
368.793	423.76
369.008	-194.73
369.223	-299.17
369.438	218.96
369.653	464.72
369.868	-250.02
370.083	-282.79
370.298	89.94
370.513	321.36
370.728	26.45
370.943	-174.25
371.157	-147.62
371.372	563.02
371.587	-245.93
371.802	-278.69
372.017	124.76
372.232	405.33
372.446	-84.14
372.661	-221.35
372.876	231.25
373.091	132.95
373.306	-92.33
373.52	-221.35
373.735	-112.81
373.95	366.42
374.165	-90.28
374.379	-215.21
374.594	-155.82
374.809	91.99
375.023	57.17
375.238	-270.5
375.453	186.19
375.667	-221.35
375.882	-161.96
376.097	-114.86
376.311	96.08
376.526	22.36
376.741	-219.3
376.955	91.99
377.17	579.4
377.384	534.35
377.599	-65.71
377.813	-186.54
378.028	558.92
378.242	255.83
378.457	-65.71
378.672	-366.76
378.886	104.28
379.101	34.64
379.315	-366.76
379.53	-170.15
379.744	202.58
379.958	204.63
380.173	-104.62
380.387	-170.15
380.602	192.34
380.816	-100.52
381.031	-127.14
381.245	-159.91
381.459	194.39
381.674	2647.85
381.888	-258.21
382.103	87.89
382.317	-143.53
382.531	472.91
382.746	-22.7
382.96	-139.43
383.174	-86.19
383.388	499.53
383.603	67.41
383.817	-274.6
384.031	221.01
384.246	517.97
384.46	-0.17
384.674	247.63
384.888	71.51
385.103	71.51
385.317	-272.55
385.531	-0.17
385.745	378.7
385.959	210.77
386.174	-178.34
386.388	-196.78
386.602	24.4
386.816	-159.91
387.03	5.97
387.244	-110.76
387.458	-2.22
387.672	399.18
387.887	-245.93
388.101	-358.57
388.315	376.66
388.529	147.28
388.743	-217.26
388.957	-211.11
389.171	292.69
389.385	-135.34
389.599	-49.32
389.813	73.56
390.027	159.57
390.241	679.75
390.455	-112.81
390.669	-86.19
390.883	-37.03
391.097	347.98
391.311	61.27
391.525	-104.62
391.738	202.58
391.952	249.68
392.166	-59.56
392.38	-223.4
392.594	386.9
392.808	304.98
393.022	-100.52
393.236	-178.34
393.449	198.48
393.663	192.34
393.877	-223.4
394.091	-55.47
394.305	-86.19
394.518	-73.9
394.732	-247.97
394.946	-86.19
395.16	374.61
395.373	104.28
395.587	-258.21
395.801	-182.44
396.015	288.59
396.228	255.83
396.442	-354.47
396.656	-360.61
396.869	327.5
397.083	460.62
397.297	-24.75
397.51	-139.43
397.724	372.56
397.938	178
398.151	-241.83
398.365	-274.6
398.578	247.63
398.792	386.9
399.005	-104.62
399.219	-196.78
399.433	178
399.646	225.11
399.86	22.36
400.073	55.12
400.287	313.17
400.5	-6.31
400.714	110.42
400.927	-20.65
401.141	173.91
401.354	1134.4
401.567	188.24
401.781	-241.83
401.994	341.84
402.208	575.31
402.421	-121
402.635	-118.95
402.848	-10.41
403.061	341.84
403.275	18.26
403.488	-157.86
403.701	390.99
403.915	266.07
404.128	48.98
404.341	-161.96
404.555	198.48
404.768	137.04
404.981	-34.99
405.195	-223.4
405.408	495.44
405.621	307.02
405.834	24.4
406.048	-215.21
406.261	470.86
406.474	503.63
406.687	-243.88
406.9	-14.51
407.114	59.22
407.327	132.95
407.54	-268.45
407.753	-260.26
407.966	-30.89
408.179	233.3
408.392	-186.54
408.605	-202.92
408.819	87.89
409.032	104.28
409.245	-225.45
409.458	28.5
409.671	321.36
409.884	280.4
410.097	-237.74
410.31	-30.89
410.523	247.63
410.736	75.6
410.949	-37.03
411.162	-71.85
411.375	431.95
411.588	319.31
411.801	55.12
412.014	-223.4
412.227	30.55
412.44	-22.7
412.653	-196.78
412.865	5.97
413.078	272.21
413.291	149.33
413.504	-53.42
413.717	-155.82
413.93	313.17
414.143	-96.43
414.356	-49.32
414.568	-225.45
414.781	276.31
414.994	112.47
415.207	-30.89
415.42	-14.51
415.632	350.03
415.845	466.77
416.058	-194.73
416.271	-250.02
416.483	77.65
416.696	550.73
416.909	-194.73
417.121	-133.29
417.334	214.87
417.547	567.12
417.759	-213.16
417.972	-207.02
418.185	-28.84
418.397	266.07
418.61	-184.49
418.823	-143.53
419.035	388.94
419.248	108.37
419.46	-32.94
419.673	-92.33
419.885	231.25
420.098	-22.7
420.311	-178.34
420.523	-309.41
420.736	264.02
420.948	120.66
421.161	-147.62
421.373	-321.7
421.586	188.24
421.798	-45.23
422.01	-336.04
422.223	-24.75
422.435	-67.75
422.648	208.72
422.86	-147.62
423.073	-112.81
423.285	325.46
423.497	-186.54
423.71	-182.44
423.922	-141.48
424.134	145.24
424.347	452.43
424.559	100.18
424.771	118.61
424.984	51.03
425.196	206.67
425.408	-325.8
425.621	-184.49
425.833	288.59
426.045	354.13
426.257	-166.06
426.47	-137.38
426.682	192.34
426.894	247.63
427.106	-121
427.318	-104.62
427.531	-45.23
427.743	186.19
427.955	-174.25
428.167	206.67
428.379	143.19
428.591	51.03
428.804	-104.62
429.016	-174.25
429.228	-127.14
429.44	339.79
429.652	61.27
429.864	-207.02
430.076	28.5
430.288	63.32
430.5	-16.55
430.712	-12.46
430.924	317.26
431.136	165.71
431.348	-303.27
431.56	-170.15
431.772	126.8
431.984	-22.7
432.196	-137.38
432.408	-221.35
432.62	3.93
432.832	137.04
433.044	51.03
433.256	-6.31
433.468	204.63
433.679	-209.06
433.891	-225.45
434.103	79.7
434.315	536.4
434.527	249.68
434.739	-112.81
434.95	-168.1
435.162	331.6
435.374	-0.17
435.586	-137.38
435.798	-69.8
436.009	-168.1
436.221	24.4
436.433	-159.91
436.645	-116.9
436.856	8.02
437.068	315.22
437.28	-170.15
437.491	102.23
437.703	147.28
437.915	188.24
438.126	-118.95
438.338	3.93
438.55	26.45
438.761	178
438.973	-106.67
439.184	-131.24
439.396	10.07
439.608	313.17
439.819	-274.6
440.031	1.88
440.242	194.39
440.454	227.15
440.665	-121
440.877	-37.03
441.088	124.76
441.3	42.84
441.511	-276.65
441.723	-235.69
441.934	208.72
442.146	165.71
442.357	-6.31
442.569	178
442.78	55.12
442.991	427.85
443.203	186.19
443.414	-264.36
443.626	384.85
443.837	-37.03
444.048	-268.45
444.26	-276.65
444.471	83.8
444.682	345.94
444.894	-327.85
445.105	-340.13
445.316	300.88
445.528	186.19
445.739	5.97
445.95	-90.28
446.161	186.19
446.373	370.51
446.584	-77.99
446.795	-106.67
447.006	247.63
447.217	526.16
447.429	-305.32
447.64	-243.88
447.851	382.8
448.062	167.76
448.273	-243.88
448.484	-252.07
448.695	264.02
448.907	10.07
449.118	-47.27
449.329	149.33
449.54	-100.52
449.751	-186.54
449.962	-67.75
450.173	-73.9
450.384	274.26
450.595	386.9
450.806	-149.67
451.017	-133.29
451.228	481.1
451.439	304.98
451.65	-202.92
451.861	-397.48
452.072	-67.75
452.283	61.27
452.494	75.6
452.705	-153.77
452.915	438.09
453.126	194.39
453.337	-137.38
453.548	-137.38
453.759	464.72
453.97	681.8
454.181	44.88
454.391	-106.67
454.602	57.17
454.813	325.46
455.024	-86.19
455.235	-133.29
455.445	200.53
455.656	194.39
455.867	5.97
456.078	-170.15
456.288	46.93
456.499	280.4
456.71	-235.69
456.921	135
457.131	139.09
457.342	147.28
457.553	-69.8
457.763	-118.95
457.974	298.83
458.184	325.46
458.395	-288.93
458.606	-264.36
458.816	458.57
459.027	618.32
459.237	44.88
459.448	-252.07
459.659	403.28
459.869	587.6
460.08	-194.73
460.29	-41.13
460.501	573.26
460.711	-69.8
460.922	-295.08
461.132	-96.43
461.343	710.47
461.553	-190.63
461.764	-143.53
461.974	-80.04
462.184	311.12
462.395	206.67
462.605	-98.47
462.816	-157.86
463.026	122.71
463.236	407.38
463.447	-125.1
463.657	-157.86
463.867	460.62
464.078	40.79
464.288	-100.52
464.498	-161.96
464.709	165.71
464.919	108.37
465.129	-116.9
465.339	-129.19
465.55	173.91
465.76	347.98
465.97	-39.08
466.18	-26.79
466.391	413.52
466.601	229.2
466.811	-41.13
467.021	-256.17
467.231	227.15
467.441	386.9
467.651	-63.66
467.862	-231.59
468.072	26.45
468.282	520.01
468.492	-137.38
468.702	26.45
468.912	132.95
469.122	759.63
469.332	155.47
469.542	-125.1
469.752	339.79
469.962	157.52
470.172	-110.76
470.382	-112.81
470.592	245.59
470.802	522.06
471.012	100.18
471.222	-170.15
471.432	388.94
471.642	411.47
471.852	22.36
472.062	-182.44
472.272	126.8
472.482	-55.47
472.691	-100.52
472.901	-166.06
473.111	245.59
473.321	655.18
473.531	-161.96
473.741	3.93
473.95	395.09
474.16	411.47
474.37	71.51
474.58	-200.87
474.79	632.65
474.999	407.38
475.209	-147.62
475.419	-49.32
475.628	124.76
475.838	522.06
476.048	59.22
476.258	-170.15
476.467	495.44
476.677	-12.46
476.886	188.24
477.096	77.65
477.306	83.8
477.515	579.4
477.725	14.17
477.935	110.42
478.144	479.05
478.354	46.93
478.563	-0.17
478.773	-108.71
478.982	495.44
479.192	571.21
479.401	102.23
479.611	-22.7
479.82	42.84
480.03	347.98
480.239	-32.94
480.449	-149.67
480.658	612.17
480.868	184.15
481.077	116.56
481.287	14.17
481.496	409.42
481.705	626.51
481.915	288.59
482.124	304.98
482.333	343.89
482.543	618.32
482.752	118.61
482.961	42.84
483.171	485.2
483.38	309.07
483.589	137.04
483.799	-6.31
484.008	350.03
484.217	552.78
484.426	151.38
484.636	-10.41
484.845	431.95
485.054	38.74
485.263	427.85
485.472	208.72
485.682	708.43
485.891	386.9
486.1	44.88
486.309	151.38
486.518	569.16
486.727	751.43
486.936	79.7
487.146	261.97
487.355	812.87
487.564	157.52
487.773	255.83
487.982	178
488.191	268.11
488.4	423.76
488.609	173.91
488.818	251.73
489.027	923.46
489.236	804.68
489.445	173.91
489.654	151.38
489.863	675.66
490.072	511.82
490.281	474.96
490.49	186.19
490.698	808.78
490.907	806.73
491.116	208.72
491.325	16.21
491.534	753.48
491.743	524.11
491.952	243.54
492.16	337.74
492.369	603.98
492.578	771.91
492.787	296.78
492.996	104.28
493.204	298.83
493.413	884.55
493.622	-14.51
493.831	-4.27
494.039	870.22
494.248	298.83
494.457	247.63
494.665	87.89
494.874	636.75
495.083	989
495.291	309.07
495.5	198.48
495.709	784.2
495.917	538.45
496.126	405.33
496.335	108.37
496.543	503.63
496.752	599.88
496.96	567.12
497.169	89.94
497.377	569.16
497.586	876.36
497.794	452.43
498.003	48.98
498.211	603.98
498.42	960.33
498.628	329.55
498.837	227.15
499.045	698.19
499.254	579.4
499.462	264.02
499.671	229.2
499.879	1036.1
500.087	876.36
500.296	296.78
500.504	384.85
500.713	749.39
500.921	1167.17
501.129	266.07
501.338	309.07
501.546	692.04
501.754	667.47
501.962	403.28
502.171	302.93
502.379	763.72
502.587	1111.88
502.795	446.29
503.004	444.24
503.212	706.38
503.42	966.47
503.628	395.09
503.837	505.68
504.045	886.6
504.253	1132.36
504.461	411.47
504.669	194.39
504.877	849.74
505.085	1107.78
505.294	302.93
505.502	583.5
505.71	722.76
505.918	888.65
506.126	370.51
506.334	372.56
506.542	640.84
506.75	845.64
506.958	579.4
507.166	528.21
507.374	677.71
507.582	1251.14
507.79	595.79
507.998	456.53
508.206	823.11
508.414	827.21
508.622	452.43
508.83	536.4
509.037	1163.08
509.245	675.66
509.453	472.91
509.661	341.84
509.869	978.76
510.077	759.63
510.285	616.27
510.492	247.63
510.7	1425.22
510.908	718.67
511.116	634.7
511.324	589.64
511.531	733
511.739	923.46
511.947	739.15
512.155	868.17
512.362	902.98
512.57	587.6
512.778	550.73
512.985	339.79
513.193	1056.58
513.401	1281.86
513.608	677.71
513.816	560.97
514.024	1048.39
514.231	1044.29
514.439	548.68
514.646	595.79
514.854	1150.79
515.061	1132.36
515.269	595.79
515.477	673.61
515.684	696.14
515.892	1230.66
516.099	466.77
516.307	436.05
516.514	1126.21
516.722	1324.87
516.929	642.89
517.136	556.88
517.344	1333.06
517.551	1152.84
517.759	575.31
517.966	694.09
518.173	970.57
518.381	1013.57
518.588	724.81
518.796	560.97
519.003	1201.99
519.21	999.24
519.418	618.32
519.625	1052.49
519.832	997.19
520.039	1027.91
520.247	530.25
520.454	829.26
520.661	1138.5
520.868	1140.55
521.076	812.87
521.283	765.77
521.49	1525.57
521.697	1158.98
521.904	804.68
522.112	821.06
522.319	1316.67
522.526	1247.04
522.733	780.11
522.94	812.87
523.147	1095.49
523.354	1269.57
523.561	608.08
523.768	997.19
523.975	1406.78
524.183	1150.79
524.39	974.66
524.597	616.27
524.804	1103.68
525.011	1011.53
525.218	792.39
525.425	862.02
525.632	1472.32
525.838	976.71
526.045	857.93
526.252	866.12
526.459	2246.45
526.666	2008.89
526.873	921.42
527.08	859.98
527.287	1587.01
527.494	1427.26
527.701	874.31
527.907	935.75
528.114	1367.87
528.321	1144.64
528.528	911.18
528.735	907.08
528.941	1091.4
529.148	1070.92
529.355	1021.77
529.562	888.65
529.768	1724.22
529.975	1197.89
530.182	1040.2
530.388	913.22
530.595	1570.62
530.802	980.81
531.008	1075.01
531.215	1083.2
531.422	1681.21
531.628	2017.08
531.835	1173.32
532.042	1095.49
532.248	1222.47
532.455	1423.17
532.661	1130.31
532.868	935.75
533.074	1488.7
533.281	1685.31
533.487	1210.18
533.694	939.85
533.9	1230.66
534.107	1529.66
534.313	1050.44
534.52	1021.77
534.726	1599.29
534.933	1937.21
535.139	1017.67
535.345	911.18
535.552	1613.63
535.758	1529.66
535.965	1228.61
536.171	1175.36
536.377	1701.69
536.584	1871.67
536.79	1154.88
536.996	1263.43
537.203	1587.01
537.409	1595.2
537.615	1171.27
537.821	1433.41
538.028	1730.36
538.234	1763.13
538.44	1285.95
538.646	1361.73
538.853	1785.66
539.059	1451.84
539.265	1681.21
539.471	1056.58
539.677	1779.51
539.883	1486.65
540.09	1238.85
540.296	1765.18
540.502	1517.37
540.708	1392.45
540.914	1447.74
541.12	1394.5
541.326	1797.95
541.532	1605.44
541.738	1490.75
541.944	1468.22
542.15	1914.68
542.356	1625.92
542.562	1261.38
542.768	1425.22
542.974	2324.27
543.18	2273.07
543.386	1478.46
543.592	1189.7
543.798	2004.79
544.004	2033.46
544.21	1316.67
544.415	1492.8
544.621	1812.28
544.827	1953.59
545.033	1380.16
545.239	1740.6
545.445	1615.68
545.651	1836.86
545.856	1496.89
546.062	1423.17
546.268	1736.51
546.474	1836.86
546.679	1578.81
546.885	1673.02
547.091	1744.7
547.297	2344.75
547.502	1627.96
547.708	1410.88
547.914	1736.51
548.119	2008.89
548.325	1511.23
548.531	1476.41
548.736	2223.92
548.942	1664.83
549.147	1599.29
549.353	1732.41
549.559	2266.93
549.764	2076.47
549.97	1677.12
550.175	1656.64
550.381	2158.39
550.586	1828.67
550.792	1634.11
550.997	1656.64
551.203	2041.65
551.408	2111.29
551.614	1550.14
551.819	1718.08
552.025	2453.3
552.23	2398
552.435	1699.64
552.641	1818.43
552.846	1879.86
553.052	2367.28
553.257	1888.06
553.462	1769.27
553.668	1892.15
553.873	2314.03
554.078	1726.27
554.283	1836.86
554.489	2156.34
554.694	2127.67
554.899	1683.26
555.105	2105.14
555.31	2195.25
555.515	2244.4
555.72	2055.99
555.925	1836.86
556.131	2344.75
556.336	2060.09
556.541	1892.15
556.746	1707.84
556.951	2488.11
557.156	2631.47
557.361	2017.08
557.567	2088.76
557.772	2756.4
557.977	2314.03
558.182	1998.65
558.387	1861.43
558.592	2088.76
558.797	2598.7
559.002	2172.72
559.207	2121.52
559.412	2234.16
559.617	2711.34
559.822	1955.64
560.027	1943.35
560.232	2387.76
560.437	2459.44
560.642	1920.82
560.847	1935.16
561.051	2404.14
561.256	2465.58
561.461	2066.23
561.666	1863.48
561.871	2471.73
562.076	2481.97
562.281	2148.15
562.485	2058.04
562.69	2473.78
562.895	2674.48
563.1	2076.47
563.305	2070.33
563.509	2645.8
563.714	3024.68
563.919	2096.95
564.123	2174.77
564.328	2295.6
564.533	2727.72
564.737	2221.88
564.942	2115.38
565.147	2914.09
565.351	3002.15
565.556	2197.3
565.761	2352.95
565.965	2737.96
566.17	2334.51
566.374	2248.5
566.579	2076.47
566.784	2651.95
566.988	2342.71
567.193	2072.37
567.397	2391.86
567.602	2301.75
567.806	2596.65
568.011	2314.03
568.215	2406.19
568.42	2639.66
568.624	2498.35
568.828	2402.1
569.033	2565.93
569.237	2817.83
569.442	2846.51
569.646	2211.64
569.85	2350.9
570.055	2662.19
570.259	2672.43
570.463	2600.75
570.668	2520.88
570.872	2647.85
571.076	2592.56
571.281	2600.75
571.485	2647.85
571.689	2803.5
571.893	2936.62
572.098	2608.94
572.302	2436.91
572.506	2895.66
572.71	2914.09
572.914	2533.17
573.119	2529.07
573.323	3157.8
573.527	3217.19
573.731	2500.4
573.935	2344.75
574.139	3036.97
574.343	2631.47
574.547	2643.76
574.751	2623.28
574.955	3221.28
575.159	3192.61
575.364	2617.13
575.568	2533.17
575.772	2844.46
575.976	3243.81
576.18	2547.5
576.383	2520.88
576.587	3305.25
576.791	3118.89
576.995	2410.29
577.199	2551.6
577.403	3311.39
577.607	3346.21
577.811	2623.28
578.015	2783.02
578.219	3002.15
578.422	3147.56
578.626	2871.08
578.83	3084.07
579.034	3229.48
579.238	3055.4
579.442	2672.43
579.645	3084.07
579.849	3020.58
580.053	3084.07
580.257	2819.88
580.46	3014.44
580.664	3297.06
580.868	3303.2
581.071	3188.52
581.275	2985.77
581.479	2846.51
581.682	3393.31
581.886	2729.77
582.09	3092.26
582.293	3501.86
582.497	3450.66
582.7	3127.08
582.904	2963.24
583.107	3282.72
583.311	3147.56
583.515	2942.76
583.718	3102.5
583.922	3411.75
584.125	3780.38
584.329	2891.56
584.532	3174.18
584.735	3723.04
584.939	3331.87
585.142	2932.52
585.346	3055.4
585.549	3512.1
585.753	3188.52
585.956	3090.21
586.159	3295.01
586.363	3854.11
586.566	3512.1
586.769	3061.54
586.973	2979.62
587.176	3673.89
587.379	3809.05
587.582	3452.7
587.786	3323.68
587.989	3401.51
588.192	4005.66
588.395	3413.79
588.599	3483.42
588.802	3680.03
589.005	3667.74
589.208	3317.54
589.411	3329.83
589.615	3639.07
589.818	4036.38
590.021	3493.66
590.224	3458.85
590.427	3788.57
590.63	3919.64
590.833	3118.89
591.036	3376.93
591.239	3571.49
591.442	3544.86
591.645	3614.49
591.848	3405.6
592.051	3616.54
592.254	3942.17
592.457	3546.91
592.66	3551.01
592.863	3675.93
593.066	3788.57
593.269	3622.69
593.472	3471.14
593.675	3622.69
593.878	3903.26
594.081	3528.48
594.284	3372.83
594.486	3884.83
594.689	3809.05
594.892	3643.17
595.095	3669.79
595.298	4046.62
595.5	3782.43
595.703	3735.32
595.906	3766.04
596.109	4235.03
596.311	4206.36
596.514	3383.07
596.717	3723.04
596.92	4325.14
597.122	4085.53
597.325	3512.1
597.528	3540.77
597.73	4382.48
597.933	4089.62
598.136	3786.52
598.338	3405.6
598.541	4200.21
598.743	4323.09
598.946	3725.08
599.148	3698.46
599.351	4370.19
599.554	4259.6
599.756	3821.34
599.959	3868.44
600.161	4355.86
600.363	4667.15
600.566	4122.39
600.768	3907.35
600.971	4454.16
601.173	4304.66
601.376	3942.17
601.578	3989.27
601.78	4413.2
601.983	4976.39
602.185	3925.79
602.388	4138.77
602.59	4359.95
602.792	4214.55
602.995	4278.04
603.197	3981.08
603.399	4572.94
603.601	4329.24
603.804	4108.05
604.006	4044.57
604.208	4179.73
604.41	3884.83
604.613	4204.31
604.815	4106.01
605.017	4933.39
605.219	4185.88
605.421	4509.46
605.623	4036.38
605.826	4720.4
606.028	4859.66
606.23	4130.58
606.432	4181.78
606.634	4884.23
606.836	4828.94
607.038	4126.49
607.24	4345.62
607.442	4534.03
607.644	4556.56
607.846	4388.63
608.048	4259.6
608.25	4890.38
608.452	4396.82
608.654	4335.38
608.856	4056.86
609.058	4597.52
609.26	4710.16
609.462	4396.82
609.664	4499.22
609.866	5000.97
610.067	4896.52
610.269	4435.73
610.471	4568.85
610.673	4615.95
610.875	4720.4
611.077	4214.55
611.278	4337.43
611.48	4646.67
611.682	5129.99
611.884	4546.32
612.085	4409.11
612.287	4484.88
612.489	4695.82
612.69	4323.09
612.892	4577.04
613.094	5086.98
613.295	4751.12
613.497	4341.52
613.699	4515.6
613.9	5189.38
614.102	4931.34
614.304	4650.77
614.505	4386.58
614.707	4949.77
614.908	4636.43
615.11	4370.19
615.311	4609.81
615.513	5062.41
615.714	5095.18
615.916	4427.54
616.117	4816.65
616.319	4804.36
616.52	5113.61
616.722	4538.13
616.923	4644.62
617.124	5277.44
617.326	5179.14
617.527	4712.21
617.729	4904.71
617.93	5058.31
618.131	5220.1
618.333	4794.12
618.534	4699.92
618.735	4738.83
618.937	5310.21
619.138	4482.83
619.339	4699.92
619.54	5226.25
619.742	5060.36
619.943	5089.03
620.144	4859.66
620.345	5232.39
620.546	5295.88
620.748	4896.52
620.949	5009.16
621.15	5072.65
621.351	5142.28
621.552	4898.57
621.753	4669.2
621.954	4841.23
622.155	5725.95
622.356	4769.55
622.558	5121.8
622.759	5240.58
622.96	5592.83
623.161	5066.5
623.362	5015.3
623.563	5093.13
623.764	5297.92
623.965	5005.06
624.166	5209.86
624.366	5203.72
624.567	5211.91
624.768	4884.23
624.969	4945.67
625.17	5347.08
625.371	5332.74
625.572	5121.8
625.773	4896.52
625.973	5529.34
626.174	5433.09
626.375	5138.18
626.576	5140.23
626.777	5570.3
626.977	5721.85
627.178	5156.61
627.379	5371.65
627.58	5347.08
627.78	5474.05
627.981	5197.57
628.182	5377.8
628.382	5613.31
628.583	5230.34
628.784	5048.07
628.984	5236.49
629.185	5592.83
629.386	5713.66
629.586	5369.6
629.787	5160.71
629.987	5803.77
630.188	5543.68
630.388	5347.08
630.589	5396.23
630.79	6090.49
630.99	5551.87
631.191	5467.91
631.391	5431.04
631.591	5787.39
631.792	6143.74
631.992	5517.06
632.193	5566.21
632.393	6072.06
632.594	5682.94
632.794	5492.48
632.994	5648.13
633.195	5691.13
633.395	5785.34
633.595	5433.09
633.796	5742.33
633.996	5662.46
634.196	6076.15
634.397	5443.33
634.597	5465.86
634.797	5639.94
634.997	6307.57
635.198	5889.79
635.398	5469.95
635.598	5893.88
635.798	6315.76
635.998	6024.95
636.199	5332.74
636.399	5728
636.599	5601.02
636.799	5742.33
636.999	5859.07
637.199	5967.61
637.399	6237.94
637.599	5637.89
637.799	5910.27
637.999	5736.19
638.199	6409.97
638.399	5541.63
638.599	5662.46
638.799	6057.72
638.999	6348.53
639.199	5705.47
639.399	5789.44
639.599	6549.23
639.799	5568.26
639.999	5609.22
640.199	5736.19
640.399	6106.87
640.599	6072.06
640.799	5986.04
640.998	6051.58
641.198	6346.48
641.398	6397.68
641.598	6092.54
641.798	6104.82
641.997	7040.75
642.197	6207.22
642.397	6072.06
642.597	5916.41
642.796	6412.02
642.996	6579.95
643.196	6063.86
643.395	5867.26
643.595	6340.34
643.795	5842.68
643.994	5861.12
644.194	6000.38
644.394	6502.13
644.593	6498.03
644.793	5889.79
644.992	6190.84
645.192	6473.46
645.392	6010.62
645.591	6362.87
645.791	6151.93
645.99	6448.88
646.19	6352.63
646.389	6276.85
646.589	6207.22
646.788	6790.89
646.987	6457.07
647.187	6416.12
647.386	6440.69
647.586	6559.47
647.785	6639.34
647.984	6235.89
648.184	6309.62
648.383	6575.86
648.582	6489.84
648.782	6381.3
648.981	6516.47
649.18	6360.82
649.38	6856.43
649.579	6467.31
649.778	6219.51
649.977	6778.61
650.177	6616.82
650.376	6221.56
650.575	6321.91
650.774	7026.41
650.973	6493.94
651.173	6151.93
651.372	6543.09
651.571	6661.87
651.77	7030.51
651.969	6510.32
652.168	6577.9
652.367	6450.93
652.566	6739.69
652.765	6606.58
652.964	7030.51
653.163	7159.53
653.362	6862.57
653.561	6563.57
653.76	6721.26
653.959	6612.72
654.158	7050.99
654.357	6868.72
654.556	6430.45
654.755	6985.45
654.954	6760.17
655.153	6696.69
655.352	6917.87
655.551	7196.39
655.749	6911.72
655.948	6770.41
656.147	6690.54
656.346	7184.1
656.545	7053.03
656.743	6809.33
656.942	6921.96
657.141	7036.65
657.34	6852.33
657.538	6952.68
657.737	6805.23
657.936	6663.92
658.135	7296.74
658.333	6833.9
658.532	6790.89
658.731	7374.56
658.929	7186.15
659.128	7161.58
659.326	6981.35
659.525	7571.17
659.724	6983.4
659.922	6784.75
660.121	6948.59
660.319	7098.09
660.518	6981.35
660.716	6846.19
660.915	7044.84
661.113	7517.92
661.312	6940.4
661.51	7063.27
661.709	6944.49
661.907	7458.53
662.105	7800.54
662.304	7210.73
662.502	7093.99
662.701	7743.2
662.899	7227.11
663.097	7399.14
663.296	6907.63
663.494	7732.96
663.692	7565.03
663.891	7046.89
664.089	6864.62
664.287	7349.99
664.485	7683.81
664.684	7177.96
664.882	7290.6
665.08	7259.88
665.278	7573.22
665.476	7241.45
665.675	7624.42
665.873	7915.23
666.071	7761.63
666.269	7190.25
666.467	7474.92
666.665	7556.83
666.863	7483.11
667.061	7294.69
667.259	7075.56
667.457	7425.76
667.655	7448.29
667.853	7163.62
668.051	7411.43
668.249	7292.65
668.447	7657.18
668.645	7249.64
668.843	7470.82
669.041	7718.62
669.239	7235.3
669.437	7395.04
669.635	7272.17
669.833	7390.95
670.031	7888.6
670.229	7530.21
670.426	7476.96
670.624	7501.54
670.822	7356.13
671.02	7370.47
671.218	7642.85
671.415	7454.44
671.613	7714.53
671.811	7335.65
672.009	7458.53
672.206	7728.86
672.404	7698.14
672.602	7632.61
672.799	7628.51
672.997	7790.3
673.195	8120.03
673.392	7671.52
673.59	7481.06
673.788	7712.48
673.985	7349.99
674.183	7542.5
674.38	7583.46
674.578	7861.98
674.775	7421.67
674.973	7386.85
675.17	7501.54
675.368	8167.13
675.565	7896.8
675.763	7610.08
675.96	7393
676.158	7966.43
676.355	7769.82
676.553	7683.81
676.75	7614.18
676.947	7833.31
677.145	7788.25
677.342	7802.59
677.539	7665.38
677.737	7753.44
677.934	8505.04
678.131	7704.29
678.329	7489.25
678.526	8189.66
678.723	8056.54
678.92	7843.55
679.118	7632.61
679.315	7419.62
679.512	8302.29
679.709	7605.99
679.906	7663.33
680.104	8146.65
680.301	7800.54
680.498	7462.63
680.695	7663.33
680.892	7874.27
681.089	7646.94
681.286	7786.21
681.483	7538.4
681.68	7866.08
681.877	8146.65
682.075	7663.33
682.272	7843.55
682.469	7941.85
682.665	7843.55
682.862	7610.08
683.059	7655.14
683.256	8093.4
683.453	8064.73
683.65	7692
683.847	7919.32
684.044	8011.48
684.241	7827.17
684.438	7991
684.635	7642.85
684.831	8412.88
685.028	8455.89
685.225	7720.67
685.422	7730.91
685.619	8050.39
685.815	7976.67
686.012	7900.89
686.209	7839.45
686.405	7704.29
686.602	8140.51
686.799	7560.93
686.996	7747.3
687.192	7558.88
687.389	8423.12
687.586	7843.55
687.782	7765.73
687.979	8537.81
688.175	8304.34
688.372	7954.14
688.568	7712.48
688.765	7950.04
688.962	8554.19
689.158	7997.15
689.355	7771.87
689.551	8455.89
689.748	7837.41
689.944	8031.96
690.14	7804.64
690.337	8165.08
690.533	8097.5
690.73	8148.7
690.926	7937.76
691.123	8074.97
691.319	7925.47
691.515	7882.46
691.712	8142.55
691.908	8242.9
692.104	8281.81
692.301	8126.17
692.497	7915.23
692.693	8404.69
692.889	8392.41
693.086	8007.39
693.282	7755.49
693.478	7976.67
693.674	8574.67
693.87	8126.17
694.067	7835.36
694.263	8316.63
694.459	8320.73
694.655	8355.54
694.851	8103.64
695.047	8365.78
695.243	8324.82
695.439	8177.37
695.635	7966.43
695.831	8285.91
696.027	8308.44
696.224	7880.41
696.42	8539.86
696.615	8699.6
696.811	8431.32
697.007	7931.61
697.203	8128.22
697.399	8310.49
697.595	8586.96
697.791	8148.7
697.987	8228.57
698.183	8019.67
698.379	7907.04
698.575	8109.79
698.77	8115.93
698.966	8359.64
699.162	8466.13
699.358	8128.22
699.554	8042.2
699.749	8468.18
699.945	8519.38
700.141	8304.34
700.337	8146.65
700.532	8242.9
700.728	8126.17
700.924	7962.33
701.119	7972.57
701.315	8474.32
701.511	8275.67
701.706	8226.52
701.902	7907.04
702.097	8304.34
702.293	8652.5
702.489	8214.23
702.684	8193.75
702.88	8382.17
703.075	8236.76
703.271	8128.22
703.466	8009.44
703.662	8173.27
703.857	8644.31
704.053	7939.8
704.248	8177.37
704.443	8603.35
704.639	8574.67
704.834	8353.49
705.03	8337.11
705.225	8355.54
705.42	8392.41
705.616	8120.03
705.811	8085.21
706.006	8290.01
706.202	8398.55
706.397	8234.71
706.592	8019.67
706.787	8298.2
706.983	8529.62
707.178	8457.94
707.373	8365.78
707.568	8496.85
707.763	8812.24
707.959	8347.35
708.154	8103.64
708.349	8423.12
708.544	8410.84
708.739	8570.58
708.934	8232.66
709.129	8621.78
709.324	8693.46
709.519	7999.2
709.714	8326.87
709.909	8789.71
710.104	8521.43
710.299	8265.43
710.494	8378.07
710.689	8621.78
710.884	8664.79
711.079	8218.33
711.274	8560.34
711.469	8763.09
711.664	8693.46
711.859	8062.68
712.054	8427.22
712.249	8734.42
712.443	8867.53
712.638	8326.87
712.833	8130.27
713.028	8480.47
713.223	8564.43
713.417	8625.87
713.612	8171.22
713.807	8900.3
714.002	9400.01
714.196	8388.31
714.391	8343.25
714.586	8822.48
714.78	8484.56
714.975	8406.74
715.17	8187.61
715.364	8402.65
715.559	8967.88
715.754	8048.35
715.948	8247
716.143	8986.32
716.337	8662.74
716.532	8849.1
716.726	8259.29
716.921	8771.28
717.115	9066.19
717.31	8115.93
717.504	8795.86
717.699	8584.91
717.893	8576.72
718.088	8177.37
718.282	8255.19
718.476	8797.9
718.671	8560.34
718.865	8218.33
719.059	8300.25
719.254	8634.07
719.448	8685.26
719.642	9610.95
719.837	8146.65
720.031	8949.45
720.225	9098.95
720.419	8650.45
720.614	8437.46
720.808	8750.8
721.002	8498.9
721.196	8300.25
721.39	8343.25
721.585	8900.3
721.779	8636.11
721.973	8322.77
722.167	8081.11
722.361	8525.52
722.555	8773.33
722.749	8267.48
722.943	8421.08
723.137	8189.66
723.331	8601.3
723.525	8273.62
723.719	8236.76
723.913	8705.74
724.107	8967.88
724.301	8296.15
724.495	8537.81
724.689	9131.72
724.883	9195.21
725.077	8308.44
725.271	8240.86
725.465	8820.43
725.659	8468.18
725.853	8650.45
726.046	8365.78
726.24	8414.93
726.434	8828.62
726.628	8378.07
726.822	8367.83
727.015	8967.88
727.209	9062.09
727.403	8408.79
727.596	8120.03
727.79	8898.25
727.984	8955.6
728.177	8509.14
728.371	8666.83
728.565	8955.6
728.758	8554.19
728.952	8425.17
729.146	8439.51
729.339	9133.77
729.533	8679.12
729.726	8529.62
729.92	8451.8
730.113	9184.97
730.307	8869.58
730.5	8636.11
730.694	8451.8
730.887	8890.06
731.081	8949.45
731.274	8359.64
731.468	8521.43
731.661	8666.83
731.854	8758.99
732.048	8488.66
732.241	8699.6
732.435	8742.61
732.628	8771.28
732.821	8740.56
733.014	8294.1
733.208	8578.77
733.401	8902.35
733.594	8646.35
733.788	8605.39
733.981	9004.75
734.174	8943.31
734.367	8554.19
734.56	8726.22
734.754	9119.43
734.947	8992.46
735.14	8414.93
735.333	8687.31
735.526	8971.98
735.719	8849.1
735.912	8644.31
736.105	8605.39
736.298	8793.81
736.491	8820.43
736.684	8435.41
736.877	8566.48
737.07	8914.64
737.263	9225.93
737.456	8730.32
737.649	8439.51
737.842	8799.95
738.035	9008.84
738.228	8652.5
738.421	8640.21
738.614	9293.51
738.807	9070.28
739	8509.14
739.192	8519.38
739.385	9230.02
739.578	9000.65
739.771	8863.44
739.964	8586.96
740.156	9019.08
740.349	8916.69
740.542	9058
740.735	8617.68
740.927	8668.88
741.12	8566.48
741.313	8666.83
741.505	8836.81
741.698	9012.94
741.891	9146.06
742.083	8867.53
742.276	8738.51
742.468	8990.41
742.661	9053.9
742.854	8840.91
743.046	8820.43
743.239	9481.92
743.431	8898.25
743.624	8720.08
743.816	8535.76
744.009	9031.37
744.201	9221.83
744.393	8804.05
744.586	8812.24
744.778	9373.38
744.971	8990.41
745.163	8904.4
745.355	8861.39
745.548	8890.06
745.74	9041.61
745.932	8898.25
746.125	8836.81
746.317	9481.92
746.509	9178.83
746.702	8851.15
746.894	8849.1
747.086	9117.39
747.278	9270.98
747.471	9008.84
747.663	8806.09
747.855	9021.13
748.047	9477.83
748.239	9043.66
748.431	8750.8
748.623	9436.87
748.815	9391.81
749.008	8578.77
749.2	8597.2
749.392	9299.66
749.584	9164.49
749.776	8881.87
749.968	8980.17
750.16	9426.63
750.352	8894.16
750.544	8959.69
750.736	8701.65
750.928	9162.44
751.12	8804.05
751.311	8746.7
751.503	8951.5
751.695	9201.35
751.887	8881.87
752.079	8648.4
752.271	8736.46
752.463	9907.9
752.654	9400.01
752.846	8984.27
753.038	8740.56
753.23	8853.2
753.421	9313.99
753.613	8885.97
753.805	9002.7
753.997	9498.31
754.188	9250.5
754.38	8810.19
754.572	8863.44
754.763	9070.28
754.955	9012.94
755.146	8703.7
755.338	8625.87
755.53	9187.02
755.721	9000.65
755.913	8470.23
756.104	8871.63
756.296	8912.59
756.487	9219.78
756.679	8619.73
756.87	8761.04
757.062	8845.01
757.253	9219.78
757.445	8597.2
757.636	8904.4
757.827	8908.49
758.019	9641.67
758.21	8509.14
758.401	8785.62
758.593	9453.25
758.784	9604.8
758.975	8687.31
759.167	8644.31
759.358	9096.91
759.549	9281.22
759.74	8701.65
759.932	8705.74
760.123	9350.85
760.314	8826.57
760.505	8937.16
760.696	8642.26
760.888	9422.53
761.079	9047.76
761.27	8554.19
761.461	8593.11
761.652	9440.97
761.843	8687.31
762.034	8832.72
762.225	8967.88
762.416	8961.74
762.607	8914.64
762.798	8713.94
762.989	8812.24
763.18	9707.2
763.371	8781.52
763.562	8578.77
763.753	8476.37
763.944	9346.76
764.135	9348.81
764.326	8666.83
764.517	8597.2
764.708	8965.84
764.899	9000.65
765.089	8675.02
765.28	8451.8
765.471	8992.46
765.662	9098.95
765.853	8533.72
766.043	8464.08
766.234	9156.3
766.425	9080.52
766.615	8658.64
766.806	8670.93
766.997	9094.86
767.187	9115.34
767.378	8775.38
767.569	8482.52
767.759	8965.84
767.95	8836.81
768.141	8861.39
768.331	8746.7
768.522	8758.99
768.712	9068.23
768.903	8546
769.093	8507.09
769.284	8971.98
769.474	8804.05
769.665	8201.94
769.855	8156.89
770.046	8935.12
770.236	8705.74
770.426	8503
770.617	8556.24
770.807	8914.64
770.998	8783.57
771.188	8771.28
771.378	8529.62
771.569	8830.67
771.759	8865.49
771.949	8195.8
772.139	8296.15
772.33	8875.73
772.52	9090.76
772.71	8304.34
772.9	8341.21
773.09	9174.73
773.281	9062.09
773.471	8300.25
773.661	8572.63
773.851	8902.35
774.041	8689.36
774.231	8306.39
774.421	8683.22
774.611	8939.21
774.802	8851.15
774.992	8517.33
775.182	8380.12
775.372	8570.58
775.562	8849.1
775.752	8406.74
775.942	8531.67
776.131	9047.76
776.321	8758.99
776.511	8347.35
776.701	8416.98
776.891	8885.97
777.081	8433.36
777.271	8378.07
777.461	8290.01
777.651	8859.34
777.84	8779.47
778.03	8373.97
778.22	8351.45
778.41	8849.1
778.599	8482.52
778.789	8541.91
778.979	8384.21
779.169	8793.81
779.358	8435.41
779.548	8857.29
779.738	8226.52
779.927	8640.21
780.117	8357.59
780.307	8181.46
780.496	7948
780.686	8847.05
780.875	8974.03
781.065	8384.21
781.254	8232.66
781.444	8474.32
781.633	8500.95
781.823	8185.56
782.012	8298.2
782.202	8492.76
782.391	8496.85
782.581	8234.71
782.77	8453.84
782.96	9000.65
783.149	8431.32
783.338	8263.38
783.528	8077.02
783.717	8826.57
783.906	8808.14
784.096	8443.6
784.285	8038.11
784.474	8429.27
784.663	8251.1
784.853	8115.93
785.042	8070.87
785.231	8406.74
785.42	8763.09
785.61	8234.71
785.799	7980.76
785.988	8179.42
786.177	8277.72
786.366	8042.2
786.555	8351.45
786.744	8619.73
786.933	8371.93
787.122	7972.57
787.312	7986.91
787.501	8230.62
787.69	8636.11
787.879	8226.52
788.068	8089.31
788.257	8007.39
788.445	8201.94
788.634	8459.99
788.823	7968.48
789.012	8853.2
789.201	8804.05
789.39	8208.09
789.579	7884.51
789.768	8259.29
789.957	8142.55
790.145	8212.18
790.334	7966.43
790.523	8314.58
790.712	8459.99
790.9	8269.53
791.089	8060.63
791.278	8668.88
791.467	8494.8
791.655	8324.82
791.844	8482.52
792.033	8120.03
792.221	8191.7
792.41	8185.56
792.599	7739.1
792.787	8462.04
792.976	8351.45
793.164	8007.39
793.353	8054.49
793.541	8341.21
793.73	8396.5
793.918	8089.31
794.107	8062.68
794.295	8130.27
794.484	8273.62
794.672	7810.78
794.861	8083.16
795.049	8335.06
795.238	8597.2
795.426	7818.97
795.614	7995.1
795.803	8292.05
795.991	8750.8
796.179	7792.35
796.368	7814.88
796.556	8519.38
796.744	7939.8
796.932	7939.8
797.121	7806.69
797.309	8120.03
797.497	8406.74
797.685	7960.28
797.874	8005.34
798.062	8326.87
798.25	8562.39
798.438	7958.24
798.626	7872.22
798.814	8228.57
799.002	8736.46
799.19	8158.94
799.378	7980.76
799.566	8431.32
799.755	8597.2
799.943	8031.96
800.131	7970.52
800.318	8277.72
800.506	8335.06
800.694	7952.09
800.882	8025.82
801.07	8691.41
801.258	8234.71
801.446	8021.72
801.634	7968.48
801.822	8472.28
802.01	8263.38
802.197	8038.11
802.385	8160.98
802.573	8400.6
802.761	8062.68
802.949	8242.9
803.136	7982.81
803.324	8740.56
803.512	8400.6
803.699	8167.13
803.887	7995.1
804.075	8720.08
804.262	8314.58
804.45	8048.35
804.638	8169.18
804.825	8300.25
805.013	8447.7
805.201	8107.74
805.388	8099.55
805.576	8480.47
805.763	8931.02
805.951	8271.58
806.138	8470.23
806.326	9051.85
806.513	8484.56
806.701	8296.15
806.888	8201.94
807.075	8584.91
807.263	9053.9
807.45	8234.71
807.638	8193.75
807.825	9199.3
808.012	8828.62
808.2	8242.9
808.387	8728.27
808.574	8580.82
808.761	8953.55
808.949	8423.12
809.136	8414.93
809.323	8650.45
809.51	8490.71
809.698	8812.24
809.885	8406.74
810.072	8785.62
810.259	8820.43
810.446	8302.29
810.633	8503
810.82	9004.75
811.008	9021.13
811.195	8761.04
811.382	8691.41
811.569	8832.72
811.756	8597.2
811.943	8625.87
812.13	8314.58
812.317	8629.97
812.504	8513.24
812.691	8586.96
812.878	8629.97
813.064	9213.64
813.251	8724.18
813.438	8623.83
813.625	8693.46
813.812	8709.84
813.999	8847.05
814.186	8484.56
814.372	8591.06
814.559	8898.25
814.746	9062.09
814.933	8525.52
815.12	8814.29
815.306	8672.98
815.493	8775.38
815.68	8554.19
815.866	8308.44
816.053	9027.28
816.24	9299.66
816.426	8720.08
816.613	8617.68
816.799	9123.53
816.986	9035.47
817.173	8537.81
817.359	8513.24
817.546	8877.77
817.732	8490.71
817.919	8425.17
818.105	8529.62
818.292	8750.8
818.478	8959.69
818.665	8427.22
818.851	8529.62
819.037	9404.1
819.224	8947.4
819.41	8480.47
819.597	8310.49
819.783	9281.22
819.969	8808.14
820.156	8550.1
820.342	8500.95
820.528	9569.99
820.714	8656.59
820.901	8832.72
821.087	8705.74
821.273	9191.11
821.459	8662.74
821.646	8453.84
821.832	8586.96
822.018	8810.19
822.204	8779.47
822.39	8576.72
822.576	8304.34
822.762	9129.67
822.948	8578.77
823.134	8820.43
823.32	8611.54
823.507	8527.57
823.693	8828.62
823.879	8830.67
824.065	8677.07
824.25	8625.87
824.436	8539.86
824.622	8482.52
824.808	8447.7
824.994	8617.68
825.18	8443.6
825.366	8201.94
825.552	8468.18
825.738	8580.82
825.923	8820.43
826.109	8627.92
826.295	8427.22
826.481	8570.58
826.667	8601.3
826.852	8527.57
827.038	8369.88
827.224	8963.79
827.409	8947.4
827.595	8306.39
827.781	8625.87
827.966	8965.84
828.152	8894.16
828.338	8492.76
828.523	8261.34
828.709	8550.1
828.894	8971.98
829.08	8496.85
829.266	8255.19
829.451	8560.34
829.637	8580.82
829.822	8361.69
830.008	8150.74
830.193	9058
830.378	8734.42
830.564	8435.41
830.749	8218.33
830.935	8767.18
831.12	8662.74
831.305	8160.98
831.491	8384.21
831.676	8244.95
831.861	8693.46
832.047	8193.75
832.232	8187.61
832.417	8742.61
832.602	8546
832.788	8083.16
832.973	8117.98
833.158	8511.19
833.343	8605.39
833.528	8324.82
833.714	8292.05
833.899	8799.95
834.084	8845.01
834.269	8480.47
834.454	8210.14
834.639	8554.19
834.824	8498.9
835.009	8326.87
835.194	8335.06
835.379	8578.77
835.564	8818.38
835.749	8314.58
835.934	7849.69
836.119	8550.1
836.304	8337.11
836.489	8083.16
836.674	8439.51
836.859	8222.42
837.044	8818.38
837.228	8083.16
837.413	8120.03
837.598	8349.4
837.783	8693.46
837.968	8085.21
838.152	7800.54
838.337	7948
838.522	8480.47
838.707	8636.11
838.891	8054.49
839.076	8607.44
839.261	8576.72
839.445	8128.22
839.63	7984.86
839.815	8531.67
839.999	8279.77
840.184	8199.9
840.368	8007.39
840.553	8640.21
840.737	8394.45
840.922	8001.24
841.106	7792.35
841.291	8109.79
841.475	8427.22
841.66	7988.96
841.844	7853.79
842.029	8799.95
842.213	7974.62
842.397	8007.39
842.582	7628.51
842.766	8449.75
842.951	8410.84
843.135	7804.64
843.319	8038.11
843.504	8126.17
843.688	8398.55
843.872	7718.62
844.056	7806.69
844.241	8476.37
844.425	8148.7
844.609	8222.42
844.793	7696.1
844.977	8283.86
845.161	8113.88
845.346	7878.37
845.53	7876.32
845.714	7966.43
845.898	8527.57
846.082	7710.43
846.266	7923.42
846.45	8146.65
846.634	8079.07
846.818	7855.84
847.002	7843.55
847.186	8249.05
847.37	7753.44
847.554	7575.27
847.738	7814.88
847.922	8029.91
848.106	7919.32
848.29	7661.28
848.473	7716.58
848.657	8253.14
848.841	7841.5
849.025	7614.18
849.209	7431.91
849.392	8124.12
849.576	8001.24
849.76	7560.93
849.944	7857.89
850.127	8087.26
850.311	7624.42
850.495	7499.49
850.678	7630.56
850.862	8318.68
851.046	8333.01
851.229	8029.91
851.413	7517.92
851.596	7886.56
851.78	7966.43
851.964	7845.6
852.147	7507.68
852.331	8621.78
852.514	8339.16
852.698	7739.1
852.881	7444.2
853.065	8193.75
853.248	7939.8
853.431	7605.99
853.615	7444.2
853.798	8513.24
853.982	7952.09
854.165	7743.2
854.348	7397.09
854.532	7679.71
854.715	7704.29
854.898	7583.46
855.081	7458.53
855.265	8160.98
855.448	8216.28
855.631	7419.62
855.814	7431.91
855.997	7929.56
856.181	7526.11
856.364	7458.53
856.547	7331.56
856.73	7735.01
856.913	7745.25
857.096	7300.84
857.279	7464.68
857.462	7802.59
857.645	8079.07
857.828	7567.07
858.011	7573.22
858.194	7524.07
858.377	7878.37
858.56	7304.93
858.743	7388.9
858.926	7341.8
859.109	7790.3
859.292	7423.72
859.475	7098.09
859.658	7931.61
859.841	7636.7
860.023	6969.07
860.206	7145.19
860.389	7556.83
860.572	7890.65
860.755	7313.13
860.937	7243.49
861.12	7558.88
861.303	7407.33
861.486	7083.75
861.668	7112.42
861.851	7634.66
862.034	7433.96
862.216	7175.91
862.399	6897.39
862.581	7462.63
862.764	7771.87
862.947	7382.76
863.129	7186.15
863.312	7091.95
863.494	7796.45
863.677	7356.13
863.859	6901.48
864.042	7694.05
864.224	7808.73
864.406	7048.94
864.589	6801.13
864.771	7485.16
864.954	6924.01
865.136	6997.74
865.318	6860.52
865.501	7513.83
865.683	6803.18
865.865	6944.49
866.048	6981.35
866.23	7386.85
866.412	7190.25
866.594	6776.56
866.777	7120.62
866.959	7364.32
867.141	6958.83
867.323	7050.99
867.505	7030.51
867.687	7130.86
867.869	7337.7
868.052	6989.55
868.234	6799.09
868.416	7163.62
868.598	7474.92
868.78	6897.39
868.962	6790.89
869.144	7507.68
869.326	7390.95
869.508	6844.14
869.69	6794.99
869.872	6962.92
870.054	7390.95
870.236	6719.21
870.417	6643.44
870.599	7096.04
870.781	7702.24
870.963	7026.41
871.145	6794.99
871.327	6885.1
871.508	7347.94
871.69	6969.07
871.872	6899.44
872.054	7292.65
872.235	7272.17
872.417	7059.18
872.599	6797.04
872.78	7509.73
872.962	7315.17
873.144	6817.52
873.325	6969.07
873.507	7595.75
873.689	7239.4
873.87	6749.93
874.052	7053.03
874.233	7022.31
874.415	7409.38
874.596	6860.52
874.778	6815.47
874.959	6997.74
875.141	7263.97
875.322	6784.75
875.503	6852.33
875.685	7370.47
875.866	6891.24
876.048	6862.57
876.229	6829.81
876.41	7184.1
876.592	7317.22
876.773	6852.33
876.954	6782.7
877.136	7505.63
877.317	7085.8
877.498	6575.86
877.679	6891.24
877.86	7331.56
878.042	7202.54
878.223	7050.99
878.404	7268.07
878.585	7415.52
878.766	7540.45
878.947	7390.95
879.128	7286.5
879.309	7456.48
879.49	7616.23
879.672	7124.71
879.853	7028.46
880.034	7106.28
880.215	7278.31
880.396	7386.85
880.576	7157.48
880.757	7255.78
880.938	7628.51
881.119	7042.79
881.3	7192.3
881.481	7229.16
881.662	8269.53
881.843	7038.7
882.023	7055.08
882.204	7558.88
882.385	7550.69
882.566	7259.88
882.747	7098.09
882.927	7702.24
883.108	7554.79
883.289	7231.21
883.469	7634.66
883.65	7456.48
883.831	7554.79
884.011	7610.08
884.192	7481.06
884.373	7913.18
884.553	7804.64
884.734	7505.63
884.914	7667.42
885.095	8408.79
885.275	8042.2
885.456	7810.78
885.636	7263.97
885.817	7522.02
885.997	7663.33
886.178	7352.04
886.358	7530.21
886.538	7661.28
886.719	8576.72
886.899	7405.28
887.08	7571.17
887.26	8019.67
887.44	7560.93
887.621	7337.7
887.801	7700.19
887.981	8503
888.161	7988.96
888.342	7735.01
888.522	7505.63
888.702	8140.51
888.882	8079.07
889.062	7726.82
889.242	7280.36
889.423	8414.93
889.603	7900.89
889.783	7667.42
889.963	7763.68
890.143	8234.71
890.323	8107.74
890.503	7612.13
890.683	7636.7
890.863	8058.59
891.043	7997.15
891.223	7737.06
891.403	8072.92
891.583	7999.2
891.763	8025.82
891.943	7726.82
892.122	7722.72
892.302	7966.43
892.482	7913.18
892.662	7884.51
892.842	7743.2
893.022	8050.39
893.201	7884.51
893.381	7821.02
893.561	7800.54
893.741	8365.78
893.92	8079.07
894.1	7941.85
894.28	8005.34
894.459	8271.58
894.639	8160.98
894.819	7845.6
894.998	7997.15
895.178	8199.9
895.357	8171.22
895.537	7722.72
895.716	7505.63
895.896	8079.07
896.075	8355.54
896.255	7864.03
896.434	7616.23
896.614	8193.75
896.793	8353.49
896.973	8158.94
897.152	7778.01
897.331	8169.18
897.511	8335.06
897.69	7515.87
897.87	7894.75
898.049	8296.15
898.228	7939.8
898.407	7778.01
898.587	7694.05
898.766	7870.17
898.945	8046.3
899.124	7956.19
899.304	7864.03
899.483	8300.25
899.662	8496.85
899.841	7640.8
900.02	7792.35
900.199	8306.39
900.378	7878.37
900.557	7659.23
900.737	7571.17
900.916	8058.59
901.095	8220.38
901.274	7700.19
901.453	7669.47
901.632	7782.11
901.811	7915.23
901.989	7591.65
902.168	7429.86
902.347	7997.15
902.526	7747.3
902.705	7407.33
902.884	7739.1
903.063	8277.72
903.242	8296.15
903.42	7608.03
903.599	7679.71
903.778	8152.79
903.957	8126.17
904.135	7630.56
904.314	7720.67
904.493	7814.88
904.672	7968.48
904.85	7534.31
905.029	7571.17
905.207	8025.82
905.386	8349.4
905.565	7257.83
905.743	7562.98
905.922	7532.26
906.1	7935.71
906.279	7327.46
906.457	7245.54
906.636	7708.38
906.814	7581.41
906.993	7415.52
907.171	7511.78
907.35	7511.78
907.528	7896.8
907.707	7501.54
907.885	7374.56
908.063	8023.77
908.242	7497.44
908.42	7302.89
908.598	7104.23
908.777	7763.68
908.955	7419.62
909.133	7558.88
909.311	7130.86
909.49	7509.73
909.668	7433.96
909.846	7257.83
910.024	7241.45
910.202	7481.06
910.38	7587.55
910.559	7057.13
910.737	7077.61
910.915	7565.03
911.093	7522.02
911.271	7220.97
911.449	7282.41
911.627	7481.06
911.805	7929.56
911.983	7114.47
912.161	6932.2
912.339	7585.51
912.517	7567.07
912.695	7259.88
912.872	7020.27
913.05	7048.94
913.228	7386.85
913.406	6989.55
913.584	6946.54
913.762	7483.11
913.939	7057.13
914.117	6932.2
914.295	6776.56
914.473	7345.89
914.65	7177.96
914.828	6932.2
915.006	7005.93
915.184	6792.94
915.361	7202.54
915.539	6944.49
915.716	7182.06
915.894	7206.63
916.072	7300.84
916.249	6909.68
916.427	6909.68
916.604	6858.48
916.782	7323.37
916.959	6575.86
917.137	6678.26
917.314	6967.02
917.492	6932.2
917.669	6854.38
917.847	6762.22
918.024	7007.98
918.201	6584.05
918.379	6764.27
918.556	6684.4
918.733	6987.5
918.911	6625.01
919.088	6698.74
919.265	6498.03
919.442	6784.75
919.62	6641.39
919.797	6289.14
919.974	6297.33
920.151	6592.24
920.328	6657.78
920.506	6338.29
920.683	6602.48
920.86	6225.65
921.037	6485.75
921.214	6551.28
921.391	6360.82
921.568	6747.89
921.745	6180.6
921.922	6385.4
922.099	6192.89
922.276	6594.29
922.453	6594.29
922.63	6080.25
922.807	6389.49
922.984	6401.78
923.161	6207.22
923.338	6256.37
923.514	6065.91
923.691	6465.27
923.868	6418.16
924.045	6006.52
924.222	6043.39
924.399	6352.63
924.575	6463.22
924.752	6141.69
924.929	6067.96
925.105	6305.53
925.282	6104.82
925.459	5983.99
925.635	5811.96
925.812	6094.58
925.989	6022.91
926.165	5832.44
926.342	5637.89
926.518	5842.68
926.695	5906.17
926.871	5711.61
927.048	5760.77
927.224	6141.69
927.401	5842.68
927.577	5695.23
927.754	5506.82
927.93	6162.17
928.107	6123.26
928.283	5392.13
928.459	5613.31
928.636	5889.79
928.812	5676.8
928.988	5441.28
929.165	5388.04
929.341	5525.25
929.517	5744.38
929.693	5713.66
929.87	5080.84
930.046	5742.33
930.222	5394.18
930.398	5252.87
930.574	5410.56
930.751	5578.5
930.927	5510.91
931.103	5318.4
931.279	5355.27
931.455	5324.55
931.631	5408.51
931.807	5037.83
931.983	5119.75
932.159	5046.02
932.335	5232.39
932.511	5183.24
932.687	5072.65
932.863	5238.53
933.039	5195.53
933.215	4763.4
933.391	4783.88
933.566	4974.35
933.742	5162.76
933.918	4753.16
934.094	4581.14
934.27	4953.87
934.445	5035.78
934.621	4732.69
934.797	4609.81
934.973	5000.97
935.148	4892.43
935.324	4359.95
935.5	4392.72
935.675	5019.4
935.851	4650.77
936.027	4353.81
936.202	4280.08
936.378	4472.59
936.553	4374.29
936.729	4468.5
936.904	3942.17
937.08	3888.92
937.255	3921.69
937.431	3817.24
937.606	3553.06
937.782	4019.99
937.957	3991.32
938.133	3770.14
938.308	3585.82
938.483	3884.83
938.659	3366.69
938.834	3503.9
939.009	3278.63
939.185	3585.82
939.36	3352.35
939.535	2838.31
939.71	3262.24
939.886	3536.67
940.061	3520.29
940.236	3426.08
940.411	3155.75
940.586	3335.97
940.761	3424.03
940.937	3004.2
941.112	3018.54
941.287	3053.35
941.462	2957.1
941.637	2797.35
941.812	2873.13
941.987	3090.21
942.162	2969.38
942.337	2889.51
942.512	2643.76
942.687	3172.13
942.862	3006.25
943.037	2627.37
943.212	2340.66
943.386	2647.85
943.561	2860.84
943.736	2803.5
943.911	2797.35
944.086	2948.9
944.26	2768.68
944.435	2615.09
944.61	2707.24
944.785	3082.02
944.959	3094.31
945.134	2725.68
945.309	2475.82
945.483	2623.28
945.658	2955.05
945.833	2369.33
946.007	2307.89
946.182	3200.8
946.357	2463.54
946.531	2494.26
946.706	2504.5
946.88	2488.11
947.055	2803.5
947.229	2455.34
947.404	2486.06
947.578	3086.12
947.752	2608.94
947.927	2311.99
948.101	2354.99
948.276	2891.56
948.45	2897.71
948.624	2672.43
948.799	2422.58
948.973	2914.09
949.147	2369.33
949.321	2600.75
949.496	2508.59
949.67	2955.05
949.844	2791.21
950.018	2514.73
950.193	2486.06
950.367	3352.35
950.541	2680.62
950.715	2627.37
950.889	2596.65
951.063	2735.92
951.237	2811.69
951.411	2324.27
951.585	2463.54
951.759	2819.88
951.933	2725.68
952.107	2381.62
952.281	2574.13
952.455	3155.75
952.629	3000.1
952.803	2541.36
952.977	2426.67
953.151	2897.71
953.325	2914.09
953.499	2688.81
953.672	2381.62
953.846	2385.71
954.02	2598.7
954.194	2520.88
954.368	2455.34
954.541	2907.94
954.715	2598.7
954.889	2559.79
955.062	2391.86
955.236	2594.61
955.41	2723.63
955.583	2598.7
955.757	2320.18
955.93	2735.92
956.104	2387.76
956.278	2459.44
956.451	2512.69
956.625	2832.17
956.798	3106.6
956.972	2758.44
957.145	2361.14
957.319	2762.54
957.492	2639.66
957.665	2627.37
957.839	2512.69
958.012	2799.4
958.185	2586.41
958.359	2414.38
958.532	2613.04
958.705	2797.35
958.879	2799.4
959.052	2357.04
959.225	2228.02
959.398	2668.33
959.572	2676.52
959.745	2406.19
959.918	2443.06
960.091	2533.17
960.264	2832.17
960.438	2322.23
960.611	2311.99
960.784	2770.73
960.957	2398
961.13	2844.46
961.303	2412.34
961.476	2639.66
961.649	2774.83
961.822	2430.77
961.995	2381.62
962.168	2717.48
962.341	2590.51
962.514	2434.86
962.686	2201.4
962.859	2606.89
963.032	2778.92
963.205	2275.12
963.378	2287.41
963.551	2647.85
963.723	2674.48
963.896	2551.6
964.069	2492.21
964.242	2619.18
964.414	2762.54
964.587	2465.58
964.76	2412.34
964.932	2731.82
965.105	2445.1
965.278	2328.37
965.45	2316.08
965.623	2504.5
965.795	2658.09
965.968	2297.65
966.14	2275.12
966.313	2576.17
966.485	2574.13
966.658	2348.85
966.83	2131.76
967.003	2776.87
967.175	2625.33
967.348	2225.97
967.52	2320.18
967.692	2877.23
967.865	2668.33
968.037	2262.83
968.209	2520.88
968.382	2494.26
968.554	2766.64
968.726	2373.43
968.898	2434.86
969.071	2461.49
969.243	2500.4
969.415	2277.17
969.587	2469.68
969.759	2998.06
969.932	2619.18
970.104	2354.99
970.276	1851.19
970.448	2316.08
970.62	2303.79
970.792	2299.7
970.964	2299.7
971.136	2791.21
971.308	2428.72
971.48	2166.58
971.652	2099
971.824	2871.08
971.996	2287.41
972.168	2271.03
972.339	2359.09
972.511	2600.75
972.683	2271.03
972.855	2377.52
973.027	2361.14
973.199	2434.86
973.37	2674.48
973.542	2293.55
973.714	2377.52
973.886	2387.76
974.057	2725.68
974.229	2068.28
974.401	2127.67
974.572	2111.29
974.744	1972.02
974.915	2060.09
975.087	2058.04
975.259	2649.9
975.43	2197.3
975.602	2086.71
975.773	2008.89
975.945	2148.15
976.116	2535.21
976.288	2019.13
976.459	2346.8
976.63	2117.43
976.802	2492.21
976.973	2053.94
977.145	2250.55
977.316	2795.31
977.487	2772.78
977.659	2219.83
977.83	2021.17
978.001	2727.72
978.172	2262.83
978.344	2055.99
978.515	1974.07
978.686	2230.07
978.857	2467.63
979.028	2045.75
979.2	1912.63
979.371	2498.35
979.542	2281.27
979.713	2074.42
979.884	1617.72
980.055	2193.2
980.226	2176.82
980.397	1896.25
980.568	1918.78
980.739	2447.15
980.91	2137.91
981.081	2125.62
981.252	1873.72
981.423	2342.71
981.594	2494.26
981.765	1881.91
981.936	2078.52
982.106	2213.68
982.277	2524.97
982.448	1918.78
982.619	2142
982.79	2076.47
982.96	2420.53
983.131	2088.76
983.302	1748.79
983.472	2154.29
983.643	2189.11
983.814	2074.42
983.984	1931.06
984.155	2029.37
984.326	2459.44
984.496	2047.8
984.667	1836.86
984.837	1959.74
985.008	2461.49
985.178	2078.52
985.349	1947.45
985.519	1865.53
985.69	1986.36
985.86	1859.38
986.031	1822.52
986.201	2148.15
986.371	2285.36
986.542	1707.84
986.712	1611.58
986.882	2164.53
987.053	2193.2
987.223	1685.31
987.393	1949.5
987.563	1912.63
987.734	2246.45
987.904	2221.88
988.074	1752.89
988.244	2215.73
988.414	1926.97
988.585	1767.23
988.755	1896.25
988.925	1976.12
989.095	2402.1
989.265	1689.4
989.435	1816.38
989.605	2099
989.775	2172.72
989.945	2010.93
990.115	1574.72
990.285	1894.2
990.455	2027.32
990.625	1746.75
990.795	1601.34
990.965	2316.08
991.134	1922.87
991.304	1713.98
991.474	1718.08
991.644	2029.37
991.814	2281.27
991.984	1515.33
992.153	1570.62
992.323	1877.82
992.493	1875.77
992.662	1455.94
992.832	1849.15
993.002	1845.05
993.171	2023.22
993.341	1378.11
993.511	1697.6
993.68	1683.26
993.85	1992.5
994.019	1455.94
994.189	1550.14
994.358	1926.97
994.528	1750.84
994.697	1314.63
994.867	1406.78
995.036	1996.6
995.206	1845.05
995.375	1509.18
995.544	1589.05
995.714	1937.21
995.883	1816.38
996.052	1683.26
996.222	1328.96
996.391	2324.27
996.56	1922.87
996.73	1343.3
996.899	1429.31
997.068	2189.11
997.237	1826.62
997.406	1406.78
997.576	1292.1
997.745	1902.39
997.914	1787.71
998.083	1240.9
998.252	1400.64
998.421	1814.33
998.59	1478.46
998.759	1353.54
998.928	1283.91
999.097	2055.99
999.266	1763.13
999.435	1632.06
999.604	1175.36
999.773	2320.18
999.942	1587.01
1000.111	1269.57
1000.28	1142.6
1000.448	1378.11
1000.617	1505.09
1000.786	1548.09
1000.955	1347.39
1001.124	1750.84
1001.292	2307.89
1001.461	1453.89
1001.63	1275.71
1001.798	2004.79
1001.967	2012.98
1002.136	1150.79
1002.304	1335.1
1002.473	1673.02
1002.642	1695.55
1002.81	1271.62
1002.979	1148.74
1003.147	1886.01
1003.316	2185.01
1003.484	1300.29
1003.653	1263.43
1003.821	1802.04
1003.99	1500.99
1004.158	1318.72
1004.327	1361.73
1004.495	1789.75
1004.663	1421.12
1004.832	1466.17
1005	1077.06
1005.168	1689.4
1005.337	1632.06
1005.505	1027.91
1005.673	1414.98
1005.842	1726.27
1006.01	1582.91
1006.178	1150.79
1006.346	1101.64
1006.514	1558.33
1006.683	1677.12
1006.851	1128.26
1007.019	1048.39
1007.187	1310.53
1007.355	1079.11
1007.523	919.37
1007.691	1017.67
1007.859	1095.49
1008.027	1799.99
1008.195	1169.22
1008.363	989
1008.531	1718.08
1008.699	1290.05
1008.867	991.05
1009.035	1107.78
1009.203	1791.8
1009.37	1500.99
1009.538	995.14
1009.706	1509.18
1009.874	1425.22
1010.042	1400.64
1010.209	1019.72
1010.377	1070.92
1010.545	1562.43
1010.713	1462.08
1010.88	960.33
1011.048	1032.01
1011.216	1281.86
1011.383	1779.51
1011.551	948.04
1011.718	872.26
1011.886	1685.31
1012.054	1427.26
1012.221	948.04
1012.389	1019.72
1012.556	1296.19
1012.724	1720.12
1012.891	1029.96
1013.058	782.15
1013.226	1603.39
1013.393	1494.85
1013.561	849.74
1013.728	857.93
1013.895	1654.59
1014.063	1500.99
1014.23	1017.67
1014.397	917.32
1014.565	1476.41
1014.732	1181.51
1014.899	868.17
1015.066	771.91
1015.233	1462.08
1015.401	1500.99
1015.568	1021.77
1015.735	1058.63
1015.902	1204.03
1016.069	1386.3
1016.236	853.83
1016.403	872.26
1016.57	1007.43
1016.737	1468.22
1016.904	866.12
1017.071	782.15
1017.238	1068.87
1017.405	1429.31
1017.572	956.23
1017.739	1042.25
1017.906	1326.91
1018.073	1511.23
1018.24	771.91
1018.407	997.19
1018.573	1439.55
1018.74	1138.5
1018.907	894.79
1019.074	659.28
1019.241	1406.78
1019.407	1132.36
1019.574	747.34
1019.741	669.52
1019.907	1228.61
1020.074	1306.43
1020.241	614.22
1020.407	681.8
1020.574	1251.14
1020.74	1265.47
1020.907	819.02
1021.073	712.52
1021.24	1695.55
1021.406	1439.55
1021.573	689.99
1021.739	790.35
1021.906	1353.54
1022.072	1142.6
1022.239	786.25
1022.405	743.24
1022.571	1167.17
1022.738	927.56
1022.904	759.63
1023.07	747.34
1023.237	1177.41
1023.403	1417.02
1023.569	855.88
1023.735	733
1023.902	1068.87
1024.068	1140.55
1024.234	610.12
1024.4	741.19
1024.566	1183.56
1024.732	1214.27
1024.898	755.53
1025.065	495.44
1025.231	1240.9
1025.397	958.28
1025.563	735.05
1025.729	526.16
1025.895	700.23
1026.061	851.78
1026.227	431.95
1026.392	622.41
1026.558	1283.91
1026.724	1259.33
1026.89	636.75
1027.056	677.71
1027.222	1066.82
1027.388	929.61
1027.553	534.35
1027.719	544.59
1027.885	1353.54
1028.051	1029.96
1028.216	468.81
1028.382	708.43
1028.548	1099.59
1028.713	907.08
1028.879	532.3
1029.045	724.81
1029.21	1361.73
1029.376	1199.94
1029.541	657.23
1029.707	569.16
1029.873	1185.6
1030.038	1095.49
1030.204	485.2
1030.369	657.23
1030.534	1087.3
1030.7	704.33
1030.865	577.36
1031.031	522.06
1031.196	1075.01
1031.361	968.52
1031.527	448.33
1031.692	495.44
1031.857	493.39
1032.023	1019.72
1032.188	419.66
1032.353	536.4
1032.518	1218.37
1032.684	950.09
1032.849	466.77
1033.014	538.45
1033.179	1046.34
1033.344	1050.44
1033.509	608.08
1033.674	538.45
1033.839	1062.73
1034.004	1091.4
1034.17	511.82
1034.335	509.77
1034.5	763.72
1034.664	728.91
1034.829	468.81
1034.994	489.29
1035.159	894.79
1035.324	894.79
1035.489	423.76
1035.654	427.85
1035.819	1115.97
1035.984	855.88
1036.148	481.1
1036.313	513.87
1036.478	1103.68
1036.643	802.63
1036.807	397.14
1036.972	329.55
1037.137	1060.68
1037.301	831.3
1037.466	327.5
1037.631	542.54
1037.795	997.19
1037.96	890.7
1038.124	659.28
1038.289	327.5
1038.454	923.46
1038.618	931.66
1038.783	360.27
1038.947	501.58
1039.111	862.02
1039.276	706.38
1039.44	454.48
1039.605	837.45
1039.769	626.51
1039.933	792.39
1040.098	444.24
1040.262	589.64
1040.426	968.52
1040.591	808.78
1040.755	337.74
1040.919	350.03
1041.083	905.03
1041.248	825.16
1041.412	165.71
1041.576	231.25
1041.74	708.43
1041.904	986.95
1042.068	298.83
1042.232	429.9
1042.397	868.17
1042.561	948.04
1042.725	77.65
1042.889	597.84
1043.053	827.21
1043.217	870.22
1043.381	315.22
1043.544	212.82
1043.708	1003.33
1043.872	474.96
1044.036	128.85
1044.2	223.06
1044.364	896.84
1044.528	1109.83
1044.691	1791.8
1044.855	169.81
1045.019	935.75
1045.183	802.63
1045.346	368.46
1045.51	206.67
1045.674	882.5
1045.837	839.5
1046.001	259.92
1046.165	296.78
1046.328	1216.32
1046.492	796.49
1046.655	401.23
1046.819	288.59
1046.983	593.74
1047.146	851.78
1047.31	356.18
1047.473	132.95
1047.636	606.03
1047.8	534.35
1047.963	339.79
1048.127	249.68
1048.29	425.81
