Data from Ink_Intensity_USB4F045381__73__00073.txt Node

Date: Mon Jul 17 10:39:58 EDT 2023
User: mmckonesweet
Spectrometer: USB4F04538
Trigger mode: 4
Integration Time (sec): 9.000000E-1
Scans to average: 1
Electric dark correction enabled: true
Nonlinearity correction enabled: false
Boxcar width: 0
XAxis mode: Wavelengths
Number of Pixels in Spectrum: 3648
>>>>>Begin Spectral Data<<<<<
345.52	-984.39
345.736	-984.39
345.952	-984.39
346.168	-963.91
346.384	-1029.45
346.6	-171.35
346.816	-179.54
347.032	-224.59
347.248	285.35
347.464	-214.35
347.68	-126.29
347.896	70.31
348.112	326.31
348.328	-5.46
348.544	-9.56
348.76	10.92
348.975	238.25
349.191	-208.21
349.407	-183.63
349.623	62.12
349.839	-75.09
350.055	-99.67
350.27	-21.84
350.486	86.7
350.702	277.16
350.918	203.43
351.133	-165.2
351.349	203.43
351.565	340.65
351.781	-243.03
351.996	101.03
352.212	301.73
352.428	-150.87
352.644	-185.68
352.859	-189.78
353.075	262.82
353.291	68.27
353.506	-99.67
353.722	-257.36
353.938	-38.23
354.153	418.47
354.369	64.17
354.584	-259.41
354.8	215.72
355.016	-361.81
355.231	-216.4
355.447	-48.47
355.662	66.22
355.878	850.59
356.093	-367.95
356.309	41.64
356.524	-269.65
356.74	248.49
356.955	-140.63
357.171	-116.05
357.386	125.61
357.602	-142.68
357.817	-91.48
358.033	-142.68
358.248	371.37
358.464	86.7
358.679	-171.35
358.895	-312.66
359.11	-50.52
359.325	326.31
359.541	64.17
359.756	-71
359.972	-222.55
360.187	107.18
360.402	-146.77
360.618	-165.2
360.833	866.97
361.048	58.03
361.264	-159.06
361.479	-163.15
361.694	35.5
361.909	260.77
362.125	-228.69
362.34	-114
362.555	154.28
362.77	121.51
362.986	-294.22
363.201	-146.77
363.416	105.13
363.631	15.02
363.847	-234.83
364.062	-195.92
364.277	178.86
364.492	117.42
364.707	-169.3
364.922	-492.88
365.138	285.35
365.353	342.69
365.568	-326.99
365.783	-159.06
365.998	92.84
366.213	459.43
366.428	-273.75
366.643	107.18
366.858	211.62
367.073	148.14
367.288	-189.78
367.503	-238.93
367.718	111.27
367.933	289.45
368.148	-314.7
368.363	-91.48
368.578	-64.85
368.793	402.08
369.008	-181.59
369.223	-247.12
369.438	174.76
369.653	299.69
369.868	-234.83
370.083	-277.84
370.298	33.45
370.513	336.55
370.728	31.4
370.943	-124.24
371.157	-255.31
371.372	488.1
371.587	-267.6
371.802	-238.93
372.017	21.16
372.232	457.38
372.446	-73.04
372.661	-247.12
372.876	199.34
373.091	236.2
373.306	-128.34
373.52	-304.46
373.735	-173.39
373.95	434.85
374.165	-111.96
374.379	-163.15
374.594	-218.45
374.809	82.6
375.023	41.64
375.238	-230.74
375.453	178.86
375.667	-324.94
375.882	-118.1
376.097	-222.55
376.311	21.16
376.526	94.89
376.741	-187.73
376.955	47.79
377.17	545.44
377.384	549.54
377.599	-118.1
377.813	-243.03
378.028	541.35
378.242	189.1
378.457	-189.78
378.672	-333.14
378.886	39.59
379.101	-109.91
379.315	-316.75
379.53	-159.06
379.744	113.32
379.958	189.1
380.173	-163.15
380.387	-177.49
380.602	137.9
380.816	-95.57
381.031	-195.92
381.245	-171.35
381.459	195.24
381.674	2581.12
381.888	-253.27
382.103	88.75
382.317	-226.64
382.531	461.48
382.746	-97.62
382.96	-208.21
383.174	-197.97
383.388	348.84
383.603	27.31
383.817	-173.39
384.031	80.55
384.246	359.08
384.46	-93.52
384.674	293.54
384.888	39.59
385.103	98.99
385.317	-361.81
385.531	-46.42
385.745	389.8
385.959	246.44
386.174	-292.18
386.388	-261.46
386.602	6.83
386.816	-263.51
387.03	-75.09
387.244	-111.96
387.458	-17.75
387.672	299.69
387.887	-255.31
388.101	-361.81
388.315	295.59
388.529	129.7
388.743	-292.18
388.957	-226.64
389.171	305.83
389.385	-208.21
389.599	-107.86
389.813	62.12
390.027	170.66
390.241	570.02
390.455	-85.33
390.669	-191.83
390.883	-50.52
391.097	359.08
391.311	43.69
391.525	-148.82
391.738	213.67
391.952	174.76
392.166	-34.13
392.38	-290.13
392.594	180.9
392.808	371.37
393.022	-95.57
393.236	-202.07
393.449	170.66
393.663	109.22
393.877	-263.51
394.091	-132.44
394.305	-99.67
394.518	-122.2
394.732	-286.03
394.946	-214.35
395.16	344.74
395.373	137.9
395.587	-234.83
395.801	-212.31
396.015	223.91
396.228	150.18
396.442	-329.04
396.656	-300.37
396.869	336.55
397.083	416.42
397.297	-54.61
397.51	-232.79
397.724	285.35
397.938	41.64
398.151	-343.38
398.365	-286.03
398.578	160.42
398.792	350.89
399.005	-60.76
399.219	-136.53
399.433	135.85
399.646	170.66
399.86	72.36
400.073	37.55
400.287	187.05
400.5	-56.66
400.714	-75.09
400.927	-177.49
401.141	225.96
401.354	1139.35
401.567	191.14
401.781	-253.27
401.994	303.78
402.208	527.01
402.421	-105.81
402.635	-148.82
402.848	-11.61
403.061	367.27
403.275	-120.15
403.488	-263.51
403.701	447.14
403.915	182.95
404.128	21.16
404.341	-189.78
404.555	201.38
404.768	41.64
404.981	-40.28
405.195	-251.22
405.408	377.51
405.621	262.82
405.834	-1.37
406.048	-265.55
406.261	412.32
406.474	432.8
406.687	-195.92
406.9	23.21
407.114	72.36
407.327	168.62
407.54	-320.85
407.753	-380.24
407.966	-202.07
408.179	125.61
408.392	-243.03
408.605	-445.77
408.819	129.7
409.032	135.85
409.245	-214.35
409.458	-13.65
409.671	240.3
409.884	189.1
410.097	-357.71
410.31	-56.66
410.523	197.29
410.736	-54.61
410.949	-40.28
411.162	-165.2
411.375	414.37
411.588	314.02
411.801	-81.24
412.014	-154.96
412.227	17.07
412.44	-11.61
412.653	-150.87
412.865	-68.95
413.078	348.84
413.291	195.24
413.504	-71
413.717	-214.35
413.93	156.33
414.143	-128.34
414.356	-111.96
414.568	-337.23
414.781	254.63
414.994	144.04
415.207	-157.01
415.42	-116.05
415.632	264.87
415.845	395.94
416.058	-316.75
416.271	-279.89
416.483	129.7
416.696	426.66
416.909	-251.22
417.121	-238.93
417.334	205.48
417.547	494.24
417.759	-232.79
417.972	-175.44
418.185	-77.14
418.397	281.25
418.61	-206.16
418.823	-253.27
419.035	453.28
419.248	29.35
419.46	-83.28
419.673	-95.57
419.885	148.14
420.098	-48.47
420.311	-216.4
420.523	-386.38
420.736	201.38
420.948	64.17
421.161	-152.91
421.373	-324.94
421.586	125.61
421.798	-140.63
422.01	-308.56
422.223	-132.44
422.435	-163.15
422.648	185
422.86	-136.53
423.073	-300.37
423.285	379.56
423.497	-210.26
423.71	-181.59
423.922	-220.5
424.134	74.41
424.347	350.89
424.559	39.59
424.771	39.59
424.984	-142.68
425.196	146.09
425.408	-357.71
425.621	-382.29
425.833	260.77
426.045	346.79
426.257	-310.61
426.47	-181.59
426.682	141.99
426.894	215.72
427.106	-132.44
427.318	-132.44
427.531	-111.96
427.743	223.91
427.955	-263.51
428.167	271.01
428.379	113.32
428.591	-34.13
428.804	-109.91
429.016	-253.27
429.228	-50.52
429.44	221.86
429.652	-9.56
429.864	-232.79
430.076	-56.66
430.288	6.83
430.5	-95.57
430.712	-109.91
430.924	199.34
431.136	86.7
431.348	-355.66
431.56	-277.84
431.772	41.64
431.984	-3.41
432.196	-277.84
432.408	-200.02
432.62	-97.62
432.832	135.85
433.044	6.83
433.256	-73.04
433.468	178.86
433.679	-294.22
433.891	-226.64
434.103	-42.32
434.315	445.09
434.527	146.09
434.739	-144.72
434.95	-128.34
435.162	305.83
435.374	-97.62
435.586	-183.63
435.798	-220.5
436.009	-216.4
436.221	45.74
436.433	-208.21
436.645	-243.03
436.856	-83.28
437.068	275.11
437.28	-230.74
437.491	76.46
437.703	119.46
437.915	68.27
438.126	-165.2
438.338	10.92
438.55	-30.04
438.761	172.71
438.973	-75.09
439.184	-208.21
439.396	-5.46
439.608	195.24
439.819	-337.23
440.031	-99.67
440.242	98.99
440.454	127.66
440.665	-189.78
440.877	-95.57
441.088	121.51
441.3	-62.8
441.511	-394.58
441.723	-247.12
441.934	121.51
442.146	115.37
442.357	-54.61
442.569	74.41
442.78	129.7
442.991	461.48
443.203	158.38
443.414	-335.18
443.626	354.98
443.837	-157.01
444.048	-310.61
444.26	-365.9
444.471	19.11
444.682	277.16
444.894	-396.62
445.105	-361.81
445.316	307.88
445.528	103.08
445.739	-11.61
445.95	-200.02
446.161	74.41
446.373	228.01
446.584	-189.78
446.795	-165.2
447.006	236.2
447.217	412.32
447.429	-398.67
447.64	-222.55
447.851	412.32
448.062	96.94
448.273	-423.25
448.484	-265.55
448.695	158.38
448.907	10.92
449.118	-120.15
449.329	19.11
449.54	-95.57
449.751	-193.87
449.962	-208.21
450.173	-214.35
450.384	252.58
450.595	277.16
450.806	-267.6
451.017	-226.64
451.228	359.08
451.439	301.73
451.65	-212.31
451.861	-353.62
452.072	-195.92
452.283	-3.41
452.494	-13.65
452.705	-191.83
452.915	346.79
453.126	55.98
453.337	-238.93
453.548	-257.36
453.759	252.58
453.97	514.72
454.181	53.93
454.391	-161.11
454.602	45.74
454.813	121.51
455.024	-146.77
455.235	-218.45
455.445	98.99
455.656	131.75
455.867	-48.47
456.078	-200.02
456.288	-34.13
456.499	105.13
456.71	-136.53
456.921	29.35
457.131	80.55
457.342	121.51
457.553	-159.06
457.763	-173.39
457.974	113.32
458.184	170.66
458.395	-349.52
458.606	-310.61
458.816	320.17
459.027	402.08
459.237	-46.42
459.448	-478.54
459.659	268.97
459.869	604.83
460.08	-331.09
460.29	-130.39
460.501	463.52
460.711	-85.33
460.922	-345.42
461.132	-228.69
461.343	723.62
461.553	-195.92
461.764	-296.27
461.974	-255.31
462.184	213.67
462.395	127.66
462.605	-148.82
462.816	-261.46
463.026	33.45
463.236	305.83
463.447	-255.31
463.657	-234.83
463.867	105.13
464.078	-21.84
464.288	-255.31
464.498	-283.98
464.709	12.97
464.919	-81.24
465.129	-105.81
465.339	-288.08
465.55	60.07
465.76	195.24
465.97	-181.59
466.18	-206.16
466.391	170.66
466.601	10.92
466.811	-142.68
467.021	-329.04
467.231	78.51
467.441	318.12
467.651	-161.11
467.862	-437.58
468.072	6.83
468.282	367.27
468.492	-269.65
468.702	-193.87
468.912	58.03
469.122	580.26
469.332	60.07
469.542	-345.42
469.752	234.15
469.962	47.79
470.172	-341.33
470.382	-292.18
470.592	266.92
470.802	322.21
471.012	-116.05
471.222	-288.08
471.432	295.59
471.642	156.33
471.852	-126.29
472.062	-312.66
472.272	-77.14
472.482	-261.46
472.691	-296.27
472.901	-367.95
473.111	15.02
473.321	584.35
473.531	-326.99
473.741	-138.58
473.95	68.27
474.16	193.19
474.37	-202.07
474.58	-376.14
474.79	393.89
474.999	191.14
475.209	-372.05
475.419	-175.44
475.628	-116.05
475.838	275.11
476.048	-253.27
476.258	-324.94
476.467	320.17
476.677	-161.11
476.886	-66.9
477.096	-140.63
477.306	-142.68
477.515	328.36
477.725	-189.78
477.935	-185.68
478.144	375.46
478.354	-226.64
478.563	-197.97
478.773	-236.88
478.982	160.42
479.192	346.79
479.401	-189.78
479.611	-308.56
479.82	-189.78
480.03	96.94
480.239	-290.13
480.449	-345.42
480.658	363.17
480.868	-183.63
481.077	-118.1
481.287	-218.45
481.496	58.03
481.705	410.28
481.915	41.64
482.124	29.35
482.333	117.42
482.543	365.22
482.752	-247.12
482.961	-243.03
483.171	191.14
483.38	31.4
483.589	-193.87
483.799	-382.29
484.008	-11.61
484.217	260.77
484.426	-159.06
484.636	-370
484.845	113.32
485.054	-238.93
485.263	84.65
485.472	-191.83
485.682	412.32
485.891	72.36
486.1	-380.24
486.309	-247.12
486.518	148.14
486.727	361.13
486.936	-204.11
487.146	-132.44
487.355	301.73
487.564	-191.83
487.773	-281.94
487.982	-283.98
488.191	-99.67
488.4	55.98
488.609	-261.46
488.818	-177.49
489.027	547.49
489.236	346.79
489.445	-238.93
489.654	-345.42
489.863	250.53
490.072	33.45
490.281	64.17
490.49	-206.16
490.698	426.66
490.907	338.6
491.116	-226.64
491.325	-398.67
491.534	420.52
491.743	47.79
491.952	-161.11
492.16	-226.64
492.369	111.27
492.578	162.47
492.787	-114
492.996	-165.2
493.204	-52.56
493.413	512.67
493.622	-435.53
493.831	-396.62
494.039	330.41
494.248	-193.87
494.457	-292.18
494.665	-363.86
494.874	273.06
495.083	492.2
495.291	-165.2
495.5	-208.21
495.709	254.63
495.917	35.5
496.126	-120.15
496.335	-271.7
496.543	-64.85
496.752	78.51
496.96	-7.51
497.169	-402.77
497.377	33.45
497.586	244.39
497.794	-114
498.003	-413.01
498.211	15.02
498.42	426.66
498.628	-179.54
498.837	-300.37
499.045	90.79
499.254	72.36
499.462	-320.85
499.671	-351.57
499.879	359.08
500.087	225.96
500.296	-296.27
500.504	-202.07
500.713	156.33
500.921	498.34
501.129	-300.37
501.338	-228.69
501.546	76.46
501.754	45.74
501.962	-271.7
502.171	-386.38
502.379	88.75
502.587	469.67
502.795	-247.12
503.004	-249.17
503.212	-73.04
503.42	354.98
503.628	-263.51
503.837	-193.87
504.045	195.24
504.253	486.05
504.461	-343.38
504.669	-380.24
504.877	164.52
505.085	326.31
505.294	-427.34
505.502	-89.43
505.71	55.98
505.918	271.01
506.126	-251.22
506.334	-349.52
506.542	-27.99
506.75	123.56
506.958	-157.01
507.166	-230.74
507.374	-60.76
507.582	334.5
507.79	-140.63
507.998	-357.71
508.206	55.98
508.414	144.04
508.622	-290.13
508.83	-204.11
509.037	445.09
509.245	-62.8
509.453	-353.62
509.661	-372.05
509.869	150.18
510.077	-7.51
510.285	-107.86
510.492	-488.78
510.7	580.26
510.908	-111.96
511.116	-226.64
511.324	-365.9
511.531	6.83
511.739	29.35
511.947	-146.77
512.155	27.31
512.362	33.45
512.57	-257.36
512.778	-349.52
512.985	-451.92
513.193	240.3
513.401	330.41
513.608	-195.92
513.816	-247.12
514.024	84.65
514.231	295.59
514.439	-329.04
514.646	-318.8
514.854	160.42
515.061	264.87
515.269	-345.42
515.477	-345.42
515.684	-245.07
515.892	273.06
516.099	-390.48
516.307	-390.48
516.514	141.99
516.722	465.57
516.929	-279.89
517.136	-361.81
517.344	436.9
517.551	88.75
517.759	-236.88
517.966	-232.79
518.173	-73.04
518.381	27.31
518.588	-157.01
518.796	-296.27
519.003	219.82
519.21	29.35
519.418	-210.26
519.625	2.73
519.832	-50.52
520.039	141.99
520.247	-413.01
520.454	-210.26
520.661	246.44
520.868	219.82
521.076	-218.45
521.283	-226.64
521.49	567.97
521.697	133.8
521.904	-214.35
522.112	-263.51
522.319	223.91
522.526	119.46
522.733	-314.7
522.94	-326.99
523.147	49.83
523.354	305.83
523.561	-472.4
523.768	-288.08
523.975	326.31
524.183	148.14
524.39	-232.79
524.597	-361.81
524.804	31.4
525.011	-138.58
525.218	-222.55
525.425	-279.89
525.632	305.83
525.838	-165.2
526.045	-271.7
526.252	-318.8
526.459	1053.34
526.666	891.55
526.873	-243.03
527.08	-310.61
527.287	383.65
527.494	215.72
527.701	-400.72
527.907	-400.72
528.114	107.18
528.321	-48.47
528.528	-245.07
528.735	-335.18
528.941	-116.05
529.148	-73.04
529.355	-230.74
529.562	-341.33
529.768	326.31
529.975	-62.8
530.182	-197.97
530.388	-306.51
530.595	293.54
530.802	-200.02
531.008	-140.63
531.215	-218.45
531.422	707.23
531.628	670.37
531.835	-159.06
532.042	-185.68
532.248	-75.09
532.455	58.03
532.661	-185.68
532.868	-316.75
533.074	-9.56
533.281	158.38
533.487	-105.81
533.694	-279.89
533.9	-202.07
534.107	150.18
534.313	-333.14
534.52	-341.33
534.726	158.38
534.933	522.91
535.139	-316.75
535.345	-390.48
535.552	105.13
535.758	-42.32
535.965	-271.7
536.171	-324.94
536.377	148.14
536.584	373.41
536.79	-269.65
536.996	-230.74
537.203	-25.94
537.409	156.33
537.615	-292.18
537.821	-124.24
538.028	205.48
538.234	219.82
538.44	-220.5
538.646	-230.74
538.853	172.71
539.059	-3.41
539.265	82.6
539.471	-410.96
539.677	277.16
539.883	-116.05
540.09	-271.7
540.296	88.75
540.502	8.87
540.708	-114
540.914	-97.62
541.12	-271.7
541.326	133.8
541.532	-138.58
541.738	-267.6
541.944	-283.98
542.15	271.01
542.356	-52.56
542.562	-279.89
542.768	-179.54
542.974	572.07
543.18	486.05
543.386	-337.23
543.592	-419.15
543.798	354.98
544.004	264.87
544.21	-322.9
544.415	-171.35
544.621	10.92
544.827	299.69
545.033	-400.72
545.239	-17.75
545.445	-261.46
545.651	121.51
545.856	-255.31
546.062	-306.51
546.268	-60.76
546.474	-42.32
546.679	-251.22
546.885	-243.03
547.091	-71
547.297	512.67
547.502	-255.31
547.708	-394.58
547.914	-191.83
548.119	182.95
548.325	-347.47
548.531	-298.32
548.736	410.28
548.942	-171.35
549.147	-283.98
549.353	-30.04
549.559	217.77
549.764	82.6
549.97	-271.7
550.175	-261.46
550.381	109.22
550.586	-91.48
550.792	-277.84
550.997	-273.75
551.203	133.8
551.408	111.27
551.614	-402.77
551.819	-279.89
552.025	422.56
552.23	447.14
552.435	-400.72
552.641	-146.77
552.846	-122.2
553.052	258.73
553.257	-173.39
553.462	-312.66
553.668	-185.68
553.873	230.06
554.078	-378.19
554.283	-314.7
554.489	55.98
554.694	-1.37
554.899	-296.27
555.105	-165.2
555.31	164.52
555.515	213.67
555.72	-218.45
555.925	-316.75
556.131	158.38
556.336	-81.24
556.541	-326.99
556.746	-400.72
556.951	357.03
557.156	416.42
557.361	-236.88
557.567	-134.48
557.772	531.11
557.977	174.76
558.182	-304.46
558.387	-343.38
558.592	-62.8
558.797	309.93
559.002	-185.68
559.207	-157.01
559.412	-5.46
559.617	469.67
559.822	-269.65
560.027	-363.86
560.232	72.36
560.437	107.18
560.642	-413.01
560.847	-335.18
561.051	111.27
561.256	137.9
561.461	-259.41
561.666	-370
561.871	60.07
562.076	240.3
562.281	-243.03
562.485	-359.76
562.69	154.28
562.895	320.17
563.1	-277.84
563.305	-345.42
563.509	262.82
563.714	520.87
563.919	-308.56
564.123	-269.65
564.328	-46.42
564.533	289.45
564.737	-189.78
564.942	-243.03
565.147	318.12
565.351	518.82
565.556	-202.07
565.761	-152.91
565.965	17.07
566.17	-187.73
566.374	-218.45
566.579	-406.86
566.784	39.59
566.988	-21.84
567.193	-388.43
567.397	-337.23
567.602	-247.12
567.806	39.59
568.011	-320.85
568.215	-224.59
568.42	-17.75
568.624	-85.33
568.828	-243.03
569.033	-122.2
569.237	144.04
569.442	39.59
569.646	-470.35
569.85	-279.89
570.055	-60.76
570.259	37.55
570.463	-116.05
570.668	-234.83
570.872	98.99
571.076	-34.13
571.281	-169.3
571.485	-222.55
571.689	10.92
571.893	129.7
572.098	-210.26
572.302	-238.93
572.506	170.66
572.71	-19.8
572.914	-279.89
573.119	-243.03
573.323	369.32
573.527	338.6
573.731	-331.09
573.935	-333.14
574.139	55.98
574.343	-189.78
574.547	-324.94
574.751	-277.84
574.955	334.5
575.159	273.06
575.364	-296.27
575.568	-263.51
575.772	-83.28
575.976	387.75
576.18	-308.56
576.383	-470.35
576.587	318.12
576.791	144.04
576.995	-462.16
577.199	-437.58
577.403	338.6
577.607	254.63
577.811	-410.96
578.015	-189.78
578.219	78.51
578.422	199.34
578.626	-185.68
578.83	-97.62
579.034	287.4
579.238	-1.37
579.442	-341.33
579.645	125.61
579.849	2.73
580.053	80.55
580.257	-230.74
580.46	-218.45
580.664	137.9
580.868	152.23
581.071	-38.23
581.275	-167.25
581.479	-251.22
581.682	189.1
581.886	-286.03
582.09	-136.53
582.293	234.15
582.497	248.49
582.7	-87.38
582.904	-357.71
583.107	37.55
583.311	-68.95
583.515	-177.49
583.718	-300.37
583.922	152.23
584.125	490.15
584.329	-286.03
584.532	-146.77
584.735	375.46
584.939	133.8
585.142	-394.58
585.346	-304.46
585.549	41.64
585.753	-56.66
585.956	-267.6
586.159	-216.4
586.363	447.14
586.566	170.66
586.769	-271.7
586.973	-370
587.176	90.79
587.379	271.01
587.582	123.56
587.786	-17.75
587.989	-48.47
588.192	643.74
588.395	-195.92
588.599	-91.48
588.802	84.65
589.005	129.7
589.208	-218.45
589.411	-283.98
589.615	254.63
589.818	342.69
590.021	-1.37
590.224	-181.59
590.427	273.06
590.63	111.27
590.833	-408.91
591.036	-359.76
591.239	-62.8
591.442	-30.04
591.645	-60.76
591.848	-249.17
592.051	70.31
592.254	334.5
592.457	-206.16
592.66	-228.69
592.863	-50.52
593.066	144.04
593.269	-343.38
593.472	-132.44
593.675	-202.07
593.878	268.97
594.081	-109.91
594.284	-281.94
594.486	123.56
594.689	2.73
594.892	-216.4
595.095	-259.41
595.298	113.32
595.5	-62.8
595.703	-195.92
595.906	-177.49
596.109	404.13
596.311	207.53
596.514	-578.89
596.717	-189.78
596.92	291.49
597.122	96.94
597.325	-484.69
597.528	-300.37
597.73	219.82
597.933	-11.61
598.136	-292.18
598.338	-439.63
598.541	98.99
598.743	350.89
598.946	-230.74
599.148	-269.65
599.351	299.69
599.554	211.62
599.756	-101.72
599.959	-185.68
600.161	199.34
600.363	551.59
600.566	-25.94
600.768	-288.08
600.971	449.19
601.173	209.58
601.376	-290.13
601.578	-216.4
601.78	115.37
601.983	520.87
602.185	-308.56
602.388	-62.8
602.59	121.51
602.792	-140.63
602.995	-42.32
603.197	-286.03
603.399	246.44
603.601	123.56
603.804	-214.35
604.006	-288.08
604.208	-75.09
604.41	-345.42
604.613	-136.53
604.815	-294.22
605.017	469.67
605.219	-136.53
605.421	92.84
605.623	-306.51
605.826	346.79
606.028	391.84
606.23	-230.74
606.432	-212.31
606.634	484
606.836	307.88
607.038	-372.05
607.24	-83.28
607.442	72.36
607.644	27.31
607.846	-132.44
608.048	-378.19
608.25	303.78
608.452	-165.2
608.654	-210.26
608.856	-415.05
609.058	-23.89
609.26	135.85
609.462	-124.24
609.664	-228.69
609.866	514.72
610.067	228.01
610.269	-83.28
610.471	-183.63
610.673	-101.72
610.875	115.37
611.077	-427.34
611.278	-60.76
611.48	8.87
611.682	441
611.884	-128.34
612.085	-154.96
612.287	-304.46
612.489	146.09
612.69	-359.76
612.892	-210.26
613.094	197.29
613.295	88.75
613.497	-310.61
613.699	-281.94
613.9	383.65
614.102	295.59
614.304	-132.44
614.505	-322.9
614.707	-5.46
614.908	96.94
615.11	-370
615.311	-177.49
615.513	158.38
615.714	236.2
615.916	-351.57
616.117	-179.54
616.319	-7.51
616.52	178.86
616.722	-333.14
616.923	-326.99
617.124	303.78
617.326	164.52
617.527	-128.34
617.729	15.02
617.93	203.43
618.131	203.43
618.333	-165.2
618.534	-85.33
618.735	-109.91
618.937	424.61
619.138	-296.27
619.339	-326.99
619.54	158.38
619.742	2.73
619.943	-87.38
620.144	-185.68
620.345	232.1
620.546	250.53
620.748	-298.32
620.949	-214.35
621.15	45.74
621.351	88.75
621.552	-286.03
621.753	-312.66
621.954	-324.94
622.155	596.64
622.356	-329.04
622.558	-95.57
622.759	27.31
622.96	363.17
623.161	-193.87
623.362	-210.26
623.563	-101.72
623.764	199.34
623.965	-157.01
624.166	-64.85
624.366	2.73
624.567	98.99
624.768	-472.4
624.969	-245.07
625.17	-40.28
625.371	115.37
625.572	-142.68
625.773	-339.28
625.973	211.62
626.174	225.96
626.375	-165.2
626.576	-118.1
626.777	223.91
626.977	551.59
627.178	-163.15
627.379	-116.05
627.58	-83.28
627.78	68.27
627.981	-144.72
628.182	-66.9
628.382	232.1
628.583	-326.99
628.784	-337.23
628.984	-25.94
629.185	252.58
629.386	195.24
629.586	-142.68
629.787	-288.08
629.987	148.14
630.188	31.4
630.388	-191.83
630.589	-193.87
630.79	588.45
630.99	105.13
631.191	-161.11
631.391	-91.48
631.591	258.73
631.792	477.86
631.992	-93.52
632.193	-197.97
632.393	457.38
632.594	92.84
632.794	-281.94
632.994	-120.15
633.195	2.73
633.395	68.27
633.595	-279.89
633.796	-42.32
633.996	-128.34
634.196	332.45
634.397	-396.62
634.597	-204.11
634.797	-212.31
634.997	443.04
635.198	-64.85
635.398	-335.18
635.598	201.38
635.798	361.13
635.998	234.15
636.199	-269.65
636.399	-111.96
636.599	-204.11
636.799	-195.92
636.999	19.11
637.199	191.14
637.399	252.58
637.599	-206.16
637.799	-30.04
637.999	-111.96
638.199	436.9
638.399	-361.81
638.599	-257.36
638.799	182.95
638.999	541.35
639.199	-34.13
639.399	-204.11
639.599	436.9
639.799	-148.82
639.999	-302.42
640.199	-308.56
640.399	133.8
640.599	129.7
640.799	-165.2
640.998	23.21
641.198	318.12
641.398	139.94
641.598	-83.28
641.798	-169.3
641.997	940.7
642.197	88.75
642.397	-132.44
642.597	-183.63
642.796	133.8
642.996	309.93
643.196	-23.89
643.395	-304.46
643.595	174.76
643.795	-370
643.994	-191.83
644.194	-177.49
644.394	168.62
644.593	148.14
644.793	-263.51
644.992	-120.15
645.192	105.13
645.392	-294.22
645.591	-93.52
645.791	-243.03
645.99	176.81
646.19	70.31
646.389	-132.44
646.589	-187.73
646.788	170.66
646.987	187.05
647.187	76.46
647.386	-77.14
647.586	12.97
647.785	219.82
647.984	-175.44
648.184	-144.72
648.383	-159.06
648.582	-107.86
648.782	-144.72
648.981	-50.52
649.18	-146.77
649.38	92.84
649.579	-212.31
649.778	-238.93
649.977	88.75
650.177	127.66
650.376	-206.16
650.575	-247.12
650.774	463.52
650.973	-169.3
651.173	-374.1
651.372	-128.34
651.571	31.4
651.77	260.77
651.969	-228.69
652.168	-99.67
652.367	-181.59
652.566	121.51
652.765	-302.42
652.964	88.75
653.163	467.62
653.362	-89.43
653.561	-249.17
653.76	-165.2
653.959	-114
654.158	166.57
654.357	84.65
654.556	-179.54
654.755	203.43
654.954	273.06
655.153	-185.68
655.352	-89.43
655.551	346.79
655.749	-152.91
655.948	-128.34
656.147	-97.62
656.346	113.32
656.545	10.92
656.743	-120.15
656.942	-64.85
657.141	68.27
657.34	-48.47
657.538	-157.01
657.737	-185.68
657.936	-89.43
658.135	211.62
658.333	-128.34
658.532	-124.24
658.731	496.29
658.929	246.44
659.128	168.62
659.326	-271.7
659.525	336.55
659.724	80.55
659.922	-415.05
660.121	-333.14
660.319	119.46
660.518	-87.38
660.716	-300.37
660.915	-240.98
661.113	424.61
661.312	-304.46
661.51	-87.38
661.709	-290.13
661.907	141.99
662.105	471.72
662.304	-204.11
662.502	-124.24
662.701	385.7
662.899	-19.8
663.097	101.03
663.296	-271.7
663.494	275.11
663.692	383.65
663.891	-267.6
664.089	-265.55
664.287	107.18
664.485	434.85
664.684	-263.51
664.882	-68.95
665.08	96.94
665.278	107.18
665.476	-320.85
665.675	111.27
665.873	623.27
666.071	371.37
666.269	-191.83
666.467	58.03
666.665	88.75
666.863	2.73
667.061	-89.43
667.259	-173.39
667.457	49.83
667.655	238.25
667.853	-394.58
668.051	-40.28
668.249	-87.38
668.447	223.91
668.645	-218.45
668.843	6.83
669.041	72.36
669.239	-103.76
669.437	-85.33
669.635	-179.54
669.833	-148.82
670.031	277.16
670.229	-66.9
670.426	-97.62
670.624	-64.85
670.822	-83.28
671.02	-193.87
671.218	-161.11
671.415	-128.34
671.613	2.73
671.811	-30.04
672.009	-150.87
672.206	150.18
672.404	53.93
672.602	60.07
672.799	-95.57
672.997	109.22
673.195	318.12
673.392	4.78
673.59	-302.42
673.788	236.2
673.985	-353.62
674.183	-105.81
674.38	-161.11
674.578	256.68
674.775	-75.09
674.973	-238.93
675.17	-195.92
675.368	438.95
675.565	139.94
675.763	-267.6
675.96	-263.51
676.158	410.28
676.355	-15.7
676.553	-165.2
676.75	-232.79
676.947	-1.37
677.145	19.11
677.342	-159.06
677.539	-54.61
677.737	199.34
677.934	555.68
678.131	-30.04
678.329	-240.98
678.526	416.42
678.723	203.43
678.92	-146.77
679.118	-214.35
679.315	-128.34
679.512	346.79
679.709	-191.83
679.906	-81.24
680.104	320.17
680.301	23.21
680.498	-214.35
680.695	-189.78
680.892	-103.76
681.089	-54.61
681.286	-148.82
681.483	-292.18
681.68	252.58
681.877	273.06
682.075	-36.18
682.272	98.99
682.469	86.7
682.665	2.73
682.862	-234.83
683.059	-341.33
683.256	141.99
683.453	74.41
683.65	37.55
683.847	-146.77
684.044	21.16
684.241	-105.81
684.438	-11.61
684.635	-226.64
684.831	486.05
685.028	594.59
685.225	-204.11
685.422	-85.33
685.619	-1.37
685.815	84.65
686.012	-89.43
686.209	-122.2
686.405	-185.68
686.602	252.58
686.799	-308.56
686.996	-218.45
687.192	-83.28
687.389	572.07
687.586	-247.12
687.782	-226.64
687.979	477.86
688.175	246.44
688.372	-157.01
688.568	-154.96
688.765	-62.8
688.962	367.27
689.158	4.78
689.355	-292.18
689.551	246.44
689.748	-87.38
689.944	-34.13
690.14	-312.66
690.337	264.87
690.533	-91.48
690.73	-38.23
690.926	-187.73
691.123	148.14
691.319	101.03
691.515	-269.65
691.712	33.45
691.908	246.44
692.104	131.75
692.301	8.87
692.497	-249.17
692.693	223.91
692.889	299.69
693.086	-32.08
693.282	-296.27
693.478	101.03
693.674	457.38
693.87	-138.58
694.067	-320.85
694.263	68.27
694.459	47.79
694.655	-15.7
694.851	-42.32
695.047	252.58
695.243	232.1
695.439	-9.56
695.635	-152.91
695.831	307.88
696.027	17.07
696.224	-236.88
696.42	191.14
696.615	354.98
696.811	242.34
697.007	-288.08
697.203	-173.39
697.399	101.03
697.595	406.18
697.791	-214.35
697.987	55.98
698.183	-157.01
698.379	-138.58
698.575	-128.34
698.77	-130.39
698.966	209.58
699.162	436.9
699.358	-30.04
699.554	-152.91
699.749	141.99
699.945	221.86
700.141	-165.2
700.337	-60.76
700.532	64.17
700.728	-159.06
700.924	-236.88
701.119	-292.18
701.315	219.82
701.511	121.51
701.706	-62.8
701.902	-234.83
702.097	90.79
702.293	217.77
702.489	-38.23
702.684	-79.19
702.88	82.6
703.075	-89.43
703.271	-95.57
703.466	-204.11
703.662	64.17
703.857	230.06
704.053	-173.39
704.248	-107.86
704.443	338.6
704.639	211.62
704.834	-87.38
705.03	-128.34
705.225	207.53
705.42	350.89
705.616	-30.04
705.811	-226.64
706.006	39.59
706.202	33.45
706.397	-38.23
706.592	-279.89
706.787	172.71
706.983	191.14
707.178	72.36
707.373	-114
707.568	293.54
707.763	371.37
707.959	-165.2
708.154	-148.82
708.349	154.28
708.544	174.76
708.739	125.61
708.934	-210.26
709.129	170.66
709.324	271.01
709.519	-185.68
709.714	-234.83
709.909	336.55
710.104	129.7
710.299	-124.24
710.494	-34.13
710.689	234.15
710.884	117.42
711.079	33.45
711.274	25.26
711.469	199.34
711.664	205.48
711.859	-195.92
712.054	-21.84
712.249	211.62
712.443	262.82
712.638	-267.6
712.833	-222.55
713.028	-1.37
713.223	-23.89
713.417	72.36
713.612	-167.25
713.807	254.63
714.002	699.04
714.196	25.26
714.391	-99.67
714.586	289.45
714.78	96.94
714.975	-142.68
715.17	-181.59
715.364	-5.46
715.559	301.73
715.754	-312.66
715.948	-197.97
716.143	543.39
716.337	135.85
716.532	98.99
716.726	-220.5
716.921	285.35
717.115	498.34
717.31	-283.98
717.504	307.88
717.699	-38.23
717.893	209.58
718.088	-163.15
718.282	-240.98
718.476	101.03
718.671	258.73
718.865	-208.21
719.059	-175.44
719.254	94.89
719.448	432.8
719.642	1147.55
719.837	-353.62
720.031	301.73
720.225	420.52
720.419	21.16
720.614	-140.63
720.808	285.35
721.002	70.31
721.196	-189.78
721.39	-87.38
721.585	443.04
721.779	150.18
721.973	-202.07
722.167	-265.55
722.361	117.42
722.555	301.73
722.749	-107.86
722.943	-171.35
723.137	-157.01
723.331	195.24
723.525	-163.15
723.719	-163.15
723.913	238.25
724.107	445.09
724.301	-286.03
724.495	-103.76
724.689	518.82
724.883	416.42
725.077	-214.35
725.271	-130.39
725.465	375.46
725.659	21.16
725.853	-111.96
726.046	-214.35
726.24	-42.32
726.434	336.55
726.628	-173.39
726.822	-189.78
727.015	320.17
727.209	404.13
727.403	-107.86
727.596	-292.18
727.79	383.65
727.984	375.46
728.177	-171.35
728.371	-122.2
728.565	320.17
728.758	-253.27
728.952	-296.27
729.146	-208.21
729.339	400.04
729.533	39.59
729.726	-154.96
729.92	-234.83
730.113	371.37
730.307	29.35
730.5	-222.55
730.694	-222.55
730.887	37.55
731.081	230.06
731.274	-335.18
731.468	-97.62
731.661	137.9
731.854	-73.04
732.048	-132.44
732.241	-171.35
732.435	-42.32
732.628	139.94
732.821	-118.1
733.014	-204.11
733.208	-228.69
733.401	299.69
733.594	-103.76
733.788	-105.81
733.981	385.7
734.174	221.86
734.367	-103.76
734.56	-13.65
734.754	318.12
734.947	49.83
735.14	-230.74
735.333	-107.86
735.526	268.97
735.719	-107.86
735.912	-189.78
736.105	-234.83
736.298	113.32
736.491	-64.85
736.684	-140.63
736.877	-214.35
737.07	98.99
737.263	352.93
737.456	-105.81
737.649	-304.46
737.842	-19.8
738.035	154.28
738.228	-91.48
738.421	60.07
738.614	309.93
738.807	254.63
739	-310.61
739.192	-261.46
739.385	178.86
739.578	320.17
739.771	58.03
739.964	-183.63
740.156	203.43
740.349	39.59
740.542	-5.46
740.735	-361.81
740.927	-204.11
741.12	-218.45
741.313	-197.97
741.505	-54.61
741.698	109.22
741.891	176.81
742.083	19.11
742.276	-243.03
742.468	96.94
742.661	-23.89
742.854	-169.3
743.046	-171.35
743.239	465.57
743.431	6.83
743.624	-120.15
743.816	-337.23
744.009	-93.52
744.201	195.24
744.393	-3.41
744.586	-337.23
744.778	385.7
744.971	129.7
745.163	-62.8
745.355	-38.23
745.548	78.51
745.74	17.07
745.932	-40.28
746.125	-212.31
746.317	672.42
746.509	84.65
746.702	-197.97
746.894	-114
747.086	162.47
747.278	207.53
747.471	49.83
747.663	-122.2
747.855	70.31
748.047	488.1
748.239	-236.88
748.431	-173.39
748.623	543.39
748.815	465.57
749.008	-267.6
749.2	-220.5
749.392	260.77
749.584	137.9
749.776	-175.44
749.968	-60.76
750.16	459.43
750.352	-60.76
750.544	-101.72
750.736	-304.46
750.928	219.82
751.12	23.21
751.311	-136.53
751.503	-105.81
751.695	133.8
751.887	84.65
752.079	-408.91
752.271	-111.96
752.463	819.87
752.654	314.02
752.846	-71
753.038	-159.06
753.23	-89.43
753.421	309.93
753.613	-150.87
753.805	68.27
753.997	361.13
754.188	318.12
754.38	-130.39
754.572	-122.2
754.763	31.4
754.955	150.18
755.146	-101.72
755.338	-62.8
755.53	182.95
755.721	43.69
755.913	-263.51
756.104	-245.07
756.296	105.13
756.487	287.4
756.679	-228.69
756.87	-136.53
757.062	84.65
757.253	217.77
757.445	-128.34
757.636	23.21
757.827	43.69
758.019	690.85
758.21	-240.98
758.401	-120.15
758.593	641.7
758.784	361.13
758.975	-277.84
759.167	-353.62
759.358	162.47
759.549	307.88
759.74	-48.47
759.932	-187.73
760.123	404.13
760.314	-122.2
760.505	-93.52
760.696	-179.54
760.888	516.77
761.079	43.69
761.27	-234.83
761.461	-392.53
761.652	416.42
761.843	-42.32
762.034	-195.92
762.225	150.18
762.416	53.93
762.607	31.4
762.798	-154.96
762.989	-105.81
763.18	807.58
763.371	2.73
763.562	-179.54
763.753	-118.1
763.944	299.69
764.135	385.7
764.326	-34.13
764.517	-54.61
764.708	107.18
764.899	211.62
765.089	-167.25
765.28	-337.23
765.471	152.23
765.662	326.31
765.853	-85.33
766.043	-281.94
766.234	311.97
766.425	318.12
766.615	-134.48
766.806	-216.4
766.997	412.32
767.187	170.66
767.378	-308.56
767.569	-345.42
767.759	268.97
767.95	164.52
768.141	21.16
768.331	-232.79
768.522	68.27
768.712	240.3
768.903	-200.02
769.093	-167.25
769.284	475.81
769.474	125.61
769.665	-329.04
769.855	-320.85
770.046	246.44
770.236	10.92
770.426	31.4
770.617	-288.08
770.807	252.58
770.998	76.46
771.188	-79.19
771.378	-277.84
771.569	223.91
771.759	238.25
771.949	-210.26
772.139	-398.67
772.33	170.66
772.52	424.61
772.71	-157.01
772.9	-372.05
773.09	516.77
773.281	387.75
773.471	-236.88
773.661	-142.68
773.851	420.52
774.041	-46.42
774.231	-271.7
774.421	-91.48
774.611	524.96
774.802	117.42
774.992	-159.06
775.182	-255.31
775.372	162.47
775.562	342.69
775.752	-122.2
775.942	-154.96
776.131	352.93
776.321	203.43
776.511	-202.07
776.701	-306.51
776.891	252.58
777.081	-173.39
777.271	-89.43
777.461	-222.55
777.651	195.24
777.84	418.47
778.03	-42.32
778.22	-177.49
778.41	357.03
778.599	-87.38
778.789	-140.63
778.979	-275.79
779.169	146.09
779.358	137.9
779.548	47.79
779.738	-265.55
779.927	141.99
780.117	-142.68
780.307	-177.49
780.496	-435.53
780.686	160.42
780.875	443.04
781.065	-204.11
781.254	-120.15
781.444	88.75
781.633	195.24
781.823	-193.87
782.012	-218.45
782.202	21.16
782.391	-3.41
782.581	-281.94
782.77	-46.42
782.96	295.59
783.149	51.88
783.338	-114
783.528	-288.08
783.717	238.25
783.906	305.83
784.096	-97.62
784.285	-304.46
784.474	-34.13
784.663	-56.66
784.853	-181.59
785.042	-210.26
785.231	17.07
785.42	281.25
785.61	-132.44
785.799	-322.9
785.988	-66.9
786.177	80.55
786.366	-200.02
786.555	49.83
786.744	289.45
786.933	-42.32
787.122	-245.07
787.312	-333.14
787.501	-9.56
787.69	152.23
787.879	-251.22
788.068	-181.59
788.257	-144.72
788.445	64.17
788.634	-144.72
788.823	-243.03
789.012	746.14
789.201	389.8
789.39	-148.82
789.579	-236.88
789.768	133.8
789.957	55.98
790.145	-161.11
790.334	-392.53
790.523	-120.15
790.712	49.83
790.9	-95.57
791.089	-357.71
791.278	307.88
791.467	144.04
791.655	92.84
791.844	324.26
792.033	-64.85
792.221	-7.51
792.41	-79.19
792.599	-320.85
792.787	207.53
792.976	291.49
793.164	-230.74
793.353	-234.83
793.541	191.14
793.73	146.09
793.918	-136.53
794.107	-130.39
794.295	68.27
794.484	33.45
794.672	-116.05
794.861	-169.3
795.049	150.18
795.238	537.25
795.426	-304.46
795.614	-79.19
795.803	254.63
795.991	397.99
796.179	-154.96
796.368	-120.15
796.556	373.41
796.744	-144.72
796.932	-185.68
797.121	-310.61
797.309	51.88
797.497	256.68
797.685	-89.43
797.874	-251.22
798.062	-30.04
798.25	453.28
798.438	-238.93
798.626	-286.03
798.814	98.99
799.002	608.93
799.19	-54.61
799.378	-150.87
799.566	379.56
799.755	514.72
799.943	-9.56
800.131	-171.35
800.318	82.6
800.506	146.09
800.694	-208.21
800.882	-50.52
801.07	377.51
801.258	17.07
801.446	-249.17
801.634	-175.44
801.822	17.07
802.01	23.21
802.197	-214.35
802.385	-97.62
802.573	113.32
802.761	-146.77
802.949	-93.52
803.136	-322.9
803.324	234.15
803.512	105.13
803.699	-132.44
803.887	-355.66
804.075	402.08
804.262	25.26
804.45	-353.62
804.638	-38.23
804.825	-81.24
805.013	-50.52
805.201	-179.54
805.388	-341.33
805.576	8.87
805.763	486.05
805.951	-132.44
806.138	-38.23
806.326	537.25
806.513	219.82
806.701	-167.25
806.888	-294.22
807.075	-5.46
807.263	473.76
807.45	-410.96
807.638	-9.56
807.825	520.87
808.012	256.68
808.2	-124.24
808.387	10.92
808.574	146.09
808.761	408.23
808.949	-251.22
809.136	-120.15
809.323	-58.71
809.51	-25.94
809.698	144.04
809.885	25.26
810.072	154.28
810.259	293.54
810.446	-77.14
810.633	-204.11
810.82	309.93
811.008	395.94
811.195	-38.23
811.382	-171.35
811.569	113.32
811.756	-148.82
811.943	-202.07
812.13	-206.16
812.317	-128.34
812.504	-42.32
812.691	-169.3
812.878	-120.15
813.064	346.79
813.251	94.89
813.438	-202.07
813.625	-85.33
813.812	-17.75
813.999	39.59
814.186	-140.63
814.372	-124.24
814.559	23.21
814.746	465.57
814.933	-124.24
815.12	55.98
815.306	-77.14
815.493	-210.26
815.68	-273.75
815.866	-124.24
816.053	373.41
816.24	588.45
816.426	-42.32
816.613	-212.31
816.799	248.49
816.986	371.37
817.173	-191.83
817.359	-226.64
817.546	127.66
817.732	-236.88
817.919	-431.44
818.105	-154.96
818.292	8.87
818.478	137.9
818.665	-165.2
818.851	-249.17
819.037	533.15
819.224	37.55
819.41	-275.79
819.597	-204.11
819.783	539.3
819.969	154.28
820.156	-114
820.342	-378.19
820.528	764.57
820.714	107.18
820.901	39.59
821.087	-267.6
821.273	461.48
821.459	-30.04
821.646	-290.13
821.832	-283.98
822.018	60.07
822.204	125.61
822.39	-173.39
822.576	-324.94
822.762	221.86
822.948	84.65
823.134	45.74
823.32	-181.59
823.507	-226.64
823.693	137.9
823.879	199.34
824.065	-210.26
824.25	232.1
824.436	-140.63
824.622	-120.15
824.808	-312.66
824.994	-75.09
825.18	-197.97
825.366	-290.13
825.552	-210.26
825.738	-21.84
825.923	283.3
826.109	-23.89
826.295	-200.02
826.481	-32.08
826.667	-62.8
826.852	-73.04
827.038	-257.36
827.224	289.45
827.409	451.24
827.595	-419.15
827.781	33.45
827.966	285.35
828.152	340.65
828.338	-111.96
828.523	-324.94
828.709	-89.43
828.894	397.99
829.08	-144.72
829.266	-222.55
829.451	-144.72
829.637	193.19
829.822	-48.47
830.008	-185.68
830.193	365.22
830.378	334.5
830.564	-73.04
830.749	-288.08
830.935	182.95
831.12	256.68
831.305	-195.92
831.491	-17.75
831.676	-142.68
831.861	248.49
832.047	-167.25
832.232	-302.42
832.417	213.67
832.602	96.94
832.788	-253.27
832.973	-236.88
833.158	90.79
833.343	119.46
833.528	-126.29
833.714	-111.96
833.899	262.82
834.084	518.82
834.269	-52.56
834.454	-95.57
834.639	252.58
834.824	98.99
835.009	-54.61
835.194	-73.04
835.379	266.92
835.564	436.9
835.749	-46.42
835.934	-243.03
836.119	279.21
836.304	53.93
836.489	-161.11
836.674	66.22
836.859	-91.48
837.044	410.28
837.228	-132.44
837.413	-202.07
837.598	174.76
837.783	424.61
837.968	-193.87
838.152	-374.1
838.337	-341.33
838.522	457.38
838.707	197.29
838.891	60.07
839.076	244.39
839.261	279.21
839.445	-181.59
839.63	-97.62
839.815	508.58
839.999	27.31
840.184	-222.55
840.368	-154.96
840.553	293.54
840.737	301.73
840.922	-167.25
841.106	-357.71
841.291	-175.44
841.475	137.9
841.66	-148.82
841.844	-152.91
842.029	819.87
842.213	-177.49
842.397	-214.35
842.582	-304.46
842.766	346.79
842.951	289.45
843.135	-226.64
843.319	-140.63
843.504	119.46
843.688	305.83
843.872	-290.13
844.056	-316.75
844.241	207.53
844.425	80.55
844.609	49.83
844.793	-402.77
844.977	361.13
845.161	228.01
845.346	-283.98
845.53	-148.82
845.714	64.17
845.898	449.19
846.082	-341.33
846.266	-200.02
846.45	170.66
846.634	203.43
846.818	-161.11
847.002	-52.56
847.186	213.67
847.37	-58.71
847.554	-261.46
847.738	-95.57
847.922	172.71
848.106	178.86
848.29	-326.99
848.473	-275.79
848.657	248.49
848.841	78.51
849.025	-111.96
849.209	-394.58
849.392	234.15
849.576	4.78
849.76	-376.14
849.944	-109.91
850.127	328.36
850.311	-148.82
850.495	-290.13
850.678	-324.94
850.862	391.84
851.046	416.42
851.229	107.18
851.413	-255.31
851.596	174.76
851.78	66.22
851.964	-91.48
852.147	-99.67
852.331	848.54
852.514	428.71
852.698	-136.53
852.881	-273.75
853.065	330.41
853.248	58.03
853.431	-21.84
853.615	-13.65
853.798	613.03
853.982	156.33
854.165	-3.41
854.348	-200.02
854.532	-116.05
854.715	27.31
854.898	-87.38
855.081	-75.09
855.265	416.42
855.448	481.96
855.631	-193.87
855.814	-331.09
855.997	342.69
856.181	45.74
856.364	-132.44
856.547	-372.05
856.73	107.18
856.913	133.8
857.096	-310.61
857.279	-93.52
857.462	-32.08
857.645	334.5
857.828	19.11
858.011	-11.61
858.194	-99.67
858.377	268.97
858.56	-292.18
858.743	-79.19
858.926	-124.24
859.109	193.19
859.292	-163.15
859.475	-308.56
859.658	436.9
859.841	236.2
860.023	-300.37
860.206	-206.16
860.389	88.75
860.572	314.02
860.755	-126.29
860.937	-122.2
861.12	17.07
861.303	144.04
861.486	-81.24
861.668	-75.09
861.851	279.21
862.034	123.56
862.216	-48.47
862.399	-318.8
862.581	287.4
862.764	602.79
862.947	-161.11
863.129	-197.97
863.312	-163.15
863.494	576.16
863.677	248.49
863.859	-304.46
864.042	303.78
864.224	520.87
864.406	-71
864.589	-255.31
864.771	154.28
864.954	-165.2
865.136	-228.69
865.318	-230.74
865.501	246.44
865.683	-292.18
865.865	-173.39
866.048	-138.58
866.23	262.82
866.412	170.66
866.594	-283.98
866.777	15.02
866.959	309.93
867.141	-97.62
867.323	117.42
867.505	-68.95
867.687	111.27
867.869	166.57
868.052	-56.66
868.234	-288.08
868.416	174.76
868.598	299.69
868.78	-197.97
868.962	-259.41
869.144	424.61
869.326	318.12
869.508	-167.25
869.69	-294.22
869.872	-52.56
870.054	320.17
870.236	-320.85
870.417	-161.11
870.599	76.46
870.781	471.72
870.963	-44.37
871.145	-263.51
871.327	-116.05
871.508	342.69
871.69	-161.11
871.872	-120.15
872.054	76.46
872.235	293.54
872.417	8.87
872.599	-294.22
872.78	490.15
872.962	162.47
873.144	-263.51
873.325	-144.72
873.507	451.24
873.689	191.14
873.87	-279.89
874.052	-169.3
874.233	82.6
874.415	367.27
874.596	-140.63
874.778	-249.17
874.959	141.99
875.141	283.3
875.322	-144.72
875.503	-163.15
875.685	256.68
875.866	-185.68
876.048	-283.98
876.229	-275.79
876.41	64.17
876.592	228.01
876.773	-152.91
876.954	-331.09
877.136	350.89
877.317	78.51
877.498	-345.42
877.679	-148.82
877.86	160.42
878.042	0.68
878.223	-163.15
878.404	90.79
878.585	250.53
878.766	486.05
878.947	51.88
879.128	51.88
879.309	260.77
879.49	291.49
879.672	-79.19
879.853	-193.87
880.034	-148.82
880.215	0.68
880.396	-140.63
880.576	-189.78
880.757	-175.44
880.938	322.21
881.119	-271.7
881.3	-247.12
881.481	-120.15
881.662	883.36
881.843	-306.51
882.023	-331.09
882.204	141.99
882.385	51.88
882.566	-247.12
882.747	-300.37
882.927	111.27
883.108	225.96
883.289	-171.35
883.469	-42.32
883.65	21.16
883.831	92.84
884.011	47.79
884.192	-187.73
884.373	301.73
884.553	133.8
884.734	-1.37
884.914	88.75
885.095	715.42
885.275	457.38
885.456	68.27
885.636	-279.89
885.817	43.69
885.997	107.18
886.178	-312.66
886.358	-46.42
886.538	58.03
886.719	1063.58
886.899	-228.69
887.08	-214.35
887.26	367.27
887.44	-81.24
887.621	-310.61
887.801	-99.67
887.981	641.7
888.161	209.58
888.342	-101.72
888.522	-130.39
888.702	250.53
888.882	303.78
889.062	-62.8
889.242	-404.82
889.423	438.95
889.603	273.06
889.783	-36.18
889.963	-154.96
890.143	246.44
890.323	326.31
890.503	-140.63
890.683	-148.82
890.863	109.22
891.043	105.13
891.223	-146.77
891.403	-40.28
891.583	-15.7
891.763	146.09
891.943	-222.55
892.122	-302.42
892.302	135.85
892.482	84.65
892.662	-50.52
892.842	-255.31
893.022	170.66
893.201	-58.71
893.381	-42.32
893.561	-163.15
893.741	228.01
893.92	150.18
894.1	-157.01
894.28	-25.94
894.459	228.01
894.639	162.47
894.819	-210.26
894.998	-50.52
895.178	166.57
895.357	187.05
895.537	-195.92
895.716	-304.46
895.896	84.65
896.075	441
896.255	-200.02
896.434	-370
896.614	318.12
896.793	385.7
896.973	-21.84
897.152	-46.42
897.331	185
897.511	330.41
897.69	-329.04
897.87	-109.91
898.049	256.68
898.228	160.42
898.407	60.07
898.587	68.27
898.766	-111.96
898.945	232.1
899.124	98.99
899.304	-52.56
899.483	260.77
899.662	506.53
899.841	-206.16
900.02	-173.39
900.199	264.87
900.378	203.43
900.557	-189.78
900.737	-267.6
900.916	170.66
901.095	268.97
901.274	141.99
901.453	-253.27
901.632	-140.63
901.811	-136.53
901.989	-169.3
902.168	-159.06
902.347	211.62
902.526	-34.13
902.705	-146.77
902.884	-30.04
903.063	416.42
903.242	443.04
903.42	-255.31
903.599	-30.04
903.778	330.41
903.957	508.58
904.135	-34.13
904.314	43.69
904.493	203.43
904.672	268.97
904.85	-134.48
905.029	-138.58
905.207	164.52
905.386	766.62
905.565	-253.27
905.743	-138.58
905.922	-46.42
906.1	309.93
906.279	-296.27
906.457	-206.16
906.636	-34.13
906.814	103.08
906.993	-97.62
907.171	-214.35
907.35	293.54
907.528	207.53
907.707	27.31
907.885	-212.31
908.063	527.01
908.242	-87.38
908.42	-120.15
908.598	-245.07
908.777	391.84
908.955	-9.56
909.133	-136.53
909.311	-200.02
909.49	125.61
909.668	66.22
909.846	-60.76
910.024	-347.47
910.202	141.99
910.38	162.47
910.559	-249.17
910.737	-197.97
910.915	152.23
911.093	174.76
911.271	-142.68
911.449	92.84
911.627	314.02
911.805	588.45
911.983	-71
912.161	-73.04
912.339	223.91
912.517	400.04
912.695	-7.51
912.872	-75.09
913.05	-83.28
913.228	187.05
913.406	-99.67
913.584	-206.16
913.762	277.16
913.939	12.97
914.117	-171.35
914.295	-179.54
914.473	266.92
914.65	275.11
914.828	-130.39
915.006	-243.03
915.184	-52.56
915.361	342.69
915.539	-5.46
915.716	92.84
915.894	244.39
916.072	279.21
916.249	115.37
916.427	43.69
916.604	-148.82
916.782	281.25
916.959	-310.61
917.137	-122.2
917.314	291.49
917.492	363.17
917.669	17.07
917.847	-25.94
918.024	217.77
918.201	-66.9
918.379	-30.04
918.556	17.07
918.733	283.3
918.911	137.9
919.088	94.89
919.265	-111.96
919.442	146.09
919.62	162.47
919.797	-249.17
919.974	-181.59
920.151	133.8
920.328	127.66
920.506	-169.3
920.683	72.36
920.86	-11.61
921.037	-60.76
921.214	-5.46
921.391	-148.82
921.568	369.32
921.745	-150.87
921.922	-77.14
922.099	-228.69
922.276	463.52
922.453	152.23
922.63	-140.63
922.807	131.75
922.984	90.79
923.161	4.78
923.338	-114
923.514	-202.07
923.691	125.61
923.868	170.66
924.045	-142.68
924.222	-179.54
924.399	262.82
924.575	365.22
924.752	-42.32
924.929	60.07
925.105	258.73
925.282	-32.08
925.459	-64.85
925.635	-77.14
925.812	150.18
925.989	-32.08
926.165	-1.37
926.342	-195.92
926.518	21.16
926.695	166.57
926.871	-157.01
927.048	-204.11
927.224	365.22
927.401	41.64
927.577	-42.32
927.754	-240.98
927.93	326.31
928.107	373.41
928.283	-177.49
928.459	-75.09
928.636	195.24
928.812	105.13
928.988	-169.3
929.165	-294.22
929.341	64.17
929.517	164.52
929.693	262.82
929.87	-294.22
930.046	211.62
930.222	55.98
930.398	-222.55
930.574	10.92
930.751	125.61
930.927	90.79
931.103	-48.47
931.279	-68.95
931.455	-97.62
931.631	207.53
931.807	-228.69
931.983	-226.64
932.159	-197.97
932.335	189.1
932.511	-91.48
932.687	-73.04
932.863	201.38
933.039	133.8
933.215	-204.11
933.391	-286.03
933.566	70.31
933.742	209.58
933.918	-50.52
934.094	-204.11
934.27	144.04
934.445	178.86
934.621	39.59
934.797	-181.59
934.973	455.33
935.148	197.29
935.324	-173.39
935.5	-271.7
935.675	410.28
935.851	197.29
936.027	-138.58
936.202	-77.14
936.378	176.81
936.553	94.89
936.729	357.03
936.904	-126.29
937.08	-97.62
937.255	-66.9
937.431	-30.04
937.606	-157.01
937.782	15.02
937.957	123.56
938.133	4.78
938.308	-185.68
938.483	47.79
938.659	-30.04
938.834	53.93
939.009	-146.77
939.185	137.9
939.36	-85.33
939.535	-331.09
939.71	6.83
939.886	404.13
940.061	174.76
940.236	82.6
940.411	-38.23
940.586	285.35
940.761	320.17
940.937	-17.75
941.112	-234.83
941.287	170.66
941.462	264.87
941.637	-200.02
941.812	-34.13
941.987	207.53
942.162	137.9
942.337	0.68
942.512	-95.57
942.687	287.4
942.862	260.77
943.037	-212.31
943.212	-374.1
943.386	111.27
943.561	156.33
943.736	-15.7
943.911	295.59
944.086	209.58
944.26	246.44
944.435	-64.85
944.61	-40.28
944.785	424.61
944.959	572.07
945.134	-36.18
945.309	-206.16
945.483	-81.24
945.658	318.12
945.833	-359.76
946.007	-218.45
946.182	457.38
946.357	-50.52
946.531	-144.72
946.706	-187.73
946.88	-263.51
947.055	238.25
947.229	-197.97
947.404	-165.2
947.578	400.04
947.752	10.92
947.927	-234.83
948.101	-320.85
948.276	137.9
948.45	72.36
948.624	64.17
948.799	-185.68
948.973	55.98
949.147	-46.42
949.321	-91.48
949.496	-236.88
949.67	252.58
949.844	55.98
950.018	-107.86
950.193	-138.58
950.367	678.56
950.541	2.73
950.715	-15.7
950.889	29.35
951.063	-1.37
951.237	217.77
951.411	-288.08
951.585	-335.18
951.759	119.46
951.933	31.4
952.107	-124.24
952.281	-54.61
952.455	443.04
952.629	252.58
952.803	-220.5
952.977	-232.79
953.151	334.5
953.325	203.43
953.499	76.46
953.672	-204.11
953.846	-226.64
954.02	72.36
954.194	-208.21
954.368	-222.55
954.541	266.92
954.715	-25.94
954.889	-62.8
955.062	-232.79
955.236	-9.56
955.41	-36.18
955.583	31.4
955.757	-349.52
955.93	10.92
956.104	-228.69
956.278	-175.44
956.451	-136.53
956.625	199.34
956.798	461.48
956.972	86.7
957.145	-324.94
957.319	21.16
957.492	-5.46
957.665	-11.61
957.839	-154.96
958.012	205.48
958.185	15.02
958.359	-159.06
958.532	31.4
958.705	221.86
958.879	123.56
959.052	-83.28
959.225	-353.62
959.398	64.17
959.572	166.57
959.745	-171.35
959.918	-150.87
960.091	12.97
960.264	191.14
960.438	-263.51
960.611	-218.45
960.784	242.34
960.957	-71
961.13	185
961.303	-171.35
961.476	115.37
961.649	248.49
961.822	-263.51
961.995	-128.34
962.168	228.01
962.341	55.98
962.514	-138.58
962.686	-185.68
962.859	35.5
963.032	213.67
963.205	-167.25
963.378	-255.31
963.551	141.99
963.723	127.66
963.896	-66.9
964.069	47.79
964.242	76.46
964.414	330.41
964.587	-93.52
964.76	49.83
964.932	121.51
965.105	17.07
965.278	-142.68
965.45	-150.87
965.623	98.99
965.795	232.1
965.968	-144.72
966.14	-136.53
966.313	-15.7
966.485	60.07
966.658	-169.3
966.83	-210.26
967.003	277.16
967.175	244.39
967.348	-163.15
967.52	-253.27
967.692	408.23
967.865	148.14
968.037	-175.44
968.209	156.33
968.382	88.75
968.554	195.24
968.726	-101.72
968.898	-97.62
969.071	176.81
969.243	158.38
969.415	-103.76
969.587	-83.28
969.759	522.91
969.932	314.02
970.104	-62.8
970.276	-398.67
970.448	15.02
970.62	-44.37
970.792	-46.42
970.964	-144.72
971.136	543.39
971.308	326.31
971.48	-253.27
971.652	-101.72
971.824	418.47
971.996	17.07
972.168	-144.72
972.339	-25.94
972.511	242.34
972.683	25.26
972.855	45.74
973.027	-79.19
973.199	68.27
973.37	189.1
973.542	47.79
973.714	41.64
973.886	23.21
974.057	326.31
974.229	-271.7
974.401	-197.97
974.572	-81.24
974.744	-357.71
974.915	-259.41
975.087	-173.39
975.259	443.04
975.43	-87.38
975.602	-152.91
975.773	-249.17
975.945	-7.51
976.116	264.87
976.288	-302.42
976.459	39.59
976.63	-42.32
976.802	205.48
976.973	-93.52
977.145	-38.23
977.316	617.12
977.487	428.71
977.659	29.35
977.83	-224.59
978.001	461.48
978.172	84.65
978.344	-202.07
978.515	-157.01
978.686	-5.46
978.857	418.47
979.028	-107.86
979.2	-204.11
979.371	449.19
979.542	62.12
979.713	-19.8
979.884	-437.58
980.055	-60.76
980.226	78.51
980.397	-165.2
980.568	-265.55
980.739	297.64
980.91	101.03
981.081	-17.75
981.252	-206.16
981.423	217.77
981.594	281.25
981.765	-316.75
981.936	-11.61
982.106	80.55
982.277	305.83
982.448	-191.83
982.619	23.21
982.79	76.46
982.96	342.69
983.131	-87.38
983.302	-335.18
983.472	-66.9
983.643	185
983.814	-36.18
983.984	-130.39
984.155	17.07
984.326	291.49
984.496	-83.28
984.667	-220.5
984.837	-58.71
985.008	320.17
985.178	39.59
985.349	-107.86
985.519	92.84
985.69	15.02
985.86	-157.01
986.031	-185.68
986.201	148.14
986.371	230.06
986.542	-167.25
986.712	-361.81
986.882	187.05
987.053	127.66
987.223	-238.93
987.393	-30.04
987.563	-105.81
987.734	244.39
987.904	187.05
988.074	-185.68
988.244	127.66
988.414	-17.75
988.585	-222.55
988.755	-32.08
988.925	55.98
989.095	481.96
989.265	-146.77
989.435	-62.8
989.605	287.4
989.775	236.2
989.945	113.32
990.115	-236.88
990.285	70.31
990.455	113.32
990.625	-97.62
990.795	-157.01
990.965	340.65
991.134	-103.76
991.304	-200.02
991.474	-195.92
991.644	174.76
991.814	449.19
991.984	-269.65
992.153	-204.11
992.323	60.07
992.493	68.27
992.662	-378.19
992.832	-23.89
993.002	137.9
993.171	180.9
993.341	-326.99
993.511	2.73
993.68	-99.67
993.85	246.44
994.019	-335.18
994.189	-341.33
994.358	174.76
994.528	-54.61
994.697	-447.82
994.867	-388.43
995.036	293.54
995.206	-48.47
995.375	-234.83
995.544	-19.8
995.714	33.45
995.883	-15.7
996.052	-101.72
996.222	-484.69
996.391	559.78
996.56	125.61
996.73	-298.32
996.899	-431.44
997.068	332.45
997.237	92.84
997.406	-236.88
997.576	-386.38
997.745	123.56
997.914	170.66
998.083	-441.68
998.252	-261.46
998.421	72.36
998.59	-85.33
998.759	-288.08
998.928	-398.67
999.097	371.37
999.266	123.56
999.435	-23.89
999.604	-400.72
999.773	477.86
999.942	27.31
1000.111	-372.05
1000.28	-433.49
1000.448	-220.5
1000.617	-140.63
1000.786	-34.13
1000.955	-308.56
1001.124	23.21
1001.292	772.77
1001.461	-331.09
1001.63	-208.21
1001.798	428.71
1001.967	387.75
1002.136	-392.53
1002.304	-290.13
1002.473	203.43
1002.642	76.46
1002.81	-228.69
1002.979	-388.43
1003.147	182.95
1003.316	623.27
1003.484	-253.27
1003.653	-314.7
1003.821	326.31
1003.99	51.88
1004.158	-218.45
1004.327	-128.34
1004.495	141.99
1004.663	-85.33
1004.832	-136.53
1005	-513.36
1005.168	141.99
1005.337	27.31
1005.505	-392.53
1005.673	-89.43
1005.842	281.25
1006.01	246.44
1006.178	-353.62
1006.346	-216.4
1006.514	166.57
1006.683	373.41
1006.851	-259.41
1007.019	-439.63
1007.187	-85.33
1007.355	-359.76
1007.523	-515.41
1007.691	-443.73
1007.859	-283.98
1008.027	299.69
1008.195	-185.68
1008.363	-374.1
1008.531	264.87
1008.699	-124.24
1008.867	-357.71
1009.035	-290.13
1009.203	391.84
1009.37	-9.56
1009.538	-197.97
1009.706	164.52
1009.874	31.4
1010.042	-21.84
1010.209	-359.76
1010.377	-228.69
1010.545	242.34
1010.713	60.07
1010.88	-398.67
1011.048	-236.88
1011.216	-48.47
1011.383	395.94
1011.551	-296.27
1011.718	-331.09
1011.886	252.58
1012.054	76.46
1012.221	-353.62
1012.389	-279.89
1012.556	4.78
1012.724	465.57
1012.891	-200.02
1013.058	-466.25
1013.226	187.05
1013.393	197.29
1013.561	-496.97
1013.728	-398.67
1013.895	228.01
1014.063	168.62
1014.23	-415.05
1014.397	-343.38
1014.565	236.2
1014.732	-34.13
1014.899	-310.61
1015.066	-458.06
1015.233	41.64
1015.401	174.76
1015.568	-197.97
1015.735	-128.34
1015.902	146.09
1016.069	125.61
1016.236	-269.65
1016.403	-382.29
1016.57	-204.11
1016.737	248.49
1016.904	-224.59
1017.071	-372.05
1017.238	-91.48
1017.405	250.53
1017.572	-296.27
1017.739	-114
1017.906	281.25
1018.073	244.39
1018.24	-378.19
1018.407	-210.26
1018.573	273.06
1018.74	25.26
1018.907	-206.16
1019.074	-374.1
1019.241	260.77
1019.407	148.14
1019.574	-320.85
1019.741	-370
1019.907	137.9
1020.074	111.27
1020.241	-578.89
1020.407	-294.22
1020.574	129.7
1020.74	281.25
1020.907	-343.38
1021.073	-312.66
1021.24	570.02
1021.406	428.71
1021.573	-392.53
1021.739	-302.42
1021.906	289.45
1022.072	113.32
1022.239	-316.75
1022.405	-261.46
1022.571	33.45
1022.738	-89.43
1022.904	-316.75
1023.07	-245.07
1023.237	88.75
1023.403	305.83
1023.569	-251.22
1023.735	-212.31
1023.902	154.28
1024.068	150.18
1024.234	-361.81
1024.4	-312.66
1024.566	121.51
1024.732	240.3
1024.898	-206.16
1025.065	-517.45
1025.231	260.77
1025.397	-3.41
1025.563	-269.65
1025.729	-329.04
1025.895	-322.9
1026.061	-124.24
1026.227	-415.05
1026.392	-228.69
1026.558	328.36
1026.724	260.77
1026.89	-345.42
1027.056	-202.07
1027.222	113.32
1027.388	-42.32
1027.553	-339.28
1027.719	-308.56
1027.885	606.88
1028.051	195.24
1028.216	-388.43
1028.382	-249.17
1028.548	273.06
1028.713	-46.42
1028.879	-382.29
1029.045	-124.24
1029.21	387.75
1029.376	342.69
1029.541	-157.01
1029.707	-247.12
1029.873	211.62
1030.038	228.01
1030.204	-253.27
1030.369	-290.13
1030.534	375.46
1030.7	-11.61
1030.865	-247.12
1031.031	-392.53
1031.196	215.72
1031.361	105.13
1031.527	-251.22
1031.692	-314.7
1031.857	-308.56
1032.023	201.38
1032.188	-345.42
1032.353	-259.41
1032.518	481.96
1032.684	129.7
1032.849	-404.82
1033.014	-249.17
1033.179	287.4
1033.344	225.96
1033.509	-165.2
1033.674	-290.13
1033.839	291.49
1034.004	170.66
1034.17	-261.46
1034.335	-367.95
1034.5	-48.47
1034.664	-87.38
1034.829	-275.79
1034.994	-212.31
1035.159	90.79
1035.324	199.34
1035.489	-288.08
1035.654	-359.76
1035.819	408.23
1035.984	213.67
1036.148	-294.22
1036.313	-200.02
1036.478	305.83
1036.643	72.36
1036.807	-273.75
1036.972	-357.71
1037.137	441
1037.301	117.42
1037.466	-349.52
1037.631	-181.59
1037.795	373.41
1037.96	203.43
1038.124	-42.32
1038.289	-382.29
1038.454	289.45
1038.618	234.15
1038.783	-271.7
1038.947	-191.83
1039.111	160.42
1039.276	2.73
1039.44	-238.93
1039.605	178.86
1039.769	31.4
1039.933	88.75
1040.098	-189.78
1040.262	-17.75
1040.426	363.17
1040.591	197.29
1040.755	-277.84
1040.919	-245.07
1041.083	195.24
1041.248	60.07
1041.412	-353.62
1041.576	-343.38
1041.74	51.88
1041.904	309.93
1042.068	-333.14
1042.232	-187.73
1042.397	301.73
1042.561	242.34
1042.725	-435.53
1042.889	-48.47
1043.053	268.97
1043.217	273.06
1043.381	-165.2
1043.544	-322.9
1043.708	400.04
1043.872	-54.61
1044.036	-349.52
1044.2	-417.1
1044.364	404.13
1044.528	461.48
1044.691	4512.36
1044.855	-353.62
1045.019	285.35
1045.183	178.86
1045.346	-157.01
1045.51	-273.75
1045.674	244.39
1045.837	352.93
1046.001	-222.55
1046.165	-263.51
1046.328	701.09
1046.492	297.64
1046.655	-36.18
1046.819	-99.67
1046.983	39.59
1047.146	264.87
1047.31	-122.2
1047.473	-398.67
1047.636	111.27
1047.8	-52.56
1047.963	-124.24
1048.127	-335.18
1048.29	-9.56
