Data from Ink_Intensity_USB4F045381__150__00150.txt Node

Date: Mon Jul 17 11:28:48 EDT 2023
User: mmckonesweet
Spectrometer: USB4F04538
Trigger mode: 4
Integration Time (sec): 9.000000E-1
Scans to average: 1
Electric dark correction enabled: true
Nonlinearity correction enabled: false
Boxcar width: 0
XAxis mode: Wavelengths
Number of Pixels in Spectrum: 3648
>>>>>Begin Spectral Data<<<<<
345.52	-948.04
345.736	-948.04
345.952	-948.04
346.168	-1040.2
346.384	-1013.57
346.6	-114.52
346.816	-237.39
347.032	-159.57
347.248	211.11
347.464	-227.15
347.68	-161.62
347.896	155.82
348.112	391.33
348.328	-83.8
348.544	-126.8
348.76	47.27
348.975	305.32
349.191	-274.26
349.407	-214.87
349.623	53.42
349.839	-34.64
350.055	-151.38
350.27	14.51
350.486	223.4
350.702	272.55
350.918	231.59
351.133	-143.19
351.349	149.67
351.565	399.52
351.781	-204.63
351.996	-122.71
352.212	270.5
352.428	-200.53
352.644	-259.92
352.859	-229.2
353.075	241.83
353.291	145.58
353.506	-98.13
353.722	-284.5
353.938	-145.24
354.153	436.39
354.369	141.48
354.584	-210.77
354.8	231.59
355.016	-337.74
355.231	-264.02
355.447	-46.93
355.662	106.67
355.878	780.45
356.093	-395.09
356.309	63.66
356.524	-221.01
356.74	231.59
356.955	-200.53
357.171	-96.08
357.386	223.4
357.602	-296.78
357.817	-128.85
358.033	-186.19
358.248	385.19
358.464	18.6
358.679	-180.05
358.895	-407.38
359.11	-10.07
359.325	346.28
359.541	51.37
359.756	-30.55
359.972	-229.2
360.187	145.58
360.402	-180.05
360.618	-169.81
360.833	1034.39
361.048	137.38
361.264	-139.09
361.479	-26.45
361.694	16.55
361.909	227.5
362.125	-280.4
362.34	-153.43
362.555	272.55
362.77	202.92
362.986	-270.16
363.201	-210.77
363.416	149.67
363.631	34.99
363.847	-171.86
364.062	-118.61
364.277	164.01
364.492	94.38
364.707	-145.24
364.922	-347.98
365.138	245.93
365.353	333.99
365.568	-288.59
365.783	-104.28
365.998	80.04
366.213	553.12
366.428	-169.81
366.643	10.41
366.858	243.88
367.073	157.86
367.288	-124.76
367.503	-261.97
367.718	6.31
367.933	350.37
368.148	-282.45
368.363	-108.37
368.578	-89.94
368.793	479.4
369.008	-180.05
369.223	-253.78
369.438	198.82
369.653	374.95
369.868	-302.93
370.083	-261.97
370.298	112.81
370.513	333.99
370.728	53.42
370.943	-255.83
371.157	-141.14
371.372	512.16
371.587	-329.55
371.802	-292.69
372.017	59.56
372.232	471.2
372.446	-67.41
372.661	-317.26
372.876	151.72
373.091	131.24
373.306	-85.84
373.52	-216.91
373.735	-143.19
373.95	436.39
374.165	-145.24
374.379	-157.52
374.594	-106.32
374.809	67.75
375.023	104.62
375.238	-239.44
375.453	213.16
375.667	-286.54
375.882	-214.87
376.097	-210.77
376.311	-28.5
376.526	-63.32
376.741	-280.4
376.955	80.04
377.17	630.95
377.384	575.65
377.599	-128.85
377.813	-268.11
378.028	571.55
378.242	174.25
378.457	-145.24
378.672	-384.85
378.886	114.86
379.101	-69.46
379.315	-333.65
379.53	-165.71
379.744	225.45
379.958	190.63
380.173	-153.43
380.387	-204.63
380.602	235.69
380.816	-157.52
381.031	-241.49
381.245	-167.76
381.459	145.58
381.674	848.03
381.888	-259.92
382.103	2.22
382.317	-175.95
382.531	379.04
382.746	-75.6
382.96	-173.91
383.174	-135
383.388	383.14
383.603	41.13
383.817	-261.97
384.031	116.9
384.246	503.97
384.46	-34.64
384.674	323.75
384.888	39.08
385.103	63.66
385.317	-354.13
385.531	-57.17
385.745	366.76
385.959	278.69
386.174	-223.06
386.388	-325.46
386.602	-18.26
386.816	-106.32
387.03	-153.43
387.244	-71.51
387.458	67.75
387.672	383.14
387.887	-343.89
388.101	-321.36
388.315	305.32
388.529	153.77
388.743	-276.31
388.957	-325.46
389.171	346.28
389.385	-151.38
389.599	-192.34
389.813	80.04
390.027	166.06
390.241	643.23
390.455	-116.56
390.669	-227.15
390.883	-141.14
391.097	348.33
391.311	53.42
391.525	-210.77
391.738	161.96
391.952	80.04
392.166	-38.74
392.38	-237.39
392.594	217.26
392.808	331.94
393.022	-91.99
393.236	-83.8
393.449	194.73
393.663	239.78
393.877	-270.16
394.091	-91.99
394.305	-161.62
394.518	-120.66
394.732	-304.98
394.946	-132.95
395.16	424.1
395.373	24.75
395.587	-247.63
395.801	-259.92
396.015	231.59
396.228	186.54
396.442	-286.54
396.656	-442.19
396.869	405.67
397.083	442.53
397.297	-83.8
397.51	-214.87
397.724	329.89
397.938	137.38
398.151	-350.03
398.365	-358.22
398.578	172.2
398.792	317.61
399.005	-108.37
399.219	-196.43
399.433	125.1
399.646	227.5
399.86	67.75
400.073	-44.88
400.287	250.02
400.5	41.13
400.714	39.08
400.927	-108.37
401.141	147.62
401.354	1058.97
401.567	139.43
401.781	-268.11
401.994	256.17
402.208	549.03
402.421	-26.45
402.635	-83.8
402.848	10.41
403.061	305.32
403.275	-114.52
403.488	-223.06
403.701	585.89
403.915	233.64
404.128	-55.12
404.341	-221.01
404.555	159.91
404.768	6.31
404.981	-34.64
405.195	-124.76
405.408	483.49
405.621	250.02
405.834	34.99
406.048	-243.54
406.261	411.81
406.474	506.02
406.687	-233.3
406.9	-5.97
407.114	20.65
407.327	202.92
407.54	-329.55
407.753	-329.55
407.966	-135
408.179	180.39
408.392	-235.35
408.605	-378.7
408.819	137.38
409.032	198.82
409.245	-231.25
409.458	30.89
409.671	98.47
409.884	258.21
410.097	-302.93
410.31	-24.4
410.523	129.19
410.736	-77.65
410.949	-128.85
411.162	-243.54
411.375	432.29
411.588	213.16
411.801	24.75
412.014	-190.29
412.227	-3.93
412.44	-100.18
412.653	-167.76
412.865	-55.12
413.078	305.32
413.291	188.58
413.504	-151.38
413.717	-251.73
413.93	176.3
414.143	-143.19
414.356	-132.95
414.568	-325.46
414.781	219.3
414.994	139.43
415.207	-87.89
415.42	-112.47
415.632	215.21
415.845	518.31
416.058	-347.98
416.271	-307.02
416.483	106.67
416.696	473.25
416.909	-237.39
417.121	-282.45
417.334	174.25
417.547	503.97
417.759	-173.91
417.972	-200.53
418.185	-89.94
418.397	325.8
418.61	-317.26
418.823	-169.81
419.035	372.9
419.248	0.17
419.46	-79.7
419.673	-149.33
419.885	174.25
420.098	-16.21
420.311	-268.11
420.523	-366.42
420.736	174.25
420.948	-30.55
421.161	-208.72
421.373	-311.12
421.586	84.14
421.798	-112.47
422.01	-386.9
422.223	-79.7
422.435	-100.18
422.648	225.45
422.86	-216.91
423.073	-188.24
423.285	276.65
423.497	-231.25
423.71	-239.44
423.922	-239.44
424.134	168.1
424.347	395.43
424.559	-26.45
424.771	-30.55
424.984	-98.13
425.196	73.9
425.408	-313.17
425.621	-341.84
425.833	280.74
426.045	434.34
426.257	-329.55
426.47	-178
426.682	96.43
426.894	104.62
427.106	-235.35
427.318	-132.95
427.531	-89.94
427.743	260.26
427.955	-165.71
428.167	284.84
428.379	139.43
428.591	-22.36
428.804	-108.37
429.016	-264.02
429.228	-38.74
429.44	223.4
429.652	14.51
429.864	-300.88
430.076	8.36
430.288	-135
430.5	-173.91
430.712	-116.56
430.924	284.84
431.136	157.86
431.348	-343.89
431.56	-231.25
431.772	10.41
431.984	-89.94
432.196	-290.64
432.408	-200.53
432.62	-40.79
432.832	110.76
433.044	-67.41
433.256	-67.41
433.468	180.39
433.679	-212.82
433.891	-245.59
434.103	16.55
434.315	340.13
434.527	245.93
434.739	-122.71
434.95	-212.82
435.162	225.45
435.374	-89.94
435.586	-149.33
435.798	-223.06
436.009	-186.19
436.221	-69.46
436.433	-198.48
436.645	-218.96
436.856	-79.7
437.068	260.26
437.28	-255.83
437.491	108.71
437.703	157.86
437.915	90.28
438.126	-73.56
438.338	-32.6
438.55	-12.12
438.761	147.62
438.973	-153.43
439.184	-194.39
439.396	114.86
439.608	260.26
439.819	-317.26
440.031	-98.13
440.242	207.02
440.454	176.3
440.665	-198.48
440.877	-63.32
441.088	131.24
441.3	-79.7
441.511	-378.7
441.723	-192.34
441.934	196.78
442.146	22.7
442.357	-5.97
442.569	65.71
442.78	104.62
442.991	460.96
443.203	88.23
443.414	-276.31
443.626	350.37
443.837	-89.94
444.048	-276.31
444.26	-323.41
444.471	6.31
444.682	207.02
444.894	-329.55
445.105	-434
445.316	301.22
445.528	121
445.739	-67.41
445.95	-132.95
446.161	55.47
446.373	286.89
446.584	-171.86
446.795	-233.3
447.006	194.73
447.217	465.06
447.429	-372.56
447.64	-329.55
447.851	383.14
448.062	28.84
448.273	-419.66
448.484	-298.83
448.695	161.96
448.907	26.79
449.118	-114.52
449.329	26.79
449.54	-112.47
449.751	-229.2
449.962	-210.77
450.173	-239.44
450.384	309.41
450.595	325.8
450.806	-237.39
451.017	-171.86
451.228	401.57
451.439	241.83
451.65	-132.95
451.861	-399.18
452.072	-272.21
452.283	30.89
452.494	-22.36
452.705	-276.31
452.915	387.24
453.126	112.81
453.337	-237.39
453.548	-257.87
453.759	227.5
453.97	491.68
454.181	96.43
454.391	-100.18
454.602	43.18
454.813	235.69
455.024	-120.66
455.235	-255.83
455.445	145.58
455.656	114.86
455.867	-20.31
456.078	-272.21
456.288	-32.6
456.499	63.66
456.71	-280.4
456.921	-1.88
457.131	41.13
457.342	131.24
457.553	-110.42
457.763	-132.95
457.974	106.67
458.184	239.78
458.395	-294.74
458.606	-333.65
458.816	295.08
459.027	442.53
459.237	-87.89
459.448	-329.55
459.659	352.42
459.869	739.49
460.08	-395.09
460.29	-112.47
460.501	483.49
460.711	-63.32
460.922	-401.23
461.132	-223.06
461.343	692.38
461.553	-175.95
461.764	-204.63
461.974	-231.25
462.184	284.84
462.395	104.62
462.605	-153.43
462.816	-329.55
463.026	26.79
463.236	299.17
463.447	-300.88
463.657	-327.5
463.867	219.3
464.078	-73.56
464.288	-206.67
464.498	-184.15
464.709	-3.93
464.919	-1.88
465.129	-151.38
465.339	-255.83
465.55	129.19
465.76	211.11
465.97	-212.82
466.18	-249.68
466.391	266.41
466.601	121
466.811	-147.28
467.021	-372.56
467.231	112.81
467.441	344.23
467.651	-175.95
467.862	-493.39
468.072	12.46
468.282	278.69
468.492	-229.2
468.702	-155.47
468.912	82.09
469.122	630.95
469.332	45.23
469.542	-378.7
469.752	204.97
469.962	41.13
470.172	-315.22
470.382	-378.7
470.592	231.59
470.802	278.69
471.012	-227.15
471.222	-284.5
471.432	319.65
471.642	202.92
471.852	-106.32
472.062	-350.03
472.272	-104.28
472.482	-171.86
472.691	-294.74
472.901	-343.89
473.111	110.76
473.321	528.55
473.531	-354.13
473.741	-63.32
473.95	161.96
474.16	178.34
474.37	-151.38
474.58	-364.37
474.79	446.63
474.999	155.82
475.209	-343.89
475.419	-212.82
475.628	16.55
475.838	338.09
476.048	-100.18
476.258	-304.98
476.467	317.61
476.677	-106.32
476.886	-71.51
477.096	-173.91
477.306	-147.28
477.515	321.7
477.725	-178
477.935	-165.71
478.144	342.18
478.354	-34.64
478.563	-227.15
478.773	-276.31
478.982	198.82
479.192	258.21
479.401	-128.85
479.611	-372.56
479.82	-186.19
480.03	55.47
480.239	-259.92
480.449	-395.09
480.658	362.66
480.868	-171.86
481.077	-194.39
481.287	-251.73
481.496	100.52
481.705	395.43
481.915	6.31
482.124	26.79
482.333	166.06
482.543	405.67
482.752	-165.71
482.961	-329.55
483.171	215.21
483.38	22.7
483.589	-143.19
483.799	-298.83
484.008	-22.36
484.217	221.35
484.426	-159.57
484.636	-321.36
484.845	63.66
485.054	-241.49
485.263	12.46
485.472	-235.35
485.682	436.39
485.891	16.55
486.1	-386.9
486.309	-214.87
486.518	110.76
486.727	479.4
486.936	-261.97
487.146	-114.52
487.355	458.92
487.564	-186.19
487.773	-261.97
487.982	-235.35
488.191	-122.71
488.4	157.86
488.609	-243.54
488.818	-235.35
489.027	606.37
489.236	440.48
489.445	-235.35
489.654	-280.4
489.863	239.78
490.072	90.28
490.281	90.28
490.49	-227.15
490.698	426.15
490.907	377
491.116	-147.28
491.325	-319.31
491.534	338.09
491.743	65.71
491.952	-159.57
492.16	-188.24
492.369	61.61
492.578	245.93
492.787	-120.66
492.996	-393.04
493.204	-94.04
493.413	518.31
493.622	-505.68
493.831	-419.66
494.039	405.67
494.248	-231.25
494.457	-376.66
494.665	-464.72
494.874	168.1
495.083	469.16
495.291	-221.01
495.5	-325.46
495.709	247.97
495.917	59.56
496.126	-182.1
496.335	-255.83
496.543	-42.84
496.752	217.26
496.96	-14.17
497.169	-352.08
497.377	10.41
497.586	309.41
497.794	-79.7
498.003	-446.29
498.211	-40.79
498.42	450.72
498.628	-190.29
498.837	-249.68
499.045	153.77
499.254	139.43
499.462	-272.21
499.671	-261.97
499.879	301.22
500.087	338.09
500.296	-325.46
500.504	-278.35
500.713	129.19
500.921	567.46
501.129	-272.21
501.338	-268.11
501.546	121
501.754	116.9
501.962	-159.57
502.171	-302.93
502.379	174.25
502.587	458.92
502.795	-241.49
503.004	-194.39
503.212	59.56
503.42	260.26
503.628	-229.2
503.837	-87.89
504.045	223.4
504.253	428.2
504.461	-221.01
504.669	-417.61
504.877	252.07
505.085	430.24
505.294	-347.98
505.502	-51.03
505.71	47.27
505.918	200.87
506.126	-261.97
506.334	-251.73
506.542	32.94
506.75	86.19
506.958	-149.33
507.166	-239.44
507.374	-83.8
507.582	538.79
507.79	-61.27
507.998	-210.77
508.206	256.17
508.414	143.53
508.622	-304.98
508.83	-182.1
509.037	428.2
509.245	49.32
509.453	-313.17
509.661	-350.03
509.869	153.77
510.077	-5.97
510.285	-128.85
510.492	-538.45
510.7	716.96
510.908	-169.81
511.116	-227.15
511.324	-290.64
511.531	-5.97
511.739	71.85
511.947	-59.22
512.155	-5.97
512.362	77.99
512.57	-196.43
512.778	-327.5
512.985	-458.57
513.193	311.46
513.401	321.7
513.608	-190.29
513.816	-173.91
514.024	145.58
514.231	313.51
514.439	-274.26
514.646	-270.16
514.854	186.54
515.061	260.26
515.269	-200.53
515.477	-165.71
515.684	-137.04
515.892	336.04
516.099	-329.55
516.307	-380.75
516.514	192.68
516.722	442.53
516.929	-284.5
517.136	-300.88
517.344	393.38
517.551	108.71
517.759	-282.45
517.966	-147.28
518.173	-91.99
518.381	0.17
518.588	-149.33
518.796	-413.52
519.003	268.45
519.21	30.89
519.418	-210.77
519.625	108.71
519.832	86.19
520.039	141.48
520.247	-419.66
520.454	-221.01
520.661	258.21
520.868	149.67
521.076	-270.16
521.283	-202.58
521.49	714.91
521.697	114.86
521.904	-175.95
522.112	-186.19
522.319	319.65
522.526	307.37
522.733	-311.12
522.94	-304.98
523.147	63.66
523.354	282.79
523.561	-397.14
523.768	-151.38
523.975	293.03
524.183	55.47
524.39	-227.15
524.597	-390.99
524.804	22.7
525.011	-75.6
525.218	-268.11
525.425	-243.54
525.632	426.15
525.838	-149.33
526.045	-180.05
526.252	-321.36
526.459	1165.46
526.666	911.52
526.873	-309.07
527.08	-296.78
527.287	436.39
527.494	198.82
527.701	-362.32
527.907	-333.65
528.114	209.06
528.321	-20.31
528.528	-145.24
528.735	-300.88
528.941	-137.04
529.148	-57.17
529.355	-132.95
529.562	-180.05
529.768	579.75
529.975	-32.6
530.182	-67.41
530.388	-268.11
530.595	327.85
530.802	-182.1
531.008	-106.32
531.215	-124.76
531.422	487.59
531.628	764.06
531.835	-141.14
532.042	-151.38
532.248	-44.88
532.455	166.06
532.661	-210.77
532.868	-282.45
533.074	116.9
533.281	385.19
533.487	-153.43
533.694	-323.41
533.9	-171.86
534.107	207.02
534.313	-255.83
534.52	-388.94
534.726	333.99
534.933	491.68
535.139	-313.17
535.345	-390.99
535.552	168.1
535.758	135.34
535.965	-214.87
536.171	-251.73
536.377	180.39
536.584	411.81
536.79	-231.25
536.996	-237.39
537.203	141.48
537.409	161.96
537.615	-173.91
537.821	-108.37
538.028	219.3
538.234	286.89
538.44	-122.71
538.646	-141.14
538.853	198.82
539.059	-42.84
539.265	159.91
539.471	-345.94
539.677	231.59
539.883	-20.31
540.09	-198.48
540.296	143.53
540.502	55.47
540.708	-149.33
540.914	-30.55
541.12	-178
541.326	215.21
541.532	-59.22
541.738	-46.93
541.944	-104.28
542.15	348.33
542.356	80.04
542.562	-233.3
542.768	-98.13
542.974	665.76
543.18	553.12
543.386	-259.92
543.592	-356.18
543.798	510.11
544.004	346.28
544.21	-290.64
544.415	-83.8
544.621	186.54
544.827	315.56
545.033	-294.74
545.239	55.47
545.445	-202.58
545.651	153.77
545.856	-188.24
546.062	-341.84
546.268	-32.6
546.474	108.71
546.679	-210.77
546.885	-163.67
547.091	55.47
547.297	647.33
547.502	-71.51
547.708	-399.18
547.914	-12.12
548.119	270.5
548.325	-335.7
548.531	-235.35
548.736	549.03
548.942	6.31
549.147	-307.02
549.353	-40.79
549.559	325.8
549.764	297.13
549.97	-221.01
550.175	-153.43
550.381	245.93
550.586	12.46
550.792	-155.47
550.997	-153.43
551.203	260.26
551.408	260.26
551.614	-341.84
551.819	-257.87
552.025	614.56
552.23	557.22
552.435	-284.5
552.641	-26.45
552.846	-57.17
553.052	452.77
553.257	-8.02
553.462	-102.23
553.668	-61.27
553.873	338.09
554.078	-223.06
554.283	-253.78
554.489	184.49
554.694	71.85
554.899	-321.36
555.105	12.46
555.31	235.69
555.515	311.46
555.72	-128.85
555.925	-259.92
556.131	333.99
556.336	30.89
556.541	-188.24
556.746	-335.7
556.951	407.72
557.156	477.35
557.361	-18.26
557.567	-10.07
557.772	618.66
557.977	276.65
558.182	-130.9
558.387	-135
558.592	-89.94
558.797	383.14
559.002	-96.08
559.207	-65.36
559.412	108.71
559.617	561.31
559.822	-182.1
560.027	-268.11
560.232	180.39
560.437	278.69
560.642	-366.42
560.847	-190.29
561.051	110.76
561.256	245.93
561.461	-18.26
561.666	-216.91
561.871	149.67
562.076	393.38
562.281	-178
562.485	-251.73
562.69	333.99
562.895	321.7
563.1	-79.7
563.305	-296.78
563.509	387.24
563.714	686.24
563.919	-288.59
564.123	-239.44
564.328	125.1
564.533	506.02
564.737	-139.09
564.942	-116.56
565.147	501.92
565.351	686.24
565.556	-130.9
565.761	-24.4
565.965	157.86
566.17	-20.31
566.374	-194.39
566.579	-247.63
566.784	147.62
566.988	75.95
567.193	-253.78
567.397	-87.89
567.602	-137.04
567.806	256.17
568.011	-104.28
568.215	-67.41
568.42	100.52
568.624	174.25
568.828	-116.56
569.033	43.18
569.237	391.33
569.442	331.94
569.646	-257.87
569.85	-79.7
570.055	129.19
570.259	235.69
570.463	125.1
570.668	-116.56
570.872	188.58
571.076	129.19
571.281	-40.79
571.485	-77.65
571.689	256.17
571.893	293.03
572.098	12.46
572.302	-157.52
572.506	336.04
572.71	278.69
572.914	-40.79
573.119	-139.09
573.323	489.64
573.527	471.2
573.731	-75.6
573.935	-143.19
574.139	202.92
574.343	30.89
574.547	-141.14
574.751	-89.94
574.955	526.5
575.159	471.2
575.364	-112.47
575.568	-173.91
575.772	170.15
575.976	465.06
576.18	-96.08
576.383	-178
576.587	430.24
576.791	358.57
576.995	-280.4
577.199	-331.6
577.403	415.91
577.607	469.16
577.811	-190.29
578.015	-40.79
578.219	241.83
578.422	342.18
578.626	-44.88
578.83	161.96
579.034	454.82
579.238	166.06
579.442	-122.71
579.645	331.94
579.849	155.82
580.053	245.93
580.257	-85.84
580.46	18.6
580.664	477.35
580.868	327.85
581.071	2.22
581.275	-32.6
581.479	-102.23
581.682	317.61
581.886	-96.08
582.09	-34.64
582.293	379.04
582.497	448.68
582.7	174.25
582.904	-91.99
583.107	215.21
583.311	161.96
583.515	-12.12
583.718	-8.02
583.922	290.98
584.125	655.52
584.329	-67.41
584.532	178.34
584.735	563.36
584.939	272.55
585.142	-141.14
585.346	-94.04
585.549	315.56
585.753	41.13
585.956	-96.08
586.159	108.71
586.363	600.23
586.566	303.27
586.769	-91.99
586.973	-198.48
587.176	413.86
587.379	399.52
587.582	293.03
587.786	118.95
587.989	215.21
588.192	891.04
588.395	34.99
588.599	264.36
588.802	379.04
589.005	374.95
589.208	2.22
589.411	-38.74
589.615	557.22
589.818	655.52
590.021	153.77
590.224	178.34
590.427	469.16
590.63	391.33
590.833	-178
591.036	-94.04
591.239	161.96
591.442	178.34
591.645	239.78
591.848	-32.6
592.051	311.46
592.254	454.82
592.457	71.85
592.66	116.9
592.863	151.72
593.066	411.81
593.269	-24.4
593.472	172.2
593.675	155.82
593.878	546.98
594.081	161.96
594.284	-63.32
594.486	395.43
594.689	299.17
594.892	96.43
595.095	53.42
595.298	401.57
595.5	207.02
595.703	75.95
595.906	121
596.109	637.09
596.311	493.73
596.514	-188.24
596.717	149.67
596.92	616.61
597.122	413.86
597.325	-235.35
597.528	-57.17
597.73	575.65
597.933	391.33
598.136	45.23
598.338	-288.59
598.541	428.2
598.743	612.51
598.946	39.08
599.148	22.7
599.351	579.75
599.554	600.23
599.756	178.34
599.959	92.33
600.161	612.51
600.363	911.52
600.566	417.96
600.768	57.51
600.971	712.86
601.173	499.88
601.376	96.43
601.578	151.72
601.78	469.16
601.983	891.04
602.185	-5.97
602.388	297.13
602.59	532.64
602.792	264.36
602.995	190.63
603.197	100.52
603.399	602.27
603.601	481.44
603.804	110.76
604.006	14.51
604.208	438.44
604.41	-34.64
604.613	264.36
604.815	12.46
605.017	841.89
605.219	178.34
605.421	385.19
605.623	106.67
605.826	653.47
606.028	762.02
606.23	104.62
606.432	149.67
606.634	841.89
606.836	667.81
607.038	-26.45
607.24	186.54
607.442	420
607.644	483.49
607.846	196.78
608.048	61.61
608.25	714.91
608.452	215.21
608.654	137.38
608.856	-75.6
609.058	342.18
609.26	544.93
609.462	202.92
609.664	75.95
609.866	848.03
610.067	606.37
610.269	278.69
610.471	229.54
610.673	254.12
610.875	524.45
611.077	41.13
611.278	227.5
611.48	446.63
611.682	876.7
611.884	227.5
612.085	219.3
612.287	178.34
612.489	530.59
612.69	20.65
612.892	178.34
613.094	747.68
613.295	514.21
613.497	28.84
613.699	166.06
613.9	659.62
614.102	581.79
614.304	254.12
614.505	53.42
614.707	452.77
614.908	344.23
615.11	37.03
615.311	258.21
615.513	661.66
615.714	637.09
615.916	116.9
616.117	229.54
616.319	413.86
616.52	628.9
616.722	67.75
616.923	188.58
617.124	651.42
617.326	663.71
617.527	272.55
617.729	450.72
617.93	647.33
618.131	708.77
618.333	258.21
618.534	235.69
618.735	266.41
618.937	780.45
619.138	57.51
619.339	59.56
619.54	604.32
619.742	424.1
619.943	358.57
620.144	280.74
620.345	641.18
620.546	659.62
620.748	139.43
620.949	153.77
621.15	508.07
621.351	424.1
621.552	182.44
621.753	55.47
621.954	166.06
622.155	1083.55
622.356	116.9
622.558	436.39
622.759	448.68
622.96	893.09
623.161	268.45
623.362	268.45
623.563	491.68
623.764	626.85
623.965	346.28
624.166	338.09
624.366	448.68
624.567	598.18
624.768	-59.22
624.969	272.55
625.17	530.59
625.371	735.39
625.572	342.18
625.773	219.3
625.973	833.69
626.174	686.24
626.375	327.85
626.576	387.24
626.777	737.44
626.977	1097.88
627.178	243.88
627.379	387.24
627.58	463.01
627.78	516.26
627.981	313.51
628.182	456.87
628.382	800.93
628.583	215.21
628.784	188.58
628.984	440.48
629.185	759.97
629.386	712.86
629.586	333.99
629.787	241.83
629.987	757.92
630.188	536.74
630.388	409.76
630.589	514.21
630.79	1095.83
630.99	571.55
631.191	407.72
631.391	514.21
631.591	764.06
631.792	940.19
631.992	506.02
632.193	389.28
632.393	1052.83
632.594	532.64
632.794	299.17
632.994	344.23
633.195	639.14
633.395	501.92
633.595	309.41
633.796	610.47
633.996	489.64
634.196	903.32
634.397	190.63
634.597	473.25
634.797	389.28
634.997	940.19
635.198	628.9
635.398	200.87
635.598	710.82
635.798	968.86
635.998	860.32
636.199	256.17
636.399	393.38
636.599	397.48
636.799	370.85
636.999	659.62
637.199	786.59
637.399	723.1
637.599	387.24
637.799	514.21
637.999	573.6
638.199	1091.74
638.399	383.14
638.599	432.29
638.799	739.49
638.999	1149.08
639.199	420
639.399	424.1
639.599	1048.73
639.799	499.88
639.999	403.62
640.199	350.37
640.399	671.9
640.599	729.25
640.799	524.45
640.998	645.28
641.198	907.42
641.398	782.49
641.598	479.4
641.798	481.44
641.997	1648.79
642.197	684.19
642.397	594.08
642.597	479.4
642.796	755.87
642.996	956.57
643.196	551.07
643.395	366.76
643.595	784.54
643.795	282.79
643.994	506.02
644.194	495.78
644.394	888.99
644.593	784.54
644.793	276.65
644.992	649.38
645.192	860.32
645.392	319.65
645.591	579.75
645.791	610.47
645.99	876.7
646.19	735.39
646.389	528.55
646.589	551.07
646.788	845.98
646.987	884.89
647.187	669.86
647.386	610.47
647.586	731.3
647.785	983.2
647.984	497.83
648.184	534.69
648.383	598.18
648.582	669.86
648.782	477.35
648.981	612.51
649.18	571.55
649.38	739.49
649.579	516.26
649.778	467.11
649.977	913.56
650.177	845.98
650.376	444.58
650.575	395.43
650.774	1128.6
650.973	678.05
651.173	379.04
651.372	657.57
651.571	868.51
651.77	1011.87
651.969	612.51
652.168	706.72
652.367	481.44
652.566	995.48
652.765	516.26
652.964	774.3
653.163	1335.45
653.362	716.96
653.561	553.12
653.76	606.37
653.959	665.76
654.158	977.05
654.357	825.5
654.556	610.47
654.755	964.76
654.954	1163.42
655.153	622.75
655.352	606.37
655.551	1112.22
655.749	673.95
655.948	733.34
656.147	678.05
656.346	917.66
656.545	882.85
656.743	827.55
656.942	645.28
657.141	850.08
657.34	659.62
657.538	571.55
657.737	694.43
657.936	866.46
658.135	1022.11
658.333	575.65
658.532	776.35
658.731	1267.86
658.929	1087.64
659.128	909.47
659.326	671.9
659.525	1202.33
659.724	815.26
659.922	450.72
660.121	467.11
660.319	886.94
660.518	702.62
660.716	620.71
660.915	557.22
661.113	1314.97
661.312	546.98
661.51	790.69
661.709	628.9
661.907	1130.65
662.105	1325.21
662.304	610.47
662.502	762.02
662.701	1263.77
662.899	858.27
663.097	956.57
663.296	604.32
663.494	1153.18
663.692	1304.73
663.891	667.81
664.089	604.32
664.287	1063.07
664.485	1206.42
664.684	616.61
664.882	786.59
665.08	911.52
665.278	1038.49
665.476	561.31
665.675	1069.21
665.873	1472.66
666.071	1204.38
666.269	755.87
666.467	893.09
666.665	981.15
666.863	821.41
667.061	776.35
667.259	723.1
667.457	921.76
667.655	1106.07
667.853	571.55
668.051	827.55
668.249	778.4
668.447	1054.87
668.645	628.9
668.843	993.44
669.041	1122.46
669.239	876.7
669.437	891.04
669.635	882.85
669.833	950.43
670.031	1187.99
670.229	940.19
670.426	862.37
670.624	893.09
670.822	772.25
671.02	747.68
671.218	784.54
671.415	745.63
671.613	1061.02
671.811	901.28
672.009	866.46
672.206	1187.99
672.404	1112.22
672.602	1009.82
672.799	860.32
672.997	1042.59
673.195	1292.44
673.392	888.99
673.59	628.9
673.788	1243.29
673.985	667.81
674.183	927.9
674.38	809.12
674.578	1333.4
674.775	882.85
674.973	649.38
675.17	741.54
675.368	1327.25
675.565	1116.31
675.763	817.31
675.96	819.36
676.158	1290.39
676.355	1015.96
676.553	719.01
676.75	866.46
676.947	1054.87
677.145	1089.69
677.342	909.47
677.539	977.05
677.737	1220.76
677.934	1573.01
678.131	1130.65
678.329	860.32
678.526	1550.48
678.723	1243.29
678.92	999.58
679.118	983.2
679.315	800.93
679.512	1497.24
679.709	964.76
679.906	864.41
680.104	1394.84
680.301	1128.6
680.498	696.48
680.695	936.09
680.892	958.62
681.089	1020.06
681.286	827.55
681.483	809.12
681.68	1267.86
681.877	1372.31
682.075	966.81
682.272	1054.87
682.469	1274.01
682.665	1118.36
682.862	755.87
683.059	694.43
683.256	1288.34
683.453	1179.8
683.65	1079.45
683.847	913.56
684.044	1091.74
684.241	940.19
684.438	1056.92
684.635	790.69
684.831	1646.74
685.028	1599.63
685.225	874.65
685.422	1128.6
685.619	1063.07
685.815	1106.07
686.012	1099.93
686.209	1038.49
686.405	985.24
686.602	1341.59
686.799	848.03
686.996	897.18
687.192	985.24
687.389	1706.13
687.586	981.15
687.782	968.86
687.979	1597.59
688.175	1489.04
688.372	1110.17
688.568	993.44
688.765	1095.83
688.962	1515.67
689.158	1097.88
689.355	784.54
689.551	1431.7
689.748	1202.33
689.944	1118.36
690.14	927.9
690.337	1487
690.533	1104.03
690.73	1202.33
690.926	1153.18
691.123	1355.93
691.319	1263.77
691.515	903.32
691.712	1222.81
691.908	1460.37
692.104	1251.48
692.301	1011.87
692.497	907.42
692.693	1396.89
692.889	1425.56
693.086	1200.28
693.282	837.79
693.478	1173.66
693.674	1562.77
693.87	1089.69
694.067	964.76
694.263	1319.06
694.459	1290.39
694.655	1214.62
694.851	1153.18
695.047	1448.08
695.243	1454.23
695.439	1243.29
695.635	997.53
695.831	1431.7
696.027	1308.82
696.224	1116.31
696.42	1362.07
696.615	1679.51
696.811	1341.59
697.007	1020.06
697.203	1159.32
697.399	1353.88
697.595	1534.1
697.791	1075.35
697.987	1214.62
698.183	997.53
698.379	1159.32
698.575	1177.75
698.77	1220.76
698.966	1534.1
699.162	1630.35
699.358	1183.9
699.554	1007.77
699.749	1521.81
699.945	1536.15
700.141	1253.53
700.337	1194.14
700.532	1327.25
700.728	1073.31
700.924	1124.51
701.119	1018.01
701.315	1403.03
701.511	1323.16
701.706	1136.79
701.902	977.05
702.097	1403.03
702.293	1464.47
702.489	1169.56
702.684	1241.24
702.88	1366.17
703.075	1259.67
703.271	1181.85
703.466	1065.11
703.662	1384.6
703.857	1484.95
704.053	1075.35
704.248	1101.98
704.443	1579.15
704.639	1534.1
704.834	1212.57
705.03	1108.12
705.225	1425.56
705.42	1681.55
705.616	1304.73
705.811	1046.68
706.006	1251.48
706.202	1425.56
706.397	1386.65
706.592	1046.68
706.787	1478.8
706.983	1384.6
707.178	1460.37
707.373	1267.86
707.568	1659.03
707.763	1577.11
707.959	1093.79
708.154	1009.82
708.349	1386.65
708.544	1411.22
708.739	1409.17
708.934	1112.22
709.129	1603.73
709.324	1577.11
709.519	1206.42
709.714	1181.85
709.909	1747.09
710.104	1468.56
710.299	1179.8
710.494	1308.82
710.689	1697.94
710.884	1407.13
711.079	1341.59
711.274	1421.46
711.469	1566.87
711.664	1611.92
711.859	1132.7
712.054	1300.63
712.249	1671.31
712.443	1779.86
712.638	1054.87
712.833	1165.46
713.028	1446.04
713.223	1439.89
713.417	1575.06
713.612	1284.25
713.807	1675.41
714.002	2058.38
714.196	1403.03
714.391	1177.75
714.586	1620.11
714.78	1515.67
714.975	1317.01
715.17	1282.2
715.364	1462.42
715.559	1650.83
715.754	1026.2
715.948	1165.46
716.143	1865.87
716.337	1542.29
716.532	1519.76
716.726	1239.19
716.921	1702.03
717.115	1976.46
717.31	1149.08
717.504	1869.97
717.699	1398.93
717.893	1806.48
718.088	1218.71
718.282	1155.23
718.476	1534.1
718.671	1630.35
718.865	1284.25
719.059	1218.71
719.254	1546.39
719.448	1919.12
719.642	1468.56
719.837	1200.28
720.031	1732.75
720.225	1869.97
720.419	1357.97
720.614	1302.68
720.808	1824.91
721.002	1503.38
721.196	1224.86
721.39	1341.59
721.585	1906.83
721.779	1695.89
721.973	1431.7
722.167	1095.83
722.361	1673.36
722.555	1927.31
722.749	1296.53
722.943	1280.15
723.137	1271.96
723.331	1591.44
723.525	1403.03
723.719	1333.4
723.913	1763.47
724.107	1874.06
724.301	1261.72
724.495	1398.93
724.689	2136.2
724.883	1984.65
725.077	1263.77
725.271	1220.76
725.465	1829.01
725.659	1464.47
725.853	1390.74
726.046	1267.86
726.24	1509.52
726.434	1763.47
726.628	1347.73
726.822	1425.56
727.015	1849.49
727.209	1894.54
727.403	1425.56
727.596	1204.38
727.79	1798.29
727.984	1734.8
728.177	1290.39
728.371	1360.02
728.565	1775.76
728.758	1355.93
728.952	1364.12
729.146	1302.68
729.339	1886.35
729.533	1532.05
729.726	1497.24
729.92	1443.99
730.113	1896.59
730.307	1691.79
730.5	1423.51
730.694	1372.31
730.887	1388.69
731.081	1738.9
731.274	1128.6
731.468	1390.74
731.661	1548.44
731.854	1499.28
732.048	1448.08
732.241	1439.89
732.435	1540.24
732.628	1742.99
732.821	1491.09
733.014	1345.69
733.208	1376.41
733.401	1884.3
733.594	1474.71
733.788	1433.75
733.981	1960.08
734.174	1814.67
734.367	1325.21
734.56	1697.94
734.754	1865.87
734.947	1710.22
735.14	1431.7
735.333	1441.94
735.526	1886.35
735.719	1607.83
735.912	1417.37
736.105	1388.69
736.298	1742.99
736.491	1595.54
736.684	1243.29
736.877	1495.19
737.07	1726.61
737.263	2091.15
737.456	1540.24
737.649	1362.07
737.842	1650.83
738.035	1665.17
738.228	1601.68
738.421	1673.36
738.614	1996.94
738.807	1947.79
739	1343.64
739.192	1280.15
739.385	1861.77
739.578	1841.29
739.771	1775.76
739.964	1505.43
740.156	1802.38
740.349	1675.41
740.542	1667.22
740.735	1454.23
740.927	1507.48
741.12	1616.02
741.313	1527.96
741.505	1624.21
741.698	1816.72
741.891	1726.61
742.083	1722.51
742.276	1550.48
742.468	1775.76
742.661	1806.48
742.854	1611.92
743.046	1472.66
743.239	2119.82
743.431	1775.76
743.624	1564.82
743.816	1390.74
744.009	1693.84
744.201	1945.74
744.393	1673.36
744.586	1400.98
744.778	2029.71
744.971	1638.55
745.163	1593.49
745.355	1755.28
745.548	1775.76
745.74	1652.88
745.932	1685.65
746.125	1573.01
746.317	2199.69
746.509	1820.81
746.702	1566.87
746.894	1540.24
747.086	1884.3
747.278	2087.05
747.471	1742.99
747.663	1632.4
747.855	1814.67
748.047	2168.97
748.239	1374.36
748.431	1581.2
748.623	2250.89
748.815	2218.12
749.008	1493.14
749.2	1585.3
749.392	2005.13
749.584	2009.23
749.776	1626.26
749.968	1781.9
750.16	2316.42
750.352	1757.33
750.544	1710.22
750.736	1536.15
750.928	1972.36
751.12	1888.4
751.311	1630.35
751.503	1693.84
751.695	1982.6
751.887	1833.1
752.079	1357.97
752.271	1507.48
752.463	2678.91
752.654	2070.67
752.846	1620.11
753.038	1691.79
753.23	1720.46
753.421	2021.52
753.613	1706.13
753.805	1726.61
753.997	2101.39
754.188	2060.43
754.38	1624.21
754.572	1654.93
754.763	1921.17
754.955	2046.09
755.146	1665.17
755.338	1714.32
755.53	2050.19
755.721	1857.68
755.913	1570.96
756.104	1581.2
756.296	1904.78
756.487	2113.67
756.679	1656.98
756.87	1661.07
757.062	1806.48
757.253	2048.14
757.445	1595.54
757.636	1720.46
757.827	1775.76
758.019	2562.18
758.21	1595.54
758.401	1673.36
758.593	2341
758.784	2312.33
758.975	1538.2
759.167	1699.98
759.358	1966.22
759.549	2250.89
759.74	1640.59
759.932	1644.69
760.123	2273.42
760.314	1716.37
760.505	1702.03
760.696	1685.65
760.888	2392.2
761.079	1775.76
761.27	1652.88
761.461	1433.75
761.652	2244.74
761.843	1855.63
762.034	1732.75
762.225	1923.21
762.416	1927.31
762.607	1935.5
762.798	1669.27
762.989	1636.5
763.18	2723.97
763.371	1779.86
763.562	1702.03
763.753	1761.42
763.944	2066.57
764.135	2146.44
764.326	1941.65
764.517	1788.05
764.708	2087.05
764.899	2048.14
765.089	1659.03
765.28	1644.69
765.471	1980.56
765.662	2209.93
765.853	1767.57
766.043	1540.24
766.234	2132.11
766.425	2287.75
766.615	1736.85
766.806	1556.63
766.997	2287.75
767.187	2054.28
767.378	1593.49
767.569	1456.28
767.759	2033.8
767.95	1953.93
768.141	1773.71
768.331	1570.96
768.522	1906.83
768.712	2070.67
768.903	1687.7
769.093	1624.21
769.284	2322.57
769.474	1960.08
769.665	1548.44
769.855	1595.54
770.046	2140.3
770.236	1851.53
770.426	1962.12
770.617	1544.34
770.807	2128.01
770.998	1933.45
771.188	1800.34
771.378	1620.11
771.569	2201.74
771.759	2142.35
771.949	1638.55
772.139	1460.37
772.33	2037.9
772.52	2472.07
772.71	1550.48
772.9	1581.2
773.09	2398.34
773.281	2341
773.471	1745.04
773.661	1679.51
773.851	2177.16
774.041	1935.5
774.231	1648.79
774.421	1898.64
774.611	2295.94
774.802	2080.91
774.992	1767.57
775.182	1601.68
775.372	1843.34
775.562	2175.11
775.752	1767.57
775.942	1730.7
776.131	2472.07
776.321	2027.66
776.511	1667.22
776.701	1642.64
776.891	2250.89
777.081	1718.42
777.271	1751.18
777.461	1691.79
777.651	2218.12
777.84	2322.57
778.03	1702.03
778.22	1730.7
778.41	2310.28
778.599	1749.14
778.789	1755.28
778.979	1607.83
779.169	1951.88
779.358	1974.41
779.548	1904.78
779.738	1540.24
779.927	2072.72
780.117	1810.58
780.307	1890.45
780.496	1394.84
780.686	2232.46
780.875	2441.35
781.065	1691.79
781.254	1624.21
781.444	1990.8
781.633	1980.56
781.823	1833.1
782.012	1661.07
782.202	2001.04
782.391	2039.95
782.581	1630.35
782.77	1845.39
782.96	2224.26
783.149	1876.11
783.338	1742.99
783.528	1513.62
783.717	2244.74
783.906	2357.38
784.096	1923.21
784.285	1587.35
784.474	1976.46
784.663	1896.59
784.853	1853.58
785.042	1849.49
785.231	1865.87
785.42	2199.69
785.61	1876.11
785.799	1597.59
785.988	1968.27
786.177	1876.11
786.366	1943.69
786.555	1980.56
786.744	2185.35
786.933	2042
787.122	1566.87
787.312	1568.91
787.501	1906.83
787.69	2093.19
787.879	1790.1
788.068	1644.69
788.257	1671.31
788.445	1984.65
788.634	1777.81
788.823	1669.27
789.012	2685.06
789.201	2304.14
789.39	1837.2
789.579	1734.8
789.768	1988.75
789.957	2050.19
790.145	1786
790.334	1501.33
790.523	2087.05
790.712	1947.79
790.9	1804.43
791.089	1581.2
791.278	2295.94
791.467	1970.32
791.655	1910.93
791.844	2257.03
792.033	1955.98
792.221	1968.27
792.41	1685.65
792.599	1554.58
792.787	2140.3
792.976	2046.09
793.164	1626.26
793.353	1722.51
793.541	2300.04
793.73	2148.49
793.918	1810.58
794.107	1814.67
794.295	2156.68
794.484	1958.03
794.672	1912.97
794.861	1792.14
795.049	2173.07
795.238	2449.54
795.426	1628.31
795.614	1851.53
795.803	2078.86
795.991	2386.05
796.179	1755.28
796.368	1773.71
796.556	2238.6
796.744	1777.81
796.932	1661.07
797.121	1691.79
797.309	2185.35
797.497	2074.76
797.685	1794.19
797.874	1742.99
798.062	2029.71
798.25	2375.81
798.438	1689.74
798.626	1740.94
798.814	2125.96
799.002	2545.8
799.19	1886.35
799.378	1855.63
799.566	2291.85
799.755	2381.96
799.943	1988.75
800.131	1849.49
800.318	2195.59
800.506	2203.79
800.694	1843.34
800.882	1968.27
801.07	2281.61
801.258	2029.71
801.446	1777.81
801.634	1841.29
801.822	2070.67
802.01	2037.9
802.197	1800.34
802.385	2009.23
802.573	2107.53
802.761	1960.08
802.949	1945.74
803.136	1570.96
803.324	2324.62
803.512	2037.9
803.699	2001.04
803.887	1628.31
804.075	2400.39
804.262	1994.89
804.45	1757.33
804.638	1869.97
804.825	1853.58
805.013	2042
805.201	1863.82
805.388	1654.93
805.576	2177.16
805.763	2599.04
805.951	1861.77
806.138	1972.36
806.326	2689.15
806.513	2300.04
806.701	1888.4
806.888	1818.77
807.075	2267.27
807.263	2699.39
807.45	1792.14
807.638	2068.62
807.825	2646.15
808.012	2429.06
808.2	1933.45
808.387	2230.41
808.574	2365.57
808.761	2570.37
808.949	1822.86
809.136	1980.56
809.323	2205.83
809.51	2209.93
809.698	2304.14
809.885	2115.72
810.072	2341
810.259	2414.73
810.446	2017.42
810.633	1931.41
810.82	2510.98
811.008	2680.96
811.195	2130.06
811.382	2019.47
811.569	2265.22
811.756	2046.09
811.943	1998.99
812.13	1984.65
812.317	2214.02
812.504	2097.29
812.691	2111.63
812.878	2171.02
813.064	2672.77
813.251	2318.47
813.438	2001.04
813.625	2277.51
813.812	2324.62
813.999	2291.85
814.186	2109.58
814.372	2203.79
814.559	2332.81
814.746	2543.75
814.933	1953.93
815.12	2230.41
815.306	2154.63
815.493	2171.02
815.68	2064.52
815.866	2138.25
816.053	2549.89
816.24	2717.83
816.426	2185.35
816.613	2019.47
816.799	2539.65
816.986	2721.92
817.173	2070.67
817.359	2031.76
817.546	2439.3
817.732	2113.67
817.919	1796.24
818.105	2273.42
818.292	2300.04
818.478	2435.21
818.665	2214.02
818.851	2070.67
819.037	2963.58
819.224	2394.25
819.41	1921.17
819.597	1992.84
819.783	2764.93
819.969	2523.27
820.156	2199.69
820.342	1943.69
820.528	3106.94
820.714	2320.52
820.901	2381.96
821.087	2185.35
821.273	2807.94
821.459	2328.71
821.646	2009.23
821.832	2033.8
822.018	2330.76
822.204	2414.73
822.39	2189.45
822.576	2029.71
822.762	2437.25
822.948	2533.51
823.134	2197.64
823.32	2046.09
823.507	2070.67
823.693	2259.08
823.879	2381.96
824.065	2095.24
824.25	2424.97
824.436	2201.74
824.622	2031.76
824.808	2046.09
824.994	2160.78
825.18	2136.2
825.366	2101.39
825.552	2130.06
825.738	2259.08
825.923	2384.01
826.109	2302.09
826.295	2046.09
826.481	2140.3
826.667	2359.43
826.852	2345.09
827.038	2033.8
827.224	2582.66
827.409	2746.5
827.595	1943.69
827.781	2484.36
827.966	2648.19
828.152	2570.37
828.338	2107.53
828.523	1861.77
828.709	2449.54
828.894	2795.65
829.08	2072.72
829.266	1980.56
829.451	2250.89
829.637	2551.94
829.822	2164.87
830.008	2029.71
830.193	2545.8
830.378	2803.84
830.564	2238.6
830.749	2125.96
830.935	2611.33
831.12	2613.38
831.305	2056.33
831.491	2199.69
831.676	2031.76
831.861	2693.25
832.047	2152.59
832.232	1976.46
832.417	2762.88
832.602	2394.25
832.788	2058.38
832.973	2128.01
833.158	2351.24
833.343	2519.17
833.528	2134.15
833.714	2062.48
833.899	2578.56
834.084	2896
834.269	2310.28
834.454	2304.14
834.639	2646.15
834.824	2218.12
835.009	2185.35
835.194	2336.9
835.379	2703.49
835.564	2762.88
835.749	2283.66
835.934	2013.32
836.119	2578.56
836.304	2416.77
836.489	2099.34
836.674	2377.86
836.859	2144.39
837.044	2756.74
837.228	2136.2
837.413	2029.71
837.598	2498.69
837.783	2723.97
837.968	2267.27
838.152	2168.97
838.337	1886.35
838.522	2717.83
838.707	2574.47
838.891	2177.16
839.076	2566.28
839.261	2666.63
839.445	2189.45
839.63	2117.77
839.815	2771.07
839.999	2230.41
840.184	2101.39
840.368	2166.92
840.553	2658.43
840.737	2732.16
840.922	2144.39
841.106	2103.43
841.291	2132.11
841.475	2318.47
841.66	2093.19
841.844	2060.43
842.029	3215.48
842.213	2111.63
842.397	2140.3
842.582	1939.6
842.766	2676.87
842.951	2496.64
843.135	2091.15
843.319	2089.1
843.504	2504.84
843.688	2590.85
843.872	1970.32
844.056	2048.14
844.241	2459.78
844.425	2422.92
844.609	2302.09
844.793	1902.73
844.977	2717.83
845.161	2521.22
845.346	1949.84
845.53	2064.52
845.714	2300.04
845.898	2807.94
846.082	1943.69
846.266	1968.27
846.45	2484.36
846.634	2474.12
846.818	2037.9
847.002	2234.5
847.186	2537.6
847.37	2037.9
847.554	1931.41
847.738	2293.9
847.922	2457.73
848.106	2467.97
848.29	1955.98
848.473	2042
848.657	2508.93
848.841	2336.9
849.025	2107.53
849.209	1937.55
849.392	2713.73
849.576	2295.94
849.76	1859.73
849.944	2328.71
850.127	2676.87
850.311	2183.31
850.495	2017.42
850.678	1865.87
850.862	2582.66
851.046	2709.63
851.229	2293.9
851.413	1994.89
851.596	2396.29
851.78	2295.94
851.964	2244.74
852.147	2115.72
852.331	3113.08
852.514	2689.15
852.698	2265.22
852.881	1908.88
853.065	2562.18
853.248	2336.9
853.431	2240.65
853.615	2160.78
853.798	2932.86
853.982	2457.73
854.165	2234.5
854.348	2087.05
854.532	2132.11
854.715	2193.55
854.898	2076.81
855.081	2214.02
855.265	2758.78
855.448	2752.64
855.631	2119.82
855.814	1968.27
855.997	2629.76
856.181	2398.34
856.364	2195.59
856.547	1955.98
856.73	2435.21
856.913	2490.5
857.096	1919.12
857.279	2189.45
857.462	2222.22
857.645	2615.43
857.828	2156.68
858.011	2193.55
858.194	2226.31
858.377	2588.8
858.56	1988.75
858.743	2156.68
858.926	2146.44
859.109	2457.73
859.292	2074.76
859.475	1982.6
859.658	2678.91
859.841	2547.84
860.023	1941.65
860.206	1894.54
860.389	2408.58
860.572	2609.28
860.755	2168.97
860.937	2068.62
861.12	2345.09
861.303	2467.97
861.486	2177.16
861.668	1869.97
861.851	2498.69
862.034	2472.07
862.216	2187.4
862.399	1835.15
862.581	2420.87
862.764	2717.83
862.947	2146.44
863.129	1972.36
863.312	2064.52
863.494	2717.83
863.677	2369.67
863.859	1794.19
864.042	2484.36
864.224	2623.62
864.406	2199.69
864.589	1908.88
864.771	2478.21
864.954	2101.39
865.136	2072.72
865.318	1736.85
865.501	2318.47
865.683	1867.92
865.865	2017.42
866.048	2046.09
866.23	2504.84
866.412	2203.79
866.594	1853.58
866.777	2123.91
866.959	2351.24
867.141	2119.82
867.323	2244.74
867.505	2132.11
867.687	2365.57
867.869	2414.73
868.052	2044.04
868.234	1927.31
868.416	2203.79
868.598	2463.88
868.78	1910.93
868.962	1851.53
869.144	2449.54
869.326	2386.05
869.508	2087.05
869.69	1939.6
869.872	2189.45
870.054	2478.21
870.236	1927.31
870.417	2007.18
870.599	2156.68
870.781	2576.52
870.963	2195.59
871.145	1955.98
871.327	2037.9
871.508	2381.96
871.69	2039.95
871.872	1986.7
872.054	2232.46
872.235	2314.38
872.417	2148.49
872.599	1884.3
872.78	2658.43
872.962	2220.17
873.144	1740.94
873.325	2095.24
873.507	2621.57
873.689	2410.63
873.87	1892.49
874.052	2201.74
874.233	2242.7
874.415	2545.8
874.596	2046.09
874.778	2046.09
874.959	2373.77
875.141	2521.22
875.322	1988.75
875.503	1839.25
875.685	2459.78
875.866	1855.63
876.048	2021.52
876.229	2005.13
876.41	2336.9
876.592	2418.82
876.773	1939.6
876.954	1869.97
877.136	2678.91
877.317	2392.2
877.498	1884.3
877.679	1992.84
877.86	2504.84
878.042	2349.19
878.223	2130.06
878.404	2381.96
878.585	2525.32
878.766	2865.28
878.947	2379.91
879.128	2390.15
879.309	2439.3
879.49	2627.71
879.672	2132.11
879.853	2134.15
880.034	2138.25
880.215	2482.31
880.396	2269.32
880.576	2181.26
880.757	2119.82
880.938	2680.96
881.119	2164.87
881.3	2142.35
881.481	2236.55
881.662	3299.45
881.843	1964.17
882.023	1986.7
882.204	2662.53
882.385	2564.23
882.566	2162.83
882.747	2074.76
882.927	2410.63
883.108	2523.27
883.289	2076.81
883.469	2422.92
883.65	2369.67
883.831	2463.88
884.011	2431.11
884.192	2277.51
884.373	2764.93
884.553	2680.96
884.734	2357.38
884.914	2537.6
885.095	3164.28
885.275	2816.13
885.456	2484.36
885.636	2209.93
885.817	2441.35
885.997	2576.52
886.178	2072.72
886.358	2394.25
886.538	2640
886.719	3496.05
886.899	2275.46
887.08	2357.38
887.26	2791.55
887.44	2261.13
887.621	2246.79
887.801	2291.85
887.981	3033.21
888.161	2871.42
888.342	2377.86
888.522	2453.64
888.702	2785.41
888.882	2951.29
889.062	2644.1
889.242	2128.01
889.423	2896
889.603	2891.9
889.783	2603.14
889.963	2343.05
890.143	2766.98
890.323	2781.31
890.503	2336.9
890.683	2359.43
890.863	2719.87
891.043	2582.66
891.223	2408.58
891.403	2650.24
891.583	2715.78
891.763	2580.61
891.943	2394.25
892.122	2390.15
892.302	2728.07
892.482	2648.19
892.662	2506.88
892.842	2642.05
893.022	2750.59
893.201	2599.04
893.381	2635.91
893.561	2416.77
893.741	2939.01
893.92	2746.5
894.1	2541.7
894.28	2601.09
894.459	2951.29
894.639	2855.04
894.819	2513.03
894.998	2642.05
895.178	2726.02
895.357	2955.39
895.537	2435.21
895.716	2259.08
895.896	2656.39
896.075	3162.23
896.255	2607.23
896.434	2218.12
896.614	2971.77
896.793	3098.75
896.973	2691.2
897.152	2431.11
897.331	2771.07
897.511	2873.47
897.69	2345.09
897.87	2590.85
898.049	2777.22
898.228	2732.16
898.407	2613.38
898.587	2560.13
898.766	2592.9
898.945	2893.95
899.124	2732.16
899.304	2537.6
899.483	2918.53
899.662	3195
899.841	2369.67
900.02	2459.78
900.199	3078.27
900.378	2873.47
900.557	2373.77
900.737	2375.81
900.916	2873.47
901.095	2994.3
901.274	2766.98
901.453	2379.91
901.632	2582.66
901.811	2586.76
901.989	2455.69
902.168	2373.77
902.347	3051.64
902.526	2502.79
902.705	2521.22
902.884	2474.12
903.063	3012.73
903.242	3033.21
903.42	2365.57
903.599	2666.63
903.778	3047.55
903.957	3078.27
904.135	2650.24
904.314	2672.77
904.493	2881.66
904.672	2783.36
904.85	2467.97
905.029	2484.36
905.207	2883.71
905.386	3393.65
905.565	2277.51
905.743	2566.28
905.922	2619.52
906.1	2795.65
906.279	2275.46
906.457	2341
906.636	2597
906.814	2582.66
906.993	2484.36
907.171	2412.68
907.35	2803.84
907.528	2834.56
907.707	2635.91
907.885	2300.04
908.063	3074.17
908.242	2525.32
908.42	2404.49
908.598	2160.78
908.777	2805.89
908.955	2457.73
909.133	2553.99
909.311	2310.28
909.49	2480.26
909.668	2623.62
909.846	2427.01
910.024	2195.59
910.202	2586.76
910.38	2656.39
910.559	2218.12
910.737	2420.87
910.915	2705.54
911.093	2631.81
911.271	2461.83
911.449	2615.43
911.627	2840.7
911.805	3176.57
911.983	2375.81
912.161	2285.7
912.339	2816.13
912.517	2977.92
912.695	2439.3
912.872	2265.22
913.05	2510.98
913.228	2515.08
913.406	2388.1
913.584	2185.35
913.762	2760.83
913.939	2406.53
914.117	2365.57
914.295	2291.85
914.473	2738.3
914.65	2750.59
914.828	2193.55
915.006	2230.41
915.184	2273.42
915.361	2701.44
915.539	2349.19
915.716	2635.91
915.894	2668.67
916.072	2762.88
916.249	2461.83
916.427	2291.85
916.604	2429.06
916.782	2678.91
916.959	2326.66
917.137	2252.94
917.314	2635.91
917.492	2670.72
917.669	2439.3
917.847	2459.78
918.024	2701.44
918.201	2406.53
918.379	2447.49
918.556	2334.86
918.733	2777.22
918.911	2547.84
919.088	2566.28
919.265	2173.07
919.442	2570.37
919.62	2465.93
919.797	2072.72
919.974	2142.35
920.151	2478.21
920.328	2476.16
920.506	2171.02
920.683	2439.3
920.86	2218.12
921.037	2316.42
921.214	2355.33
921.391	2062.48
921.568	2662.53
921.745	2146.44
921.922	2152.59
922.099	2070.67
922.276	2619.52
922.453	2533.51
922.63	2060.43
922.807	2531.46
922.984	2429.06
923.161	2314.38
923.338	2076.81
923.514	2031.76
923.691	2427.01
923.868	2545.8
924.045	2050.19
924.222	1931.41
924.399	2394.25
924.575	2513.03
924.752	2111.63
924.929	2144.39
925.105	2455.69
925.282	1984.65
925.459	2025.61
925.635	2027.66
925.812	2207.88
925.989	2185.35
926.165	2076.81
926.342	1908.88
926.518	1980.56
926.695	2070.67
926.871	1980.56
927.048	1804.43
927.224	2386.05
927.401	2089.1
927.577	2062.48
927.754	1908.88
927.93	2513.03
928.107	2410.63
928.283	1915.02
928.459	2085
928.636	2437.25
928.812	2080.91
928.988	1923.21
929.165	1829.01
929.341	2193.55
929.517	2224.26
929.693	2269.32
929.87	1642.64
930.046	2226.31
930.222	1996.94
930.398	1841.29
930.574	1929.36
930.751	2158.73
930.927	1972.36
931.103	1816.72
931.279	1857.68
931.455	1900.69
931.631	2134.15
931.807	1638.55
931.983	1695.89
932.159	1742.99
932.335	2058.38
932.511	1769.62
932.687	1814.67
932.863	2097.29
933.039	2013.32
933.215	1523.86
933.391	1530
933.566	1849.49
933.742	1925.26
933.918	1681.55
934.094	1458.32
934.27	1820.81
934.445	1923.21
934.621	1734.8
934.797	1458.32
934.973	1992.84
935.148	1833.1
935.324	1493.14
935.5	1319.06
935.675	2066.57
935.851	1955.98
936.027	1542.29
936.202	1564.82
936.378	1906.83
936.553	1728.66
936.729	1949.84
936.904	1339.54
937.08	1403.03
937.255	1554.58
937.431	1247.38
937.606	1210.52
937.782	1409.17
937.957	1583.25
938.133	1357.97
938.308	1317.01
938.483	1398.93
938.659	1280.15
938.834	1349.78
939.009	1104.03
939.185	1400.98
939.36	1218.71
939.535	870.56
939.71	1288.34
939.886	1544.34
940.061	1472.66
940.236	1269.91
940.411	1069.21
940.586	1456.28
940.761	1357.97
940.937	960.67
941.112	944.28
941.287	1292.44
941.462	1310.87
941.637	825.5
941.812	991.39
941.987	1288.34
942.162	1183.9
942.337	1104.03
942.512	966.81
942.687	1403.03
942.862	1325.21
943.037	780.45
943.212	704.67
943.386	1161.37
943.561	1202.33
943.736	1173.66
943.911	1378.45
944.086	1226.9
944.26	1202.33
944.435	893.09
944.61	1063.07
944.785	1407.13
944.959	1538.2
945.134	886.94
945.309	800.93
945.483	934.04
945.658	1423.51
945.833	614.56
946.007	788.64
946.182	1460.37
946.357	856.22
946.531	827.55
946.706	747.68
946.88	684.19
947.055	1267.86
947.229	882.85
947.404	753.82
947.578	1341.59
947.752	981.15
947.927	653.47
948.101	690.34
948.276	1018.01
948.45	1161.37
948.624	1122.46
948.799	729.25
948.973	1161.37
949.147	800.93
949.321	925.85
949.496	823.45
949.67	1319.06
949.844	1120.41
950.018	819.36
950.193	845.98
950.367	1632.4
950.541	1032.35
950.715	989.34
950.889	950.43
951.063	860.32
951.237	1261.72
951.411	708.77
951.585	784.54
951.759	1181.85
951.933	1138.84
952.107	886.94
952.281	989.34
952.455	1398.93
952.629	1235.1
952.803	845.98
952.977	772.25
953.151	1290.39
953.325	1134.75
953.499	1050.78
953.672	704.67
953.846	880.8
954.02	1144.99
954.194	782.49
954.368	817.31
954.541	1261.72
954.715	866.46
954.889	948.38
955.062	647.33
955.236	1134.75
955.41	968.86
955.583	1087.64
955.757	727.2
955.93	1034.39
956.104	893.09
956.278	811.17
956.451	977.05
956.625	1151.13
956.798	1435.8
956.972	1128.6
957.145	694.43
957.319	1024.16
957.492	1134.75
957.665	1050.78
957.839	784.54
958.012	1147.03
958.185	915.61
958.359	843.93
958.532	952.48
958.705	1149.08
958.879	1179.8
959.052	936.09
959.225	628.9
959.398	983.2
959.572	1093.79
959.745	790.69
959.918	946.33
960.091	1005.72
960.264	1243.29
960.438	743.58
960.611	811.17
960.784	1214.62
960.957	952.48
961.13	1187.99
961.303	891.04
961.476	1089.69
961.649	1249.43
961.822	762.02
961.995	848.03
962.168	1216.66
962.341	1093.79
962.514	882.85
962.686	770.21
962.859	1079.45
963.032	1255.58
963.205	764.06
963.378	655.52
963.551	1171.61
963.723	1005.72
963.896	868.51
964.069	1026.2
964.242	1048.73
964.414	1216.66
964.587	932
964.76	876.7
964.932	1140.89
965.105	1038.49
965.278	821.41
965.45	719.01
965.623	1048.73
965.795	1108.12
965.968	929.95
966.14	673.95
966.313	913.56
966.485	1128.6
966.658	835.74
966.83	655.52
967.003	1337.49
967.175	1245.34
967.348	747.68
967.52	778.4
967.692	1357.97
967.865	1171.61
968.037	827.55
968.209	1046.68
968.382	989.34
968.554	1173.66
968.726	823.45
968.898	759.97
969.071	1013.92
969.243	1167.51
969.415	850.08
969.587	870.56
969.759	1464.47
969.932	1185.94
970.104	796.83
970.276	485.54
970.448	919.71
970.62	848.03
970.792	1015.96
970.964	909.47
971.136	1489.04
971.308	1124.51
971.48	749.73
971.652	833.69
971.824	1421.46
971.996	821.41
972.168	897.18
972.339	850.08
972.511	1226.9
972.683	913.56
972.855	1048.73
973.027	839.84
973.199	1024.16
973.37	1136.79
973.542	858.27
973.714	878.75
973.886	960.67
974.057	1210.52
974.229	708.77
974.401	817.31
974.572	925.85
974.744	516.26
974.915	661.66
975.087	739.49
975.259	1394.84
975.43	819.36
975.602	706.72
975.773	655.52
975.945	792.73
976.116	1140.89
976.288	645.28
976.459	817.31
976.63	932
976.802	1075.35
976.973	714.91
977.145	901.28
977.316	1390.74
977.487	1331.35
977.659	884.89
977.83	692.38
978.001	1300.63
978.172	948.38
978.344	673.95
978.515	811.17
978.686	825.5
978.857	1333.4
979.028	643.23
979.2	698.53
979.371	1179.8
979.542	956.57
979.713	878.75
979.884	391.33
980.055	757.92
980.226	870.56
980.397	757.92
980.568	530.59
980.739	1134.75
980.91	977.05
981.081	841.89
981.252	641.18
981.423	1110.17
981.594	1255.58
981.765	645.28
981.936	778.4
982.106	966.81
982.277	1157.27
982.448	735.39
982.619	872.61
982.79	917.66
982.96	1206.42
983.131	825.5
983.302	430.24
983.472	895.13
983.643	972.96
983.814	815.26
983.984	723.1
984.155	864.41
984.326	1161.37
984.496	839.84
984.667	678.05
984.837	762.02
985.008	1198.23
985.178	784.54
985.349	712.86
985.519	907.42
985.69	772.25
985.86	694.43
986.031	635.04
986.201	1001.63
986.371	1130.65
986.542	501.92
986.712	440.48
986.882	1013.92
987.053	966.81
987.223	667.81
987.393	917.66
987.563	796.83
987.734	1013.92
987.904	1054.87
988.074	614.56
988.244	901.28
988.414	764.06
988.585	610.47
988.755	729.25
988.925	852.13
989.095	1226.9
989.265	538.79
989.435	719.01
989.605	1001.63
989.775	1112.22
989.945	876.7
990.115	516.26
990.285	872.61
990.455	983.2
990.625	792.73
990.795	522.4
990.965	1214.62
991.134	655.52
991.304	561.31
991.474	579.75
991.644	989.34
991.814	1357.97
991.984	385.19
992.153	542.88
992.323	917.66
992.493	843.93
992.662	454.82
992.832	719.01
993.002	915.61
993.171	948.38
993.341	428.2
993.511	686.24
993.68	659.62
993.85	989.34
994.019	336.04
994.189	481.44
994.358	909.47
994.528	784.54
994.697	278.69
994.867	495.78
995.036	999.58
995.206	686.24
995.375	442.53
995.544	651.42
995.714	788.64
995.883	753.82
996.052	712.86
996.222	303.27
996.391	1284.25
996.56	866.46
996.73	489.64
996.899	432.29
997.068	1171.61
997.237	698.53
997.406	477.35
997.576	422.05
997.745	876.7
997.914	798.88
998.083	346.28
998.252	481.44
998.421	770.21
998.59	616.61
998.759	383.14
998.928	247.97
999.097	1104.03
999.266	940.19
999.435	635.04
999.604	290.98
999.773	1284.25
999.942	739.49
1000.111	276.65
1000.28	252.07
1000.448	417.96
1000.617	559.27
1000.786	583.84
1000.955	290.98
1001.124	893.09
1001.292	1464.47
1001.461	481.44
1001.63	352.42
1001.798	1054.87
1001.967	1085.59
1002.136	231.59
1002.304	346.28
1002.473	796.83
1002.642	794.78
1002.81	532.64
1002.979	377
1003.147	895.13
1003.316	1294.49
1003.484	424.1
1003.653	276.65
1003.821	989.34
1003.99	659.62
1004.158	495.78
1004.327	417.96
1004.495	860.32
1004.663	549.03
1004.832	415.91
1005	145.58
1005.168	870.56
1005.337	731.3
1005.505	182.44
1005.673	481.44
1005.842	817.31
1006.01	866.46
1006.178	262.31
1006.346	393.38
1006.514	864.41
1006.683	993.44
1006.851	338.09
1007.019	190.63
1007.187	506.02
1007.355	200.87
1007.523	188.58
1007.691	145.58
1007.859	333.99
1008.027	1003.68
1008.195	348.33
1008.363	178.34
1008.531	839.84
1008.699	495.78
1008.867	143.53
1009.035	301.22
1009.203	911.52
1009.37	587.94
1009.538	340.13
1009.706	647.33
1009.874	682.14
1010.042	589.99
1010.209	114.86
1010.377	164.01
1010.545	784.54
1010.713	606.37
1010.88	260.26
1011.048	354.47
1011.216	546.98
1011.383	934.04
1011.551	272.55
1011.718	215.21
1011.886	776.35
1012.054	602.27
1012.221	219.3
1012.389	166.06
1012.556	469.16
1012.724	979.1
1012.891	395.43
1013.058	155.82
1013.226	813.21
1013.393	835.74
1013.561	110.76
1013.728	139.43
1013.895	821.41
1014.063	667.81
1014.23	53.42
1014.397	215.21
1014.565	841.89
1014.732	571.55
1014.899	233.64
1015.066	211.11
1015.233	764.06
1015.401	764.06
1015.568	348.33
1015.735	362.66
1015.902	637.09
1016.069	745.63
1016.236	301.22
1016.403	104.62
1016.57	333.99
1016.737	770.21
1016.904	247.97
1017.071	170.15
1017.238	428.2
1017.405	813.21
1017.572	233.64
1017.739	446.63
1017.906	708.77
1018.073	784.54
1018.24	106.67
1018.407	303.27
1018.573	794.78
1018.74	477.35
1018.907	207.02
1019.074	14.51
1019.241	870.56
1019.407	647.33
1019.574	174.25
1019.741	131.24
1019.907	667.81
1020.074	743.58
1020.241	67.75
1020.407	121
1020.574	626.85
1020.74	682.14
1020.907	186.54
1021.073	71.85
1021.24	1034.39
1021.406	884.89
1021.573	170.15
1021.739	182.44
1021.906	817.31
1022.072	555.17
1022.239	90.28
1022.405	90.28
1022.571	565.41
1022.738	309.41
1022.904	245.93
1023.07	153.77
1023.237	596.13
1023.403	762.02
1023.569	51.37
1023.735	170.15
1023.902	581.79
1024.068	585.89
1024.234	133.29
1024.4	145.58
1024.566	596.13
1024.732	698.53
1024.898	235.69
1025.065	0.17
1025.231	680.1
1025.397	458.92
1025.563	129.19
1025.729	112.81
1025.895	96.43
1026.061	256.17
1026.227	-38.74
1026.392	141.48
1026.558	696.48
1026.724	532.64
1026.89	73.9
1027.056	190.63
1027.222	635.04
1027.388	434.34
1027.553	102.57
1027.719	96.43
1027.885	938.14
1028.051	620.71
1028.216	-48.98
1028.382	116.9
1028.548	645.28
1028.713	344.23
1028.879	67.75
1029.045	299.17
1029.21	764.06
1029.376	688.29
1029.541	194.73
1029.707	121
1029.873	596.13
1030.038	551.07
1030.204	131.24
1030.369	98.47
1030.534	645.28
1030.7	377
1030.865	129.19
1031.031	-63.32
1031.196	569.51
1031.361	506.02
1031.527	32.94
1031.692	-26.45
1031.857	102.57
1032.023	549.03
1032.188	-38.74
1032.353	22.7
1032.518	870.56
1032.684	514.21
1032.849	-57.17
1033.014	90.28
1033.179	637.09
1033.344	632.99
1033.509	182.44
1033.674	71.85
1033.839	714.91
1034.004	534.69
1034.17	67.75
1034.335	-83.8
1034.5	424.1
1034.664	239.78
1034.829	2.22
1034.994	151.72
1035.159	546.98
1035.324	456.87
1035.489	34.99
1035.654	59.56
1035.819	745.63
1035.984	463.01
1036.148	51.37
1036.313	16.55
1036.478	688.29
1036.643	432.29
1036.807	22.7
1036.972	-28.5
1037.137	743.58
1037.301	391.33
1037.466	-108.37
1037.631	100.52
1037.795	710.82
1037.96	469.16
1038.124	270.5
1038.289	-46.93
1038.454	587.94
1038.618	518.31
1038.783	-28.5
1038.947	108.71
1039.111	460.96
1039.276	319.65
1039.44	14.51
1039.605	460.96
1039.769	354.47
1039.933	475.3
1040.098	49.32
1040.262	268.45
1040.426	581.79
1040.591	620.71
1040.755	45.23
1040.919	86.19
1041.083	442.53
1041.248	368.81
1041.412	-153.43
1041.576	-20.31
1041.74	317.61
1041.904	579.75
1042.068	-38.74
1042.232	82.09
1042.397	661.66
1042.561	493.73
1042.725	-235.35
1042.889	180.39
1043.053	473.25
1043.217	409.76
1043.381	106.67
1043.544	-104.28
1043.708	655.52
1043.872	170.15
1044.036	-309.07
1044.2	-145.24
1044.364	751.78
1044.528	688.29
1044.691	1462.42
1044.855	-194.39
1045.019	592.03
1045.183	592.03
1045.346	65.71
1045.51	-30.55
1045.674	510.11
1045.837	575.65
1046.001	-8.02
1046.165	-91.99
1046.328	911.52
1046.492	399.52
1046.655	211.11
1046.819	121
1046.983	286.89
1047.146	501.92
1047.31	110.76
1047.473	-118.61
1047.636	342.18
1047.8	202.92
1047.963	2.22
1048.127	-65.36
1048.29	186.54
