Data from Ink_Intensity_USB4F045381__84__00084.txt Node

Date: Mon Jul 17 10:57:04 EDT 2023
User: mmckonesweet
Spectrometer: USB4F04538
Trigger mode: 4
Integration Time (sec): 9.000000E-1
Scans to average: 1
Electric dark correction enabled: true
Nonlinearity correction enabled: false
Boxcar width: 0
XAxis mode: Wavelengths
Number of Pixels in Spectrum: 3648
>>>>>Begin Spectral Data<<<<<
345.52	-1007.94
345.736	-1007.94
345.952	-1007.94
346.168	-1075.52
346.384	-1032.52
346.6	-108.88
346.816	-223.57
347.032	-254.29
347.248	214.7
347.464	-162.13
347.68	-94.55
347.896	59.05
348.112	380.58
348.328	-69.97
348.544	-84.31
348.76	46.76
348.975	296.61
349.191	-270.67
349.407	-180.56
349.623	106.15
349.839	-57.68
350.055	-51.54
350.27	30.38
350.486	169.64
350.702	296.61
350.918	212.65
351.133	-194.9
351.349	159.4
351.565	476.84
351.781	-196.95
351.996	13.99
352.212	245.41
352.428	-96.6
352.644	-239.95
352.859	-182.61
353.075	245.41
353.291	52.91
353.506	-92.5
353.722	-133.46
353.938	-106.84
354.153	487.08
354.369	85.67
354.584	-133.46
354.8	317.09
355.016	-266.58
355.231	-217.43
355.447	-20.82
355.662	157.35
355.878	816.8
356.093	-334.16
356.309	38.57
356.524	-160.08
356.74	257.7
356.955	-237.91
357.171	-4.44
357.386	249.51
357.602	-270.67
357.817	-84.31
358.033	-211.28
358.248	364.2
358.464	192.17
358.679	-86.36
358.895	-311.63
359.11	-4.44
359.325	323.24
359.541	73.39
359.756	-14.68
359.972	-272.72
360.187	177.83
360.402	-108.88
360.618	-133.46
360.833	990.88
361.048	192.17
361.264	-190.8
361.479	-31.06
361.694	3.75
361.909	179.88
362.125	-176.47
362.34	-110.93
362.555	294.57
362.77	71.34
362.986	-217.43
363.201	-139.6
363.416	208.55
363.631	50.86
363.847	-147.8
364.062	-119.12
364.277	249.51
364.492	145.06
364.707	-119.12
364.922	-295.25
365.138	306.85
365.353	384.68
365.568	-219.47
365.783	-112.98
365.998	69.29
366.213	528.03
366.428	-295.25
366.643	132.78
366.858	229.03
367.073	278.18
367.288	-67.92
367.503	-231.76
367.718	140.97
367.933	368.29
368.148	-256.34
368.363	34.47
368.578	69.29
368.793	489.12
369.008	-65.88
369.223	-184.66
369.438	216.74
369.653	425.64
369.868	-268.63
370.083	-213.33
370.298	167.59
370.513	423.59
370.728	81.58
370.943	-176.47
371.157	-153.94
371.372	540.32
371.587	-180.56
371.802	-246.1
372.017	95.91
372.232	415.4
372.446	38.57
372.661	-231.76
372.876	255.65
373.091	261.8
373.306	-69.97
373.52	-256.34
373.735	-20.82
373.95	437.92
374.165	-22.87
374.379	-158.03
374.594	-35.16
374.809	161.45
375.023	167.59
375.238	-123.22
375.453	292.52
375.667	-168.27
375.882	-117.08
376.097	-112.98
376.311	126.63
376.526	118.44
376.741	-61.78
376.955	108.2
377.17	683.68
377.384	605.86
377.599	-26.96
377.813	-188.75
378.028	773.79
378.242	294.57
378.457	-98.64
378.672	-278.87
378.886	249.51
379.101	50.86
379.315	-282.96
379.53	-92.5
379.744	272.04
379.958	245.41
380.173	-90.45
380.387	-84.31
380.602	274.09
380.816	-168.27
381.031	-160.08
381.245	-84.31
381.459	255.65
381.674	2733.7
381.888	-115.03
382.103	161.45
382.317	-84.31
382.531	499.36
382.746	-37.2
382.96	-102.74
383.174	-10.58
383.388	536.23
383.603	81.58
383.817	-313.68
384.031	181.93
384.246	478.88
384.46	63.15
384.674	413.35
384.888	26.28
385.103	159.4
385.317	-117.08
385.531	71.34
385.745	421.54
385.959	349.86
386.174	-74.07
386.388	-178.51
386.602	130.73
386.816	30.38
387.03	59.05
387.244	20.14
387.458	212.65
387.672	442.02
387.887	-184.66
388.101	-78.16
388.315	476.84
388.529	269.99
388.743	-45.4
388.957	-166.23
389.171	390.82
389.385	-72.02
389.599	26.28
389.813	183.98
390.027	247.46
390.241	781.98
390.455	-22.87
390.669	-4.44
390.883	61.1
391.097	507.55
391.311	159.4
391.525	-115.03
391.738	349.86
391.952	407.2
392.166	95.91
392.38	-57.68
392.594	493.22
392.808	382.63
393.022	122.54
393.236	-22.87
393.449	313
393.663	323.24
393.877	-65.88
394.091	24.23
394.305	126.63
394.518	7.85
394.732	-174.42
394.946	38.57
395.16	683.68
395.373	282.28
395.587	-127.32
395.801	-4.44
396.015	485.03
396.228	396.96
396.442	-115.03
396.656	-172.37
396.869	476.84
397.083	605.86
397.297	75.43
397.51	22.19
397.724	577.19
397.938	362.15
398.151	-26.96
398.365	-168.27
398.578	347.81
398.792	634.53
399.005	183.98
399.219	-8.53
399.433	224.94
399.646	380.58
399.86	269.99
400.073	292.52
400.287	380.58
400.5	212.65
400.714	216.74
400.927	128.68
401.141	499.36
401.354	1355.41
401.567	458.4
401.781	-24.92
401.994	534.18
402.208	827.04
402.421	102.06
402.635	120.49
402.848	282.28
403.061	507.55
403.275	159.4
403.488	57
403.701	745.12
403.915	577.19
404.128	274.09
404.341	118.44
404.555	456.36
404.768	263.85
404.981	253.61
405.195	110.25
405.408	765.6
405.621	495.27
405.834	212.65
406.048	42.67
406.261	614.05
406.474	755.36
406.687	122.54
406.9	272.04
407.114	394.92
407.327	382.63
407.54	-18.77
407.753	-24.92
407.966	204.46
408.179	472.74
408.392	26.28
408.605	-110.93
408.819	523.94
409.032	509.6
409.245	165.54
409.458	394.92
409.671	503.46
409.884	540.32
410.097	-4.44
410.31	401.06
410.523	501.41
410.736	298.66
410.949	206.5
411.162	251.56
411.375	747.17
411.588	609.95
411.801	409.25
412.014	112.3
412.227	358.05
412.44	351.91
412.653	153.26
412.865	431.78
413.078	616.1
413.291	528.03
413.504	298.66
413.717	155.3
413.93	626.34
414.143	282.28
414.356	327.33
414.568	24.23
414.781	618.15
414.994	550.56
415.207	306.85
415.42	308.9
415.632	724.64
415.845	908.96
416.058	132.78
416.271	118.44
416.483	485.03
416.696	923.29
416.909	272.04
417.121	224.94
417.334	581.28
417.547	1056.41
417.759	284.33
417.972	317.09
418.185	368.29
418.397	710.3
418.61	226.98
418.823	276.13
419.035	796.32
419.248	487.08
419.46	425.64
419.673	331.43
419.885	599.71
420.098	515.75
420.311	335.53
420.523	167.59
420.736	612
420.948	579.23
421.161	415.4
421.373	130.73
421.586	538.27
421.798	417.44
422.01	226.98
422.223	413.35
422.435	421.54
422.648	695.97
422.86	310.95
423.073	388.77
423.285	824.99
423.497	399.01
423.71	335.53
423.922	364.2
424.134	700.06
424.347	1005.21
424.559	597.67
424.771	722.59
424.984	493.22
425.196	749.22
425.408	220.84
425.621	224.94
425.833	913.05
426.045	874.14
426.257	249.51
426.47	431.78
426.682	728.74
426.894	736.93
427.106	456.36
427.318	454.31
427.531	630.43
427.743	773.79
427.955	439.97
428.167	835.23
428.379	812.7
428.591	702.11
428.804	544.42
429.016	450.21
429.228	595.62
429.44	728.74
429.652	675.49
429.864	407.2
430.076	761.5
430.288	771.74
430.5	544.42
430.712	665.25
430.924	954.01
431.136	853.66
431.348	360.1
431.56	634.53
431.772	861.85
431.984	714.4
432.196	517.79
432.408	538.27
432.62	708.26
432.832	1044.12
433.044	888.48
433.256	743.07
433.468	970.4
433.679	546.47
433.891	556.71
434.103	888.48
434.315	1171.1
434.527	984.73
434.739	845.47
434.95	781.98
435.162	1121.95
435.374	734.88
435.586	763.55
435.798	736.93
436.009	702.11
436.221	802.46
436.433	693.92
436.645	730.78
436.856	933.53
437.068	1214.1
437.28	560.8
437.491	978.59
437.703	986.78
437.915	1111.71
438.126	716.45
438.338	1068.7
438.55	956.06
438.761	1089.18
438.973	904.86
439.184	853.66
439.396	980.64
439.608	1205.91
439.819	695.97
440.031	908.96
440.242	1207.96
440.454	1246.87
440.665	839.33
440.877	933.53
441.088	1134.23
441.3	1021.6
441.511	757.41
441.723	788.13
441.934	1031.83
442.146	1089.18
442.357	1083.03
442.569	1136.28
442.78	1111.71
442.991	1437.33
443.203	1328.79
443.414	827.04
443.626	1572.5
443.837	949.92
444.048	802.46
444.26	800.41
444.471	1121.95
444.682	1322.65
444.894	790.17
445.105	736.93
445.316	1496.72
445.528	1306.26
445.739	1070.75
445.95	978.59
446.161	1322.65
446.373	1466
446.584	976.54
446.795	962.2
447.006	1511.06
447.217	1511.06
447.429	921.24
447.64	802.46
447.851	1521.3
448.062	1236.63
448.273	925.34
448.484	1060.51
448.695	1502.87
448.907	1195.67
449.118	1148.57
449.329	1261.21
449.54	1253.02
449.751	1007.26
449.962	1037.98
450.173	1011.36
450.384	1584.79
450.595	1689.23
450.806	1142.43
451.017	1083.03
451.228	1754.77
451.439	1711.76
451.65	1269.4
451.861	1017.5
452.072	1234.58
452.283	1345.17
452.494	1517.2
452.705	1220.25
452.915	1883.79
453.126	1613.46
453.337	1199.77
453.548	1187.48
453.759	1715.86
453.97	2027.15
454.181	1560.21
454.391	1314.45
454.602	1584.79
454.813	1611.41
455.024	1400.47
455.235	1341.08
455.445	1740.43
455.656	1875.6
455.867	1492.63
456.078	1429.14
456.288	1672.85
456.499	1705.62
456.71	1431.19
456.921	1693.33
457.131	1900.17
457.342	1668.75
457.553	1490.58
457.763	1371.8
457.974	1844.88
458.184	1982.09
458.395	1517.2
458.606	1498.77
458.816	2123.4
459.027	2414.21
459.237	1783.44
459.448	1449.62
459.659	2184.84
459.869	2539.14
460.08	1379.99
460.29	1814.16
460.501	2440.84
460.711	2037.39
460.922	1558.16
461.132	1771.15
461.343	2737.79
461.553	1775.25
461.764	1822.35
461.974	1826.45
462.184	2209.42
462.395	2172.55
462.605	2064.01
462.816	1633.94
463.026	2244.23
463.236	2555.52
463.447	1928.85
463.657	1904.27
463.867	2440.84
464.078	2219.66
464.288	2102.92
464.498	2121.35
464.709	2371.21
464.919	2219.66
465.129	2182.79
465.339	2037.39
465.55	2494.08
465.76	2592.39
465.97	2066.06
466.18	2193.03
466.391	2766.46
466.601	2541.19
466.811	2406.02
467.021	2256.52
467.231	2670.21
467.441	2862.72
467.651	2391.69
467.862	2012.81
468.072	2559.62
468.282	2969.21
468.492	2446.98
468.702	2608.77
468.912	2936.45
469.122	3446.39
469.332	3010.17
469.542	2578.05
469.752	3085.95
469.962	2938.49
470.172	2598.53
470.382	2745.98
470.592	3317.37
470.802	3436.15
471.012	2940.54
471.222	2920.06
471.432	3407.48
471.642	3405.43
471.852	3135.1
472.062	2956.93
472.272	3317.37
472.482	3225.21
472.691	3051.13
472.901	3028.6
473.111	3430.01
473.321	4103.79
473.531	3184.25
473.741	3341.94
473.95	3546.74
474.16	3755.63
474.37	3548.79
474.58	3300.98
474.79	4263.53
474.999	4111.98
475.209	3440.25
475.419	3714.67
475.628	3931.76
475.838	4134.51
476.048	3911.28
476.258	3761.78
476.467	4370.02
476.677	4066.92
476.886	4132.46
477.096	4193.9
477.306	4030.06
477.515	4421.22
477.725	4243.05
477.935	4089.45
478.144	4931.17
478.354	4337.26
478.563	4279.91
478.773	4304.49
478.982	4691.56
479.192	5000.8
479.401	4636.26
479.611	4343.4
479.82	4597.35
480.03	5013.09
480.239	4507.24
480.449	4597.35
480.658	5385.82
480.868	5017.18
481.077	4976.22
481.287	4939.36
481.496	5273.18
481.705	5709.4
481.915	5316.19
482.124	5252.7
482.333	5387.86
482.543	5705.3
482.752	5451.35
482.961	5189.21
483.171	5758.55
483.38	5535.32
483.589	5432.92
483.799	5353.05
484.008	5899.86
484.217	5793.36
484.426	5604.95
484.636	5535.32
484.845	6069.84
485.054	5668.44
485.263	5992.02
485.472	5713.49
485.682	6360.65
485.891	6245.96
486.1	5676.63
486.309	5959.25
486.518	6516.3
486.727	6798.91
486.936	6096.46
487.146	6168.14
487.355	6821.44
487.564	6499.91
487.773	6379.08
487.982	6430.28
488.191	6547.01
488.4	6663.75
488.609	6639.17
488.818	6704.71
489.027	7308.86
489.236	7495.22
489.445	6774.34
489.654	6612.55
489.863	7343.67
490.072	7042.62
490.281	7161.41
490.49	7028.29
490.698	7620.15
490.907	7738.93
491.116	7188.03
491.325	7003.71
491.534	7861.81
491.743	7515.7
491.952	7280.19
492.16	7478.84
492.369	7663.16
492.578	7867.95
492.787	7669.3
492.996	7353.91
493.204	7777.84
493.413	8160.81
493.622	7386.68
493.831	7579.19
494.039	8328.75
494.248	7851.57
494.457	7949.87
494.665	7714.36
494.874	8244.78
495.083	8599.08
495.291	8042.03
495.5	8080.94
495.709	8605.22
495.917	8480.3
496.126	8207.92
496.335	8136.24
496.543	8320.56
496.752	8699.43
496.96	8492.59
497.169	8203.82
497.377	8758.82
497.586	8846.88
497.794	8693.29
498.003	8183.34
498.211	8838.69
498.42	9141.79
498.628	8562.22
498.837	8619.56
499.045	9061.92
499.254	8838.69
499.462	8568.36
499.671	8719.91
499.879	9528.86
500.087	9506.33
500.296	8855.08
500.504	9115.17
500.713	9532.95
500.921	9946.64
501.129	9221.66
501.338	8916.51
501.546	9600.54
501.754	9575.96
501.962	9178.65
502.171	9051.68
502.379	9842.2
502.587	10221.07
502.795	9641.5
503.004	9514.52
503.212	9848.34
503.42	10044.95
503.628	9436.7
503.837	9903.64
504.045	10171.92
504.253	10307.09
504.461	9621.02
504.669	9494.04
504.877	10319.37
505.085	10481.16
505.294	9455.13
505.502	10096.14
505.71	10227.21
505.918	10444.3
506.126	9903.64
506.334	10130.96
506.542	10225.17
506.75	10370.57
506.958	10456.59
507.166	10300.94
507.374	10280.46
507.582	10857.99
507.79	10434.06
507.998	10028.56
508.206	10845.7
508.414	10882.56
508.622	10438.16
508.83	10571.27
509.037	11073.03
509.245	10546.7
509.453	10161.68
509.661	10446.35
509.869	10933.76
510.077	11001.35
510.285	10896.9
510.492	10634.76
510.7	11591.16
510.908	10821.13
511.116	10948.1
511.324	10860.04
511.531	10898.95
511.739	11427.32
511.947	11294.21
512.155	11390.46
512.362	11374.08
512.57	11152.9
512.778	10978.82
512.985	10778.12
513.193	11619.83
513.401	11773.43
513.608	11140.61
513.816	11173.38
514.024	11687.42
514.231	11892.21
514.439	11206.14
514.646	11406.84
514.854	11980.28
515.061	11763.19
515.269	11511.29
515.477	11593.21
515.684	11585.02
515.892	12043.76
516.099	11404.8
516.307	11515.39
516.514	12115.44
516.722	12342.77
516.929	11705.85
517.136	11810.29
517.344	12457.45
517.551	12140.02
517.759	11802.1
517.966	11865.59
518.173	12140.02
518.381	12639.72
518.588	12031.48
518.796	11943.41
519.003	12400.11
519.21	12400.11
519.418	12205.55
519.625	12387.82
519.832	12623.34
520.039	12645.87
520.247	12137.97
520.454	12301.81
520.661	13069.8
520.868	12776.94
521.076	12692.97
521.283	12635.63
521.49	13284.83
521.697	13196.77
521.904	12725.74
522.112	12613.1
522.319	13274.59
522.526	13102.56
522.733	12969.44
522.94	12842.47
523.147	12865
523.354	13305.31
523.561	12877.29
523.768	12846.57
523.975	13684.19
524.183	13256.16
524.39	13293.02
524.597	13114.85
524.804	13225.44
525.011	13397.47
525.218	13393.37
525.425	13225.44
525.632	14032.34
525.838	13565.4
526.045	13436.38
526.252	13434.33
526.459	14892.49
526.666	14585.29
526.873	13465.05
527.08	13491.68
527.287	14251.47
527.494	14015.96
527.701	13651.42
527.907	13569.5
528.114	14374.35
528.321	13833.69
528.528	13870.55
528.735	13993.43
528.941	14206.42
529.148	13946.33
529.355	13868.5
529.562	13841.88
529.768	14699.98
529.975	14116.31
530.182	14142.93
530.388	13942.23
530.595	14667.21
530.802	14267.86
531.008	14527.95
531.215	14243.28
531.422	15576.51
531.628	15678.91
531.835	14538.19
532.042	14415.31
532.248	14941.64
532.455	14816.71
532.661	14364.11
532.868	14394.83
533.074	15136.2
533.281	15470.01
533.487	14915.02
533.694	14775.75
533.9	14779.85
534.107	15414.72
534.313	14923.21
534.52	14714.31
534.726	15658.43
534.933	15898.04
535.139	14673.35
535.345	15121.86
535.552	15715.77
535.758	15668.67
535.965	15289.79
536.171	15302.08
536.377	15740.35
536.584	15844.79
536.79	15297.99
536.996	15728.06
537.203	15803.83
537.409	15912.38
537.615	15574.46
537.821	15838.65
538.028	16487.86
538.234	16309.68
538.44	15746.49
538.646	15717.82
538.853	16324.02
539.059	15838.65
539.265	16428.46
539.471	15578.56
539.677	16399.79
539.883	16250.29
540.09	16070.07
540.296	16729.52
540.502	16524.72
540.708	16213.43
540.914	16403.89
541.12	15957.43
541.326	16731.56
541.532	16696.75
541.738	16586.16
541.944	16692.65
542.15	17196.45
542.356	16780.71
542.562	16377.26
542.768	16555.44
542.974	17712.54
543.18	17722.78
543.386	16895.4
543.592	16719.28
543.798	17528.22
544.004	17683.87
544.21	16907.69
544.415	16864.68
544.621	17477.02
544.827	17606.05
545.033	16893.35
545.239	17444.26
545.445	17526.18
545.651	17194.4
545.856	17329.57
546.062	17401.25
546.268	18009.5
546.474	17548.7
546.679	17544.61
546.885	17261.99
547.091	17624.48
547.297	17935.77
547.502	17534.37
547.708	17333.67
547.914	17425.82
548.119	18304.4
548.325	17575.33
548.531	17419.68
548.736	18472.34
548.942	17845.66
549.147	17642.91
549.353	18189.72
549.559	18484.62
549.764	18212.24
549.97	17745.31
550.175	17741.21
550.381	18468.24
550.586	17835.42
550.792	18118.04
550.997	17851.8
551.203	18355.6
551.408	18511.25
551.614	18202
551.819	18054.55
552.025	19135.88
552.23	19049.86
552.435	18257.3
552.641	18748.81
552.846	18722.19
553.052	19266.95
553.257	18783.63
553.462	18548.11
553.668	18394.51
553.873	19295.62
554.078	18630.03
554.283	18990.47
554.489	19434.88
554.694	19025.29
554.899	18775.44
555.105	18965.9
555.31	19389.83
555.515	19797.37
555.72	19156.36
555.925	18832.78
556.131	19715.45
556.336	19144.07
556.541	19101.06
556.746	19402.11
556.951	19760.51
557.156	19893.63
557.361	19398.02
557.567	19694.97
557.772	20215.16
557.977	19758.46
558.182	19451.27
558.387	19555.71
558.592	19705.21
558.797	20051.32
559.002	19633.54
559.207	19697.02
559.412	19744.13
559.617	20458.87
559.822	19828.09
560.027	19434.88
560.232	20057.46
560.437	20123
560.642	19711.36
560.847	20155.77
561.051	20303.22
561.256	20465.01
561.461	19955.07
561.666	19961.21
561.871	20415.86
562.076	20514.16
562.281	19844.48
562.485	19834.24
562.69	20649.33
562.895	20524.4
563.1	20247.93
563.305	20000.12
563.509	21081.45
563.714	21032.3
563.919	20477.3
564.123	20596.08
564.328	20815.21
564.533	21108.07
564.737	20258.17
564.942	20323.7
565.147	21321.06
565.351	21249.38
565.556	20327.8
565.761	20569.46
565.965	21351.78
566.17	20589.94
566.374	20659.57
566.579	20649.33
566.784	21052.78
566.988	20972.91
567.193	20428.15
567.397	20893.04
567.602	20796.78
567.806	20735.34
568.011	20915.56
568.215	20972.91
568.42	21040.49
568.624	21443.94
568.828	20921.71
569.033	21108.07
569.237	21542.24
569.442	21634.4
569.646	20897.13
569.85	21278.05
570.055	21452.13
570.259	21609.82
570.463	21679.46
570.668	21736.8
570.872	21622.11
571.076	21837.15
571.281	21202.28
571.485	21523.81
571.689	21814.62
571.893	21927.26
572.098	21831.01
572.302	21415.27
572.506	22000.99
572.71	21794.14
572.914	21802.33
573.119	21867.87
573.323	22340.95
573.527	22363.48
573.731	21706.08
573.935	22160.73
574.139	22250.84
574.343	22115.67
574.547	21972.32
574.751	22052.19
574.955	22633.81
575.159	22670.67
575.364	22240.6
575.568	21914.97
575.772	22279.51
575.976	22687.06
576.18	22029.66
576.383	22220.12
576.587	22918.48
576.791	22869.33
576.995	21914.97
577.199	22252.89
577.403	22891.85
577.607	23063.88
577.811	22424.92
578.015	22433.11
578.219	22885.71
578.422	23237.96
578.626	22756.69
578.83	22850.89
579.034	23229.77
579.238	23147.85
579.442	22881.61
579.645	23031.12
579.849	23102.79
580.053	23586.11
580.257	22805.84
580.46	23248.2
580.664	23584.07
580.868	23493.96
581.071	23174.47
581.275	23215.43
581.479	22861.13
581.682	23106.89
581.886	22975.82
582.09	23211.34
582.293	23913.79
582.497	23876.93
582.7	23665.99
582.904	23412.04
583.107	23690.56
583.311	23780.67
583.515	23516.48
583.718	23665.99
583.922	24012.09
584.125	24657.2
584.329	23164.23
584.532	23760.19
584.735	24261.94
584.939	23805.25
585.142	23813.44
585.346	23477.57
585.549	23788.86
585.753	24294.71
585.956	23887.17
586.159	24048.96
586.363	24818.99
586.566	24732.98
586.769	24241.46
586.973	23758.14
587.176	24466.74
587.379	24792.37
587.582	24481.08
587.786	24466.74
587.989	24386.87
588.192	25412.9
588.395	24399.16
588.599	24632.63
588.802	24812.85
589.005	24945.97
589.208	24710.45
589.411	24708.4
589.615	24911.15
589.818	25247.02
590.021	24849.71
590.224	24900.91
590.427	25509.16
590.63	25226.54
590.833	24663.35
591.036	24796.46
591.239	25408.81
591.442	24778.03
591.645	25134.38
591.848	25062.7
592.051	25605.41
592.254	25394.47
592.457	25255.21
592.66	25294.12
592.863	25574.69
593.066	25840.93
593.269	25195.82
593.472	25720.1
593.675	25644.32
593.878	26070.3
594.081	25324.84
594.284	25312.55
594.486	25732.39
594.689	25804.06
594.892	25695.52
595.095	25638.18
595.298	26006.81
595.5	25599.27
595.703	26189.08
595.906	25920.8
596.109	26367.26
596.311	26422.55
596.514	25619.75
596.717	26205.47
596.92	26887.44
597.122	26504.47
597.325	25695.52
597.528	25890.08
597.73	26873.1
597.933	26488.09
598.136	26002.72
598.338	25853.22
598.541	26307.87
598.743	27184.4
598.946	26635.54
599.148	26381.59
599.351	27004.17
599.554	27016.46
599.756	26555.67
599.959	26731.79
600.161	27381
600.363	27600.13
600.566	26574.1
600.768	26703.12
600.971	27411.72
601.173	27254.03
601.376	26846.48
601.578	26774.8
601.78	27366.67
601.983	27526.41
602.185	26785.04
602.388	26699.03
602.59	27106.57
602.792	27049.23
602.995	27157.77
603.197	26754.32
603.399	27639.04
603.601	27393.29
603.804	27002.13
604.006	27368.71
604.208	26928.4
604.41	27340.04
604.613	27079.95
604.815	27098.38
605.017	28218.62
605.219	27376.9
605.421	27372.81
605.623	27569.41
605.826	28265.72
606.028	28038.4
606.23	27309.32
606.432	27145.48
606.634	28235
606.836	27854.08
607.038	27438.34
607.24	27593.99
607.442	27534.6
607.644	27766.02
607.846	27565.32
608.048	27366.67
608.25	28056.83
608.452	27587.85
608.654	27536.65
608.856	27245.83
609.058	27819.27
609.26	28292.35
609.462	27692.29
609.664	27946.24
609.866	28456.18
610.067	28355.83
610.269	27841.79
610.471	27755.78
610.673	27985.15
610.875	28697.84
611.077	27907.33
611.278	27780.35
611.48	27979.01
611.682	28478.71
611.884	28087.55
612.085	27852.03
612.287	28153.09
612.489	28093.69
612.69	27862.27
612.892	28103.93
613.094	28597.49
613.295	28245.24
613.497	27727.11
613.699	27862.27
613.9	28706.04
614.102	28708.08
614.304	27809.03
614.505	27567.37
614.707	28425.46
614.908	27927.81
615.11	28216.57
615.311	27948.29
615.513	28445.94
615.714	28472.57
615.916	28071.17
616.117	28146.94
616.319	28366.07
616.52	28718.32
616.722	28128.51
616.923	28216.57
617.124	29021.42
617.326	28701.94
617.527	28159.23
617.729	28468.47
617.93	28781.81
618.131	29019.38
618.333	28431.61
618.534	28411.13
618.735	28409.08
618.937	28949.74
619.138	28220.67
619.339	28396.79
619.54	29039.86
619.742	28751.09
619.943	28527.86
620.144	28724.47
620.345	29244.65
620.546	29082.86
620.748	28747
620.949	28667.13
621.15	29023.47
621.351	28867.83
621.552	28841.2
621.753	28505.34
621.954	28626.17
622.155	29408.49
622.356	28632.31
622.558	28873.97
622.759	28833.01
622.96	29302
623.161	28564.73
623.362	28642.55
623.563	29263.08
623.764	29017.33
623.965	28706.04
624.166	29226.22
624.366	28919.03
624.567	29459.69
624.768	28933.36
624.969	28640.5
625.17	29445.35
625.371	29437.16
625.572	28996.85
625.773	28566.77
625.973	29709.54
626.174	30043.36
626.375	29414.63
626.576	29279.47
626.777	29365.48
626.977	29965.54
627.178	29195.5
627.379	29297.9
627.58	29277.42
627.78	29484.26
627.981	29115.63
628.182	29435.11
628.382	29609.19
628.583	29027.57
628.784	29572.33
628.984	29502.7
629.185	29523.18
629.386	29523.18
629.586	29437.16
629.787	29398.25
629.987	29773.03
630.188	29803.75
630.388	29269.23
630.589	29185.26
630.79	30180.57
630.99	29697.25
631.191	29488.36
631.391	29990.11
631.591	29922.53
631.792	30100.7
631.992	29871.33
632.193	29902.05
632.393	30282.97
632.594	29828.32
632.794	29838.56
632.994	29703.4
633.195	30422.23
633.395	30000.35
633.595	30029.02
633.796	29887.71
633.996	30156
634.196	30305.5
634.397	29863.14
634.597	29687.01
634.797	30246.11
634.997	30416.09
635.198	30182.62
635.398	29875.43
635.598	30723.29
635.798	30860.5
635.998	29949.15
636.199	29922.53
636.399	30227.68
636.599	30186.72
636.799	29934.82
636.999	30319.84
637.199	30498.01
637.399	30739.67
637.599	30272.73
637.799	30096.61
637.999	30325.98
638.199	31139.02
638.399	29957.35
638.599	29973.73
638.799	30860.5
638.999	31315.15
639.199	30731.48
639.399	30594.26
639.599	31186.13
639.799	30330.08
639.999	30407.9
640.199	30289.12
640.399	30584.02
640.599	30192.86
640.799	30581.98
640.998	31018.19
641.198	31126.74
641.398	30649.56
641.598	30850.26
641.798	30287.07
641.997	31511.75
642.197	30543.06
642.397	30921.94
642.597	30807.25
642.796	31028.43
642.996	31427.79
643.196	30837.97
643.395	30495.96
643.595	30864.6
643.795	30526.68
643.994	30803.16
644.194	30786.77
644.394	31734.98
644.593	31435.98
644.793	30711
644.992	31376.59
645.192	31206.61
645.392	30766.29
645.591	30979.28
645.791	31292.62
645.99	31405.26
646.19	31263.95
646.389	31251.66
646.589	31104.21
646.788	31519.95
646.987	31358.16
647.187	31462.6
647.386	31405.26
647.586	31700.17
647.785	31769.8
647.984	31421.64
648.184	31210.7
648.383	31632.58
648.582	31487.18
648.782	31216.85
648.981	31833.28
649.18	31390.92
649.38	31689.93
649.579	31648.97
649.778	31534.28
649.977	32249.02
650.177	31757.51
650.376	31282.38
650.575	31149.26
650.774	32259.26
650.973	31612.1
651.173	31159.5
651.372	31460.55
651.571	32134.34
651.77	31847.62
651.969	31782.09
652.168	31812.81
652.367	31784.13
652.566	32120
652.765	31825.09
652.964	32150.72
653.163	32459.96
653.362	31900.87
653.561	31511.75
653.76	31886.53
653.959	31741.13
654.158	32072.9
654.357	32060.61
654.556	31544.52
654.755	32318.65
654.954	32558.27
655.153	32087.23
655.352	32050.37
655.551	32332.99
655.749	32455.87
655.948	31788.23
656.147	32185.54
656.346	32578.75
656.545	32322.75
656.743	32042.18
656.942	31851.72
657.141	32447.68
657.34	32113.86
657.538	32079.04
657.737	32076.99
657.936	32466.11
658.135	32425.15
658.333	32263.36
658.532	32765.11
658.731	32779.45
658.929	32640.18
659.128	32076.99
659.326	32265.41
659.525	32967.86
659.724	32347.33
659.922	32052.42
660.121	32343.23
660.319	32615.61
660.518	31968.45
660.716	32484.54
660.915	32314.56
661.113	33236.14
661.312	32535.74
661.51	32863.41
661.709	32160.96
661.907	32646.33
662.105	33217.71
662.304	32472.25
662.502	32498.87
662.701	32994.48
662.899	32539.83
663.097	32795.83
663.296	32353.47
663.494	33090.74
663.692	33205.42
663.891	32576.7
664.089	32384.19
664.287	32890.04
664.485	32959.67
664.684	32529.59
664.882	32566.46
665.08	33057.97
665.278	32963.76
665.476	32345.28
665.675	33172.66
665.873	33029.3
666.071	33092.79
666.269	32058.56
666.467	32486.59
666.665	32795.83
666.863	32447.68
667.061	32806.07
667.259	32578.75
667.457	33223.86
667.655	33117.36
667.853	32275.65
668.051	32545.98
668.249	32599.23
668.447	32558.27
668.645	32316.61
668.843	32810.17
669.041	33088.69
669.239	32699.58
669.437	32625.85
669.635	33070.26
669.833	32873.65
670.031	32980.15
670.229	32545.98
670.426	32830.65
670.624	32896.18
670.822	32666.81
671.02	33045.68
671.218	32697.53
671.415	32840.89
671.613	32685.24
671.811	32806.07
672.009	32595.13
672.206	32914.61
672.404	32959.67
672.602	32754.87
672.799	32535.74
672.997	33068.21
673.195	32969.91
673.392	32797.88
673.59	32545.98
673.788	33123.51
673.985	31964.35
674.183	32670.9
674.38	32582.84
674.578	33082.55
674.775	32683.19
674.973	32330.94
675.17	32386.24
675.368	33207.47
675.565	32949.43
675.763	32435.39
675.96	32588.99
676.158	32906.42
676.355	32586.94
676.553	32793.78
676.75	32361.66
676.947	32765.11
677.145	32726.2
677.342	32328.89
677.539	32486.59
677.737	32791.73
677.934	33008.82
678.131	32664.76
678.329	32431.29
678.526	33434.8
678.723	32974
678.92	32885.94
679.118	32675
679.315	32048.32
679.512	33049.78
679.709	32738.49
679.906	32636.09
680.104	33348.78
680.301	32584.89
680.498	32199.87
680.695	31950.02
680.892	32382.14
681.089	32443.58
681.286	32517.31
681.483	32201.92
681.68	32631.99
681.877	32867.51
682.075	32445.63
682.272	32058.56
682.469	32748.73
682.665	32120
682.862	31933.64
683.059	31935.68
683.256	32832.69
683.453	32560.31
683.65	32539.83
683.847	32410.81
684.044	31956.16
684.241	32124.1
684.438	32289.98
684.635	32152.77
684.831	33103.03
685.028	32580.79
685.225	32062.66
685.422	32179.39
685.619	32349.37
685.815	32240.83
686.012	31911.11
686.209	31790.28
686.405	32070.85
686.602	32814.26
686.799	31823.05
686.996	31950.02
687.192	31610.06
687.389	32521.4
687.586	31892.68
687.782	31950.02
687.979	32523.45
688.175	32416.96
688.372	31839.43
688.568	32117.95
688.765	31829.19
688.962	32545.98
689.158	32148.67
689.355	31788.23
689.551	32181.44
689.748	31900.87
689.944	32038.08
690.14	31669.45
690.337	32079.04
690.533	31788.23
690.73	31352.01
690.926	32451.77
691.123	31980.74
691.319	32122.05
691.515	31667.4
691.712	31786.18
691.908	32021.7
692.104	31845.57
692.301	32128.19
692.497	31366.35
692.693	32101.57
692.889	32224.45
693.086	31550.67
693.282	31415.5
693.478	31550.67
693.674	32324.8
693.87	31540.43
694.067	31464.65
694.263	32130.24
694.459	31868.1
694.655	32066.75
694.851	31745.22
695.047	31921.35
695.243	31894.72
695.439	31427.79
695.635	31503.56
695.831	31550.67
696.027	31730.89
696.224	31345.87
696.42	31591.62
696.615	32109.76
696.811	31935.68
697.007	31378.64
697.203	31354.06
697.399	31644.87
697.595	31739.08
697.791	30971.09
697.987	31499.47
698.183	31284.43
698.379	31087.82
698.575	31558.86
698.77	31321.29
698.966	31636.68
699.162	32013.51
699.358	31216.85
699.554	31321.29
699.749	31585.48
699.945	31884.48
700.141	31292.62
700.337	31204.56
700.532	31306.96
700.728	31057.1
700.924	31038.67
701.119	30659.8
701.315	31286.48
701.511	31202.51
701.706	31567.05
701.902	30491.87
702.097	31294.67
702.293	31685.83
702.489	30934.23
702.684	31218.89
702.88	31202.51
703.075	30866.64
703.271	30952.66
703.466	30678.23
703.662	31032.53
703.857	31589.58
704.053	31235.28
704.248	30950.61
704.443	31313.1
704.639	31010
704.834	30835.92
705.03	31016.15
705.225	31497.42
705.42	31415.5
705.616	31061.2
705.811	30543.06
706.006	30676.18
706.202	30928.08
706.397	30833.88
706.592	30762.2
706.787	31304.91
706.983	30956.75
707.178	31433.93
707.373	31403.21
707.568	31042.77
707.763	31202.51
707.959	30899.41
708.154	30530.78
708.349	30598.36
708.544	31198.41
708.739	30858.45
708.934	30530.78
709.129	31050.96
709.324	30887.12
709.519	30776.53
709.714	30559.45
709.909	31456.46
710.104	30780.63
710.299	30512.35
710.494	30383.32
710.689	31151.31
710.884	30794.96
711.079	30880.98
711.274	30651.61
711.469	31153.36
711.664	30762.2
711.859	30502.11
712.054	30842.07
712.249	30846.16
712.443	31192.27
712.638	30692.57
712.833	30393.56
713.028	30657.75
713.223	30612.7
713.417	30498.01
713.612	30487.77
713.807	30815.44
714.002	31329.48
714.196	30907.6
714.391	30219.49
714.586	30477.53
714.78	30319.84
714.975	30158.05
715.17	30201.05
715.364	30366.94
715.559	30995.67
715.754	29764.84
715.948	30194.91
716.143	30674.13
716.337	30432.47
716.532	30727.38
716.726	30229.73
716.921	30559.45
717.115	30866.64
717.31	29973.73
717.504	30409.95
717.699	30547.16
717.893	30319.84
718.088	29553.9
718.282	29945.06
718.476	29891.81
718.671	29969.63
718.865	29789.41
719.059	29893.86
719.254	30260.44
719.448	30278.88
719.642	31028.43
719.837	29381.87
720.031	30031.07
720.225	30188.77
720.419	29517.03
720.614	29654.25
720.808	29881.57
721.002	29867.23
721.196	29263.08
721.39	29256.94
721.585	29918.43
721.779	29775.08
721.973	29453.55
722.167	28816.63
722.361	29668.58
722.555	30176.48
722.749	29570.28
722.943	29519.08
723.137	29369.58
723.331	29955.3
723.525	29400.3
723.719	29379.82
723.913	29914.34
724.107	29574.38
724.301	29355.24
724.495	29557.99
724.689	30151.9
724.883	29781.22
725.077	29422.83
725.271	29095.15
725.465	29258.99
725.659	29498.6
725.853	29453.55
726.046	28998.9
726.24	29371.63
726.434	29297.9
726.628	29258.99
726.822	29048.05
727.015	30080.22
727.209	29879.52
727.403	29461.74
727.596	29166.83
727.79	29629.67
727.984	29543.66
728.177	29164.78
728.371	29418.73
728.565	29828.32
728.758	29533.42
728.952	29156.59
729.146	29119.73
729.339	29744.36
729.533	29625.57
729.726	29402.35
729.92	28906.74
730.113	29779.17
730.307	29789.41
730.5	29150.45
730.694	29168.88
730.887	29150.45
731.081	29590.76
731.274	28939.51
731.468	28847.35
731.661	29320.43
731.854	29054.19
732.048	29179.12
732.241	29179.12
732.435	29185.26
732.628	29164.78
732.821	29185.26
733.014	29119.73
733.208	28988.66
733.401	29689.06
733.594	28767.48
733.788	29138.16
733.981	29529.32
734.174	29496.55
734.367	28986.61
734.56	29013.23
734.754	29422.83
734.947	29187.31
735.14	29031.66
735.333	29560.04
735.526	29789.41
735.719	29035.76
735.912	28972.27
736.105	28996.85
736.298	29345
736.491	28947.7
736.684	28691.7
736.877	28747
737.07	29396.2
737.263	29142.25
737.456	29277.42
737.649	28765.43
737.842	28937.46
738.035	29228.27
738.228	28718.32
738.421	28792.05
738.614	29631.72
738.807	29172.97
739	28525.82
739.192	28914.93
739.385	29062.38
739.578	29144.3
739.771	29054.19
739.964	28617.97
740.156	29701.35
740.349	28824.82
740.542	29031.66
740.735	28792.05
740.927	29052.14
741.12	28804.34
741.313	28775.67
741.505	29166.83
741.698	29148.4
741.891	29211.88
742.083	28839.15
742.276	29017.33
742.468	29199.6
742.661	28904.69
742.854	28646.65
743.046	28706.04
743.239	29271.28
743.431	28882.16
743.624	28769.52
743.816	28493.05
744.009	29236.46
744.201	28732.66
744.393	28998.9
744.586	28507.38
744.778	29144.3
744.971	28820.72
745.163	28720.37
745.355	28425.46
745.548	28742.9
745.74	28615.93
745.932	28548.34
746.125	28531.96
746.317	29543.66
746.509	28538.1
746.702	28591.35
746.894	28388.6
747.086	28828.91
747.278	29046
747.471	28554.49
747.663	28497.14
747.855	28925.17
748.047	28679.41
748.239	28218.62
748.431	28343.55
748.623	29037.81
748.815	28798.2
749.008	28372.22
749.2	28235
749.392	28775.67
749.584	28583.16
749.776	28331.26
749.968	28134.65
750.16	28804.34
750.352	28171.52
750.544	27995.39
750.736	27880.71
750.928	28321.02
751.12	28232.96
751.311	28005.63
751.503	28210.43
751.695	28462.33
751.887	28458.23
752.079	27923.71
752.271	27700.48
752.463	29011.18
752.654	28259.58
752.846	28222.72
753.038	27882.75
753.23	28022.02
753.421	28134.65
753.613	27813.12
753.805	28323.07
753.997	28355.83
754.188	28146.94
754.38	27632.9
754.572	27950.34
754.763	27903.23
754.955	28112.13
755.146	27972.86
755.338	27657.48
755.53	27987.2
755.721	27864.32
755.913	27614.47
756.104	27288.84
756.296	27751.68
756.487	27739.4
756.679	27555.08
756.87	27272.46
757.062	27104.53
757.253	27469.06
757.445	27581.7
757.636	27194.64
757.827	27745.54
758.019	27995.39
758.21	26932.5
758.401	27102.48
758.593	27905.28
758.784	27559.17
758.975	26680.6
759.167	27401.48
759.358	27264.27
759.549	27718.92
759.74	26754.32
759.932	27381
760.123	27624.71
760.314	26955.02
760.505	27143.44
760.696	26807.57
760.888	27798.79
761.079	27082
761.27	26750.23
761.461	26572.05
761.652	27421.96
761.843	27413.77
762.034	26643.73
762.225	27008.27
762.416	27077.9
762.607	27153.68
762.798	26543.38
762.989	26770.71
763.18	27823.36
763.371	26615.06
763.562	26510.61
763.753	26514.71
763.944	26860.82
764.135	26893.58
764.326	26713.36
764.517	26410.26
764.708	26494.23
764.899	26602.77
765.089	26488.09
765.28	25951.52
765.471	26369.3
765.662	26613.01
765.853	25924.9
766.043	25935.13
766.234	26547.48
766.425	26717.46
766.615	25939.23
766.806	26092.83
766.997	26662.16
767.187	25976.09
767.378	26213.66
767.569	25634.08
767.759	25980.19
767.95	26463.51
768.141	26064.16
768.331	25632.04
768.522	25992.48
768.712	26402.07
768.903	25916.7
769.093	25568.55
769.284	26680.6
769.474	25838.88
769.665	25593.12
769.855	25228.59
770.046	26305.82
770.236	25613.6
770.426	25638.18
770.617	25208.11
770.807	25857.31
770.998	25707.81
771.188	25335.08
771.378	25175.34
771.569	25937.18
771.759	25871.65
771.949	25087.28
772.139	25064.75
772.33	25509.16
772.52	25976.09
772.71	25304.36
772.9	25079.08
773.09	25865.5
773.281	25738.53
773.471	24933.68
773.661	25044.27
773.851	25509.16
774.041	25044.27
774.231	24956.21
774.421	24890.67
774.611	25593.12
774.802	25249.07
774.992	24792.37
775.182	24898.86
775.372	25271.59
775.562	25455.91
775.752	24814.9
775.942	24673.59
776.131	25263.4
776.321	25079.08
776.511	24540.47
776.701	24597.81
776.891	25058.6
777.081	24644.91
777.271	24614.2
777.461	24587.57
777.651	24692.02
777.84	24939.82
778.03	24505.65
778.22	24583.48
778.41	24970.54
778.599	24456.5
778.789	24667.44
778.979	24268.09
779.169	24513.84
779.358	24517.94
779.548	24538.42
779.738	24110.39
779.927	24677.68
780.117	24517.94
780.307	24223.03
780.496	23964.99
780.686	24657.2
780.875	24632.63
781.065	24069.44
781.254	24126.78
781.444	24223.03
781.633	24239.42
781.823	23807.3
782.012	23950.65
782.202	23952.7
782.391	24212.79
782.581	23588.16
782.77	24362.29
782.96	24278.33
783.149	23885.12
783.338	23567.68
783.528	23616.83
783.717	23971.13
783.906	24159.55
784.096	23663.94
784.285	23457.09
784.474	23401.8
784.663	23496
784.853	23352.65
785.042	23313.73
785.231	23465.28
785.42	24003.9
785.61	23473.48
785.799	23188.81
785.988	23305.54
786.177	23426.37
786.366	23420.23
786.555	23952.7
786.744	23647.55
786.933	23311.69
787.122	23233.86
787.312	23240.01
787.501	23250.25
787.69	23391.56
787.879	23385.41
788.068	23014.73
788.257	22826.32
788.445	23106.89
788.634	23635.27
788.823	23067.98
789.012	24081.72
789.201	23553.35
789.39	22629.71
789.579	22867.28
789.768	22986.06
789.957	23092.55
790.145	22951.24
790.334	22521.17
790.523	22971.72
790.712	22830.41
790.9	23123.27
791.089	22605.14
791.278	23168.33
791.467	22961.48
791.655	22922.57
791.844	22863.18
792.033	22883.66
792.221	22715.73
792.41	22863.18
792.599	22402.39
792.787	23096.65
792.976	23088.46
793.164	22101.34
793.353	22502.74
793.541	23055.69
793.73	22842.7
793.918	22652.24
794.107	22375.77
794.295	22551.89
794.484	22543.7
794.672	22175.06
794.861	22308.18
795.049	22615.38
795.238	22867.28
795.426	21929.31
795.614	22259.03
795.803	22568.27
795.991	22873.42
796.179	21988.7
796.368	21886.3
796.556	22736.21
796.744	22123.87
796.932	22130.01
797.121	21722.46
797.309	22482.26
797.497	22422.87
797.685	22310.23
797.874	22154.58
798.062	22328.66
798.25	22609.23
798.438	21949.79
798.626	22017.37
798.814	22492.5
799.002	22721.87
799.19	22355.29
799.378	22359.38
799.566	22492.5
799.755	22711.63
799.943	22201.69
800.131	21822.81
800.318	22218.07
800.506	22412.63
800.694	21785.95
800.882	22009.18
801.07	22570.32
801.258	22355.29
801.446	21912.92
801.634	21722.46
801.822	22404.44
802.01	22398.29
802.197	22148.44
802.385	22306.13
802.573	22426.96
802.761	22234.46
802.949	21978.46
803.136	21929.31
803.324	22629.71
803.512	22388.05
803.699	22033.75
803.887	21994.84
804.075	22961.48
804.262	22343
804.45	22320.47
804.638	21970.27
804.825	22418.77
805.013	22392.15
805.201	22680.91
805.388	22095.19
805.576	22445.4
805.763	23084.36
805.951	22056.28
806.138	22576.47
806.326	23031.12
806.513	22588.75
806.701	22332.76
806.888	22519.12
807.075	22615.38
807.263	23141.71
807.45	22500.69
807.638	22758.74
807.825	23174.47
808.012	22449.49
808.2	22455.64
808.387	22631.76
808.574	22854.99
808.761	22936.91
808.949	22623.57
809.136	22410.58
809.323	22967.63
809.51	22848.85
809.698	22953.29
809.885	22609.23
810.072	22965.58
810.259	23086.41
810.446	22826.32
810.633	22582.61
810.82	23207.24
811.008	23276.87
811.195	22799.69
811.382	22660.43
811.569	22900.05
811.756	22523.22
811.943	22695.25
812.13	22799.69
812.317	22736.21
812.504	22984.01
812.691	22674.77
812.878	22512.98
813.064	23285.06
813.251	22998.35
813.438	22517.08
813.625	22740.3
813.812	22656.34
813.999	22990.16
814.186	22697.3
814.372	22490.45
814.559	22934.86
814.746	22967.63
814.933	22529.36
815.12	22881.61
815.306	22615.38
815.493	22482.26
815.68	22586.71
815.866	22646.1
816.053	23344.45
816.24	23332.17
816.426	22791.5
816.613	22533.46
816.799	22822.22
816.986	23186.76
817.173	22277.46
817.359	22304.09
817.546	22664.53
817.732	22449.49
817.919	22039.9
818.105	22627.67
818.292	22785.36
818.478	22926.67
818.665	22898
818.851	22607.19
819.037	23274.82
819.224	22820.17
819.41	22273.37
819.597	22256.98
819.783	22957.39
819.969	22613.33
820.156	22388.05
820.342	22308.18
820.528	23342.41
820.714	22424.92
820.901	22619.47
821.087	22181.21
821.273	22801.74
821.459	22306.13
821.646	22041.95
821.832	22570.32
822.018	22695.25
822.204	22555.99
822.39	22306.13
822.576	21835.1
822.762	22431.06
822.948	22271.32
823.134	22160.73
823.32	21843.29
823.507	22119.77
823.693	22748.5
823.879	22535.51
824.065	22193.5
824.25	22584.66
824.436	21847.39
824.622	21890.4
824.808	22023.51
824.994	21880.16
825.18	21636.45
825.366	21480.8
825.552	21599.59
825.738	22052.19
825.923	22082.91
826.109	21972.32
826.295	21613.92
826.481	21886.3
826.667	21747.04
826.852	21673.31
827.038	21663.07
827.224	21943.64
827.409	22068.57
827.595	21488.99
827.781	21730.66
827.966	21914.97
828.152	21925.21
828.338	21185.9
828.523	20983.15
828.709	21402.98
828.894	22013.27
829.08	21390.69
829.266	21046.63
829.451	21288.29
829.637	21423.46
829.822	21542.24
830.008	21081.45
830.193	21523.81
830.378	21822.81
830.564	21233
830.749	21063.02
830.935	21351.78
831.12	21165.42
831.305	21079.4
831.491	20870.51
831.676	20954.47
831.861	21222.76
832.047	20917.61
832.232	21116.26
832.417	21562.72
832.602	21077.35
832.788	20776.3
832.973	20626.8
833.158	20813.17
833.343	21138.79
833.528	20737.39
833.714	20739.44
833.899	20821.36
834.084	21278.05
834.269	20868.46
834.454	20546.93
834.639	21095.78
834.824	20780.4
835.009	20905.32
835.194	20634.99
835.379	21163.37
835.564	20948.33
835.749	20727.15
835.934	20237.69
836.119	20977
836.304	20548.98
836.489	20194.68
836.674	20483.44
836.859	20487.54
837.044	21251.43
837.228	20288.89
837.413	20192.63
837.598	20968.81
837.783	20796.78
837.968	20411.76
838.152	19838.33
838.337	19862.91
838.522	20626.8
838.707	20626.8
838.891	19981.69
839.076	20225.4
839.261	20399.48
839.445	20094.33
839.63	20098.42
839.815	20477.3
839.999	19918.2
840.184	19815.8
840.368	19432.83
840.553	20397.43
840.737	20020.6
840.922	19621.25
841.106	19789.18
841.291	19948.92
841.475	20202.87
841.66	19844.48
841.844	19658.11
842.029	20786.54
842.213	19711.36
842.397	19625.34
842.582	19131.78
842.766	20419.96
842.951	20026.75
843.135	19445.12
843.319	19164.55
843.504	19760.51
843.688	20069.75
843.872	19236.23
844.056	19469.7
844.241	19783.04
844.425	19514.75
844.609	19455.36
844.793	19307.91
844.977	19697.02
845.161	19504.51
845.346	19090.82
845.53	19101.06
845.714	19709.31
845.898	19533.18
846.082	18982.28
846.266	19113.35
846.45	19631.49
846.634	19289.48
846.818	18976.14
847.002	19125.64
847.186	19266.95
847.37	18931.08
847.554	18959.75
847.738	19150.21
847.922	19166.6
848.106	19367.3
848.29	18492.82
848.473	18793.87
848.657	19103.11
848.841	19363.2
849.025	19105.16
849.209	18630.03
849.392	19094.92
849.576	18883.98
849.76	18324.88
849.944	18666.89
850.127	19342.72
850.311	18490.77
850.495	18589.07
850.678	18273.68
850.862	19158.41
851.046	19037.58
851.229	18763.15
851.413	18292.12
851.596	18736.52
851.78	18707.85
851.964	18599.31
852.147	18443.67
852.331	19250.56
852.514	19004.81
852.698	18451.86
852.881	18115.99
853.065	18949.51
853.248	18537.87
853.431	18292.12
853.615	18187.67
853.798	19053.96
853.982	18511.25
854.165	18388.37
854.348	18242.96
854.532	18154.9
854.715	18226.58
854.898	18144.66
855.081	17886.62
855.265	18613.65
855.448	18539.92
855.631	17917.34
855.814	17939.86
855.997	18478.48
856.181	18216.34
856.364	18177.43
856.547	17900.95
856.73	17962.39
856.913	18199.96
857.096	17790.36
857.279	17821.08
857.462	18066.84
857.645	18099.61
857.828	17831.32
858.011	17839.51
858.194	17759.64
858.377	18115.99
858.56	17415.58
858.743	17589.66
858.926	17358.24
859.109	17776.03
859.292	17624.48
859.475	17278.37
859.658	18132.37
859.841	17753.5
860.023	17218.98
860.206	17175.97
860.389	17692.06
860.572	18062.74
860.755	17411.49
860.937	17436.06
861.12	17452.45
861.303	17780.12
861.486	17464.74
861.668	16987.56
861.851	17192.36
862.034	17182.12
862.216	17128.87
862.399	16627.12
862.581	17296.8
862.764	17302.95
862.947	16549.29
863.129	16782.76
863.312	16604.59
863.494	17497.5
863.677	16948.65
863.859	16786.86
864.042	17288.61
864.224	17468.83
864.406	16825.77
864.589	16375.22
864.771	16930.22
864.954	16473.52
865.136	16598.45
865.318	16567.73
865.501	16987.56
865.683	16203.19
865.865	16291.25
866.048	16297.39
866.23	16758.19
866.412	16410.03
866.594	16213.43
866.777	16496.05
866.959	16657.84
867.141	16668.08
867.323	16477.62
867.505	16248.24
867.687	16395.7
867.869	16584.11
868.052	16151.99
868.234	16342.45
868.416	16520.62
868.598	16651.69
868.78	15867.32
868.962	16061.88
869.144	16817.58
869.326	16547.25
869.508	16174.52
869.69	16184.76
869.872	15965.62
870.054	16670.12
870.236	15861.18
870.417	16096.69
870.599	16289.2
870.781	16721.32
870.963	16108.98
871.145	15850.94
871.327	16076.21
871.508	16303.54
871.69	16002.49
871.872	16025.01
872.054	16389.55
872.235	16268.72
872.417	16031.16
872.599	15824.31
872.78	16948.65
872.962	16188.85
873.144	15750.59
873.325	15924.66
873.507	16541.1
873.689	16072.12
873.87	15766.97
874.052	16078.26
874.233	16211.38
874.415	16364.98
874.596	15959.48
874.778	15644.09
874.959	16334.26
875.141	16512.43
875.322	15939
875.503	15756.73
875.685	16432.56
875.866	15640
876.048	16006.58
876.229	15650.24
876.41	15822.27
876.592	16274.87
876.773	15871.42
876.954	15824.31
877.136	16743.85
877.317	16149.94
877.498	15932.86
877.679	16084.41
877.86	16057.78
878.042	16231.86
878.223	16012.73
878.404	16584.11
878.585	16575.92
878.766	16649.64
878.947	16274.87
879.128	16192.95
879.309	16455.09
879.49	16389.55
879.672	16301.49
879.853	16225.72
880.034	15984.05
880.215	16614.83
880.396	16233.91
880.576	16301.49
880.757	16371.12
880.938	16756.14
881.119	16164.28
881.3	16354.74
881.481	16547.25
881.662	17452.45
881.843	16100.79
882.023	15830.46
882.204	16604.59
882.385	16674.22
882.566	16395.7
882.747	16469.42
882.927	16606.64
883.108	16704.94
883.289	16590.25
883.469	16684.46
883.65	16620.97
883.831	16919.98
884.011	16696.75
884.192	16764.33
884.373	17046.95
884.553	17001.9
884.734	17085.86
884.914	17065.38
885.095	17771.93
885.275	17188.26
885.456	17126.82
885.636	16805.29
885.817	17149.35
885.997	16911.78
886.178	16620.97
886.358	16819.63
886.538	17059.24
886.719	18083.22
886.899	16967.08
887.08	17032.61
887.26	17337.76
887.44	16745.9
887.621	16985.51
887.801	16944.55
887.981	17849.75
888.161	17509.79
888.342	17173.92
888.522	16872.87
888.702	17370.53
888.882	17823.13
889.062	17157.54
889.242	16901.54
889.423	17610.14
889.603	17452.45
889.783	17378.72
889.963	17085.86
890.143	17618.33
890.323	17421.73
890.503	17253.8
890.683	17290.66
890.863	17415.58
891.043	17597.85
891.223	17341.86
891.403	17274.28
891.583	17690.01
891.763	17606.05
891.943	17268.13
892.122	17128.87
892.302	17608.09
892.482	17700.25
892.662	17173.92
892.842	17352.1
893.022	17655.2
893.201	17184.16
893.381	17567.13
893.561	17139.11
893.741	17757.6
893.92	17579.42
894.1	17458.59
894.28	17235.36
894.459	17716.64
894.639	17659.29
894.819	17210.79
894.998	17350.05
895.178	17505.7
895.357	17530.27
895.537	17259.94
895.716	16731.56
895.896	17409.44
896.075	17882.52
896.255	17218.98
896.434	16772.52
896.614	17563.04
896.793	17960.34
896.973	17214.88
897.152	17055.14
897.331	17544.61
897.511	17563.04
897.69	16942.5
897.87	17231.27
898.049	17556.89
898.228	17391.01
898.407	16940.46
898.587	17151.4
898.766	17165.73
898.945	17393.06
899.124	17202.6
899.304	17126.82
899.483	17440.16
899.662	17513.89
899.841	16995.75
900.02	16647.6
900.199	17634.72
900.378	17227.17
900.557	16731.56
900.737	16600.49
900.916	17309.09
901.095	17184.16
901.274	17055.14
901.453	16772.52
901.632	16723.37
901.811	16688.56
901.989	16723.37
902.168	16618.93
902.347	16946.6
902.526	16774.57
902.705	16305.59
902.884	16704.94
903.063	17157.54
903.242	17018.28
903.42	16467.38
903.599	16899.5
903.778	17124.77
903.957	17231.27
904.135	16784.81
904.314	16731.56
904.493	16844.2
904.672	16924.07
904.85	16481.71
905.029	16301.49
905.207	16625.07
905.386	17436.06
905.565	16262.58
905.743	16223.67
905.922	16412.08
906.1	16805.29
906.279	15992.25
906.457	16108.98
906.636	16297.39
906.814	16358.83
906.993	16045.49
907.171	15859.13
907.35	16436.66
907.528	16655.79
907.707	16018.87
907.885	15826.36
908.063	16512.43
908.242	16192.95
908.42	15807.93
908.598	15424.96
908.777	16020.92
908.955	15830.46
909.133	15924.66
909.311	15648.19
909.49	15861.18
909.668	15871.42
909.846	15771.07
910.024	15259.07
910.202	15769.02
910.38	16027.06
910.559	15330.75
910.737	15461.82
910.915	15762.87
911.093	15568.32
911.271	15295.94
911.449	15549.89
911.627	15701.44
911.805	15971.77
911.983	15031.75
912.161	15101.38
912.339	15558.08
912.517	15654.33
912.695	15142.34
912.872	14912.97
913.05	14996.93
913.228	15175.11
913.406	14816.71
913.584	14761.42
913.762	14902.73
913.939	14855.62
914.117	14691.79
914.295	14886.34
914.473	14953.93
914.65	15097.28
914.828	14550.48
915.006	14650.83
915.184	14509.52
915.361	14646.73
915.539	14880.2
915.716	14777.8
915.894	14740.94
916.072	15023.56
916.249	14312.91
916.427	14431.69
916.604	14464.46
916.782	14530
916.959	14003.67
917.137	14011.86
917.314	14323.15
917.492	14310.86
917.669	14288.34
917.847	14083.54
918.024	14282.19
918.201	13807.06
918.379	13866.46
918.556	13819.35
918.733	14249.43
918.911	13983.19
919.088	14169.55
919.265	13841.88
919.442	14321.1
919.62	13964.76
919.797	13628.89
919.974	13420
920.151	13946.33
920.328	13690.33
920.506	13348.32
920.683	13835.74
920.86	13420
921.037	13411.81
921.214	13250.02
921.391	13307.36
921.568	13585.88
921.745	13051.36
921.922	13362.65
922.099	13237.73
922.276	13702.62
922.453	13430.24
922.63	12889.57
922.807	13307.36
922.984	13225.44
923.161	12934.63
923.338	13137.38
923.514	12883.43
923.691	13168.1
923.868	12959.2
924.045	12711.4
924.222	12565.99
924.399	13200.87
924.575	13178.34
924.752	12568.04
924.929	12668.39
925.105	12801.51
925.282	12303.85
925.459	12393.97
925.635	12484.08
925.812	12471.79
925.989	12205.55
926.165	12154.35
926.342	11888.12
926.518	11978.23
926.695	12408.3
926.871	12082.67
927.048	11980.28
927.224	12158.45
927.401	12039.67
927.577	11843.06
927.754	11566.59
927.93	12185.07
928.107	12133.87
928.283	11621.88
928.459	11949.56
928.636	12125.68
928.812	11679.22
928.988	11226.62
929.165	11333.12
929.341	11668.98
929.517	11464.19
929.693	11513.34
929.87	10741.25
930.046	11320.83
930.222	11169.28
930.398	11130.37
930.574	11226.62
930.751	11204.1
930.927	10991.11
931.103	11064.83
931.279	10993.15
931.455	10831.37
931.631	10804.74
931.807	10513.93
931.983	10423.82
932.159	10389
932.335	10808.84
932.511	10405.39
932.687	10513.93
932.863	10747.4
933.039	10573.32
933.215	10063.38
933.391	9895.44
933.566	10096.14
933.742	10133.01
933.918	9993.75
934.094	9739.8
934.27	10200.59
934.445	10010.13
934.621	9842.2
934.797	9401.88
934.973	9776.66
935.148	9588.25
935.324	9135.65
935.5	9068.06
935.675	9625.11
935.851	9236
936.027	8605.22
936.202	8687.14
936.378	8934.95
936.553	8791.59
936.729	8881.7
936.904	8334.89
937.08	8011.31
937.255	7745.08
937.431	7808.56
937.606	7667.25
937.782	7704.12
937.957	7706.17
938.133	7501.37
938.308	7347.77
938.483	7460.41
938.659	7175.74
938.834	7116.35
939.009	6850.11
939.185	6948.42
939.36	6757.96
939.535	6284.87
939.71	6649.41
939.886	6901.31
940.061	6745.67
940.236	6401.61
940.411	6180.43
940.586	6516.3
940.761	6463.05
940.937	6026.83
941.112	5887.57
941.287	6245.96
941.462	6106.7
941.637	5787.22
941.812	5817.94
941.987	6082.13
942.162	6047.31
942.337	5926.48
942.512	5516.89
942.687	5916.24
942.862	5903.95
943.037	5254.75
943.212	5013.09
943.386	5545.56
943.561	5594.71
943.736	5287.51
943.911	5611.09
944.086	5631.57
944.26	5627.48
944.435	5330.52
944.61	5492.31
944.785	5678.68
944.959	5887.57
945.134	5193.31
945.309	5058.14
945.483	5344.86
945.658	5731.92
945.833	4882.02
946.007	5029.47
946.182	5611.09
946.357	5215.84
946.531	5017.18
946.706	4945.5
946.88	4992.61
947.055	5234.27
947.229	5097.05
947.404	5023.33
947.578	5531.22
947.752	5492.31
947.927	5025.37
948.101	4943.46
948.276	5422.68
948.45	5469.78
948.624	5287.51
948.799	4877.92
948.973	5348.95
949.147	4781.67
949.321	5013.09
949.496	5248.6
949.67	5561.94
949.844	5174.88
950.018	5119.58
950.193	5049.95
950.367	5746.26
950.541	5279.32
950.715	5283.42
950.889	5336.67
951.063	5346.91
951.237	5447.26
951.411	4953.7
951.585	4888.16
951.759	5385.82
951.933	5316.19
952.107	5115.48
952.281	5443.16
952.455	5641.81
952.629	5455.45
952.803	5201.5
952.977	5041.76
953.151	5445.21
953.325	5457.5
953.499	5174.88
953.672	4933.22
953.846	5131.87
954.02	5232.22
954.194	4943.46
954.368	4869.73
954.541	5422.68
954.715	5101.15
954.889	5140.06
955.062	4869.73
955.236	5238.36
955.41	5140.06
955.583	5037.66
955.757	4994.65
955.93	5123.68
956.104	5035.61
956.278	4978.27
956.451	4998.75
956.625	5316.19
956.798	5633.62
956.972	5338.71
957.145	4857.44
957.319	5228.12
957.492	5131.87
957.665	5183.07
957.839	4918.88
958.012	5305.95
958.185	5109.34
958.359	4896.35
958.532	5215.84
958.705	5189.21
958.879	5142.11
959.052	5027.42
959.225	4656.74
959.398	5156.44
959.572	5234.27
959.745	4925.02
959.918	4857.44
960.091	5019.23
960.264	5260.89
960.438	4810.34
960.611	4853.34
960.784	5205.6
960.957	4822.63
961.13	5240.41
961.303	4824.67
961.476	5037.66
961.649	5158.49
961.822	4605.54
961.995	4818.53
962.168	5097.05
962.341	4994.65
962.514	4763.23
962.686	4769.38
962.859	4890.21
963.032	5095
963.205	4650.6
963.378	4554.34
963.551	4953.7
963.723	5037.66
963.896	4806.24
964.069	4929.12
964.242	4845.15
964.414	5086.81
964.587	4836.96
964.76	4869.73
964.932	4959.84
965.105	4949.6
965.278	4609.64
965.45	4722.27
965.623	4873.82
965.795	5017.18
965.968	4658.79
966.14	4632.16
966.313	4839.01
966.485	4896.35
966.658	4656.74
966.83	4490.85
967.003	5164.64
967.175	4920.93
967.348	4537.96
967.52	4488.81
967.692	5369.43
967.865	4763.23
968.037	4537.96
968.209	4955.74
968.382	4714.08
968.554	4929.12
968.726	4632.16
968.898	4390.5
969.071	4699.75
969.243	4773.47
969.415	4480.61
969.587	4558.44
969.759	5183.07
969.932	4894.3
970.104	4490.85
970.276	4175.47
970.448	4628.07
970.62	4501.09
970.792	4521.57
970.964	4540.01
971.136	5125.72
971.308	4537.96
971.48	4331.11
971.652	4441.7
971.824	4972.13
971.996	4419.18
972.168	4228.71
972.339	4314.73
972.511	4832.86
972.683	4464.23
972.855	4525.67
973.027	4226.67
973.199	4568.68
973.37	4685.41
973.542	4460.13
973.714	4519.53
973.886	4566.63
974.057	4718.18
974.229	4140.65
974.401	4236.91
974.572	4175.47
974.744	3962.48
974.915	4167.28
975.087	4206.19
975.259	4695.65
975.43	4214.38
975.602	4277.87
975.773	4071.02
975.945	4185.71
976.116	4490.85
976.288	4083.31
976.459	4337.26
976.63	4286.06
976.802	4476.52
976.973	3923.57
977.145	4044.4
977.316	4796
977.487	4533.86
977.659	4263.53
977.83	3993.2
978.001	4664.93
978.172	4206.19
978.344	3919.47
978.515	4126.32
978.686	4025.97
978.857	4449.89
979.028	3909.23
979.2	3948.14
979.371	4386.41
979.542	4204.14
979.713	4126.32
979.884	3528.31
980.055	3989.1
980.226	4249.19
980.397	3876.46
980.568	3829.36
980.739	4462.18
980.91	3927.66
981.081	4019.82
981.252	3886.7
981.423	4273.77
981.594	4290.15
981.765	3673.71
981.936	3874.42
982.106	4046.44
982.277	4243.05
982.448	3739.25
982.619	4058.73
982.79	4023.92
982.96	4279.91
983.131	3886.7
983.302	3538.55
983.472	3935.85
983.643	4040.3
983.814	3909.23
983.984	3712.63
984.155	3704.43
984.326	4101.74
984.496	3817.07
984.667	3591.8
984.837	3706.48
985.008	4081.26
985.178	4009.58
985.349	3640.95
985.519	3686
985.69	3645.04
985.86	3602.04
986.031	3372.66
986.201	3896.94
986.371	3800.69
986.542	3473.01
986.712	3356.28
986.882	3962.48
987.053	4081.26
987.223	3567.22
987.393	3610.23
987.563	3827.31
987.734	3956.33
987.904	3933.81
988.074	3376.76
988.244	3966.57
988.414	3530.36
988.585	3438.2
988.755	3513.97
988.925	3718.77
989.095	4046.44
989.265	3477.11
989.435	3323.51
989.605	3788.4
989.775	3882.61
989.945	3542.64
990.115	3300.98
990.285	3458.68
990.455	3616.37
990.625	3528.31
990.795	3176.06
990.965	3851.89
991.134	3305.08
991.304	3260.02
991.474	3343.99
991.644	3559.03
991.814	3767.92
991.984	3167.87
992.153	3294.84
992.323	3485.3
992.493	3542.64
992.662	3075.71
992.832	3346.04
993.002	3391.09
993.171	3481.21
993.341	3020.41
993.511	3120.76
993.68	3348.09
993.85	3546.74
994.019	2958.97
994.189	3118.72
994.358	3477.11
994.528	3147.39
994.697	2768.51
994.867	2993.79
995.036	3389.05
995.206	3356.28
995.375	3055.23
995.544	3305.08
995.714	3552.88
995.883	3284.6
996.052	3100.28
996.222	2719.36
996.391	3765.87
996.56	3407.48
996.73	2942.59
996.899	2852.48
997.068	3683.95
997.237	3214.97
997.406	2866.81
997.576	2926.21
997.745	3092.09
997.914	3321.46
998.083	2684.55
998.252	2909.82
998.421	3161.72
998.59	2928.25
998.759	2791.04
998.928	2584.2
999.097	3317.37
999.266	3280.5
999.435	2924.16
999.604	2629.25
999.773	3599.99
999.942	3102.33
1000.111	2606.72
1000.28	2520.71
1000.448	2858.62
1000.617	2862.72
1000.786	2832
1000.955	2588.29
1001.124	3120.76
1001.292	3800.69
1001.461	2637.44
1001.63	2578.05
1001.798	3366.52
1001.967	3272.31
1002.136	2596.48
1002.304	2594.44
1002.473	3004.03
1002.642	3088
1002.81	2725.51
1002.979	2582.15
1003.147	3131
1003.316	3286.65
1003.484	2578.05
1003.653	2514.56
1003.821	3067.52
1003.99	2592.39
1004.158	2690.69
1004.327	2678.4
1004.495	2981.5
1004.663	2729.6
1004.832	2762.37
1005	2412.17
1005.168	2907.77
1005.337	2821.76
1005.505	2352.77
1005.673	2647.68
1005.842	2981.5
1006.01	2836.1
1006.178	2336.39
1006.346	2436.74
1006.514	2801.28
1006.683	3075.71
1006.851	2340.49
1007.019	2279.05
1007.187	2358.92
1007.355	2248.33
1007.523	2109.07
1007.691	2227.85
1007.859	2340.49
1008.027	2915.97
1008.195	2338.44
1008.363	2119.31
1008.531	2809.47
1008.699	2324.1
1008.867	2152.07
1009.035	2274.95
1009.203	2913.92
1009.37	2549.38
1009.538	2287.24
1009.706	2569.86
1009.874	2627.2
1010.042	2535.04
1010.209	1953.42
1010.377	2223.75
1010.545	2625.15
1010.713	2528.9
1010.88	2141.83
1011.048	2268.81
1011.216	2453.13
1011.383	2791.04
1011.551	1990.28
1011.718	1973.9
1011.886	2725.51
1012.054	2457.22
1012.221	1928.85
1012.389	2068.11
1012.556	2375.3
1012.724	2737.79
1012.891	2059.92
1013.058	1857.17
1013.226	2569.86
1013.393	2492.04
1013.561	1877.65
1013.728	1795.73
1013.895	2510.47
1014.063	2422.41
1014.23	1750.67
1014.397	1924.75
1014.565	2485.89
1014.732	2199.18
1014.899	2045.58
1015.066	1769.1
1015.233	2395.78
1015.401	2498.18
1015.568	1799.82
1015.735	2025.1
1015.902	2287.24
1016.069	2311.82
1016.236	1840.78
1016.403	1756.82
1016.57	1986.19
1016.737	2438.79
1016.904	1777.3
1017.071	1728.14
1017.238	2068.11
1017.405	2403.97
1017.572	1781.39
1017.739	1908.37
1017.906	2233.99
1018.073	2299.53
1018.24	1674.9
1018.407	1838.73
1018.573	2408.07
1018.74	2127.5
1018.907	1863.31
1019.074	1619.6
1019.241	2305.67
1019.407	2047.63
1019.574	1627.79
1019.741	1633.94
1019.907	2082.44
1020.074	2141.83
1020.241	1482.39
1020.407	1644.18
1020.574	2018.96
1020.74	2037.39
1020.907	1502.87
1021.073	1494.68
1021.24	2483.84
1021.406	2213.51
1021.573	1529.49
1021.739	1609.36
1021.906	2137.74
1022.072	1914.51
1022.239	1662.61
1022.405	1552.02
1022.571	1934.99
1022.738	1707.66
1022.904	1558.16
1023.07	1519.25
1023.237	1969.8
1023.403	2182.79
1023.569	1474.2
1023.735	1552.02
1023.902	1922.7
1024.068	1918.61
1024.234	1353.37
1024.4	1492.63
1024.566	1879.69
1024.732	2006.67
1024.898	1468.05
1025.065	1277.59
1025.231	2018.96
1025.397	1623.7
1025.563	1433.24
1025.729	1310.36
1025.895	1351.32
1026.061	1627.79
1026.227	1269.4
1026.392	1386.13
1026.558	2023.05
1026.724	1832.59
1026.89	1351.32
1027.056	1404.57
1027.222	1801.87
1027.388	1564.31
1027.553	1314.45
1027.719	1246.87
1027.885	2078.35
1028.051	1826.45
1028.216	1064.6
1028.382	1183.38
1028.548	1875.6
1028.713	1592.98
1028.879	1080.99
1029.045	1355.41
1029.21	1857.17
1029.376	1859.21
1029.541	1312.41
1029.707	1224.34
1029.873	1623.7
1030.038	1691.28
1030.204	1314.45
1030.369	1310.36
1030.534	1738.38
1030.7	1377.94
1030.865	1320.6
1031.031	1142.43
1031.196	1635.99
1031.361	1552.02
1031.527	1115.8
1031.692	1126.04
1031.857	1199.77
1032.023	1609.36
1032.188	1029.79
1032.353	1138.33
1032.518	1805.97
1032.684	1474.2
1032.849	913.05
1033.014	1179.29
1033.179	1588.88
1033.344	1642.13
1033.509	1230.49
1033.674	1042.07
1033.839	1683.09
1034.004	1670.8
1034.17	1074.84
1034.335	990.88
1034.5	1351.32
1034.664	1248.92
1034.829	954.01
1034.994	1117.85
1035.159	1406.61
1035.324	1457.81
1035.489	1123.99
1035.654	1068.7
1035.819	1693.33
1035.984	1357.46
1036.148	1130.14
1036.313	956.06
1036.478	1613.46
1036.643	1326.74
1036.807	1013.4
1036.972	843.42
1037.137	1703.57
1037.301	1379.99
1037.466	745.12
1037.631	1048.22
1037.795	1683.09
1037.96	1363.61
1038.124	1023.64
1038.289	751.26
1038.454	1466
1038.618	1494.68
1038.783	884.38
1038.947	978.59
1039.111	1312.41
1039.276	1222.3
1039.44	806.56
1039.605	1199.77
1039.769	1126.04
1039.933	1248.92
1040.098	919.2
1040.262	1109.66
1040.426	1425.04
1040.591	1365.65
1040.755	839.33
1040.919	777.89
1041.083	1263.26
1041.248	1181.34
1041.412	718.5
1041.576	704.16
1041.74	1080.99
1041.904	1377.94
1042.068	646.82
1042.232	847.52
1042.397	1382.04
1042.561	1339.03
1042.725	614.05
1042.889	994.97
1043.053	1322.65
1043.217	1216.15
1043.381	831.13
1043.544	595.62
1043.708	1443.48
1043.872	898.72
1044.036	511.65
1044.2	702.11
1044.364	1388.18
1044.528	1365.65
1044.691	2035.34
1044.855	605.86
1045.019	1328.79
1045.183	1281.69
1045.346	724.64
1045.51	585.38
1045.674	1253.02
1045.837	1244.82
1046.001	734.88
1046.165	671.39
1046.328	1558.16
1046.492	1158.81
1046.655	822.94
1046.819	757.41
1046.983	892.57
1047.146	1164.95
1047.31	720.54
1047.473	519.84
1047.636	966.3
1047.8	806.56
1047.963	636.58
1048.127	556.71
1048.29	818.85
