Data from Ink_Intensity_USB4F045381__23__00023.txt Node

Date: Mon Jul 17 09:43:31 EDT 2023
User: mmckonesweet
Spectrometer: USB4F04538
Trigger mode: 4
Integration Time (sec): 9.000000E-1
Scans to average: 1
Electric dark correction enabled: true
Nonlinearity correction enabled: false
Boxcar width: 0
XAxis mode: Wavelengths
Number of Pixels in Spectrum: 3648
>>>>>Begin Spectral Data<<<<<
345.52	-963.91
345.736	-963.91
345.952	-963.91
346.168	-1021.25
346.384	-935.24
346.6	-191.83
346.816	-267.6
347.032	-216.4
347.248	336.55
347.464	-181.59
347.68	-64.85
347.896	78.51
348.112	375.46
348.328	-87.38
348.544	-21.85
348.76	-1.37
348.975	242.34
349.191	-189.78
349.407	-169.3
349.623	21.16
349.839	-208.21
350.055	-150.87
350.27	51.88
350.486	152.23
350.702	320.17
350.918	180.9
351.133	-177.49
351.349	86.7
351.565	307.88
351.781	-208.21
351.996	12.97
352.212	338.6
352.428	-202.07
352.644	-206.16
352.859	-200.02
353.075	211.62
353.291	-109.91
353.506	-75.09
353.722	-206.16
353.938	-40.28
354.153	414.37
354.369	64.17
354.584	-140.63
354.8	291.49
355.016	-234.83
355.231	-279.89
355.447	-48.47
355.662	31.4
355.878	860.83
356.093	-378.19
356.309	-21.85
356.524	-339.28
356.74	256.68
356.955	-154.96
357.171	-81.24
357.386	47.79
357.602	-249.17
357.817	-101.72
358.033	-228.69
358.248	354.98
358.464	96.94
358.679	-62.8
358.895	-343.38
359.11	19.11
359.325	322.21
359.541	207.53
359.756	-21.85
359.972	-249.17
360.187	137.9
360.402	-114
360.618	-189.78
360.833	944.8
361.048	168.62
361.264	-169.3
361.479	29.35
361.694	-30.04
361.909	125.61
362.125	-134.48
362.34	-177.49
362.555	238.25
362.77	4.78
362.986	-257.36
363.201	-202.07
363.416	125.61
363.631	-132.44
363.847	-107.86
364.062	-220.5
364.277	180.9
364.492	94.89
364.707	-148.82
364.922	-376.14
365.138	256.68
365.353	322.21
365.568	-308.56
365.783	-136.53
365.998	21.16
366.213	494.24
366.428	-261.46
366.643	68.27
366.858	242.34
367.073	291.49
367.288	-122.2
367.503	-261.46
367.718	29.35
367.933	281.25
368.148	-329.04
368.363	-48.47
368.578	-77.14
368.793	357.03
369.008	-144.72
369.223	-218.45
369.438	232.1
369.653	408.23
369.868	-236.88
370.083	-163.15
370.298	39.59
370.513	426.66
370.728	8.87
370.943	-173.39
371.157	-146.77
371.372	522.91
371.587	-277.84
371.802	-247.12
372.017	12.97
372.232	393.89
372.446	-30.04
372.661	-243.03
372.876	199.34
373.091	70.31
373.306	-103.76
373.52	-175.44
373.735	-210.26
373.95	334.5
374.165	-81.24
374.379	-107.86
374.594	-179.54
374.809	135.85
375.023	12.97
375.238	-238.93
375.453	238.25
375.667	-212.31
375.882	-179.54
376.097	-238.93
376.311	-5.46
376.526	-40.28
376.741	-187.73
376.955	90.79
377.17	531.11
377.384	418.47
377.599	-87.38
377.813	-185.68
378.028	572.07
378.242	135.85
378.457	-5.46
378.672	-372.05
378.886	76.46
379.101	-50.52
379.315	-296.27
379.53	-93.52
379.744	115.37
379.958	94.89
380.173	-159.06
380.387	-114
380.602	101.03
380.816	-118.1
381.031	-161.11
381.245	-120.15
381.459	232.1
381.674	2329.22
381.888	-163.15
382.103	64.17
382.317	-193.87
382.531	387.75
382.746	-46.42
382.96	-136.53
383.174	-89.43
383.388	377.51
383.603	66.22
383.817	-273.75
384.031	131.75
384.246	449.19
384.46	-27.99
384.674	387.75
384.888	-13.65
385.103	4.78
385.317	-249.17
385.531	-77.14
385.745	293.54
385.959	287.4
386.174	-228.69
386.388	-230.74
386.602	27.31
386.816	-204.11
387.03	-71
387.244	-122.2
387.458	39.59
387.672	221.86
387.887	-279.89
388.101	-263.51
388.315	363.17
388.529	148.14
388.743	-64.85
388.957	-212.31
389.171	314.02
389.385	-183.63
389.599	-68.95
389.813	127.66
390.027	115.37
390.241	625.31
390.455	-165.2
390.669	-97.62
390.883	-73.04
391.097	404.13
391.311	72.36
391.525	-99.67
391.738	96.94
391.952	203.43
392.166	-87.38
392.38	-142.68
392.594	254.63
392.808	324.26
393.022	-64.85
393.236	-179.54
393.449	193.19
393.663	115.37
393.877	-204.11
394.091	-32.08
394.305	-210.26
394.518	-144.72
394.732	-236.88
394.946	-85.33
395.16	383.65
395.373	107.18
395.587	-144.72
395.801	-116.05
396.015	228.01
396.228	193.19
396.442	-267.6
396.656	-286.03
396.869	316.07
397.083	367.27
397.297	-101.72
397.51	-171.35
397.724	420.52
397.938	125.61
398.151	-275.79
398.365	-216.4
398.578	166.57
398.792	348.84
399.005	-89.43
399.219	-111.96
399.433	92.84
399.646	180.9
399.86	-5.46
400.073	58.03
400.287	260.77
400.5	27.31
400.714	-30.04
400.927	8.87
401.141	248.49
401.354	1004.19
401.567	215.72
401.781	-152.92
401.994	307.88
402.208	535.2
402.421	-208.21
402.635	-52.56
402.848	31.4
403.061	391.84
403.275	-32.08
403.488	-236.88
403.701	479.91
403.915	191.14
404.128	84.65
404.341	-83.28
404.555	187.05
404.768	35.5
404.981	60.07
405.195	-103.76
405.408	490.15
405.621	197.29
405.834	146.09
406.048	-132.44
406.261	322.21
406.474	500.39
406.687	-122.2
406.9	-9.56
407.114	10.92
407.327	129.7
407.54	-148.82
407.753	-218.45
407.966	-79.19
408.179	260.77
408.392	-218.45
408.605	-197.97
408.819	230.06
409.032	178.86
409.245	-161.11
409.458	47.79
409.671	250.53
409.884	242.34
410.097	-269.65
410.31	94.89
410.523	152.23
410.736	70.31
410.949	-122.2
411.162	-46.42
411.375	484
411.588	314.02
411.801	101.03
412.014	-146.77
412.227	4.78
412.44	-19.8
412.653	-154.96
412.865	53.93
413.078	291.49
413.291	156.33
413.504	-13.65
413.717	-197.97
413.93	322.21
414.143	-114
414.356	-107.86
414.568	-306.51
414.781	242.34
414.994	176.81
415.207	-30.04
415.42	41.64
415.632	314.02
415.845	557.73
416.058	-228.69
416.271	-216.4
416.483	82.6
416.696	504.48
416.909	-142.68
417.121	-122.2
417.334	238.25
417.547	555.68
417.759	-191.83
417.972	-124.24
418.185	-111.96
418.397	291.49
418.61	-109.91
418.823	-120.15
419.035	510.63
419.248	72.36
419.46	-11.61
419.673	-46.42
419.885	301.73
420.098	12.97
420.311	-36.18
420.523	-271.7
420.736	242.34
420.948	82.6
421.161	-30.04
421.373	-292.18
421.586	156.33
421.798	-48.47
422.01	-263.51
422.223	21.16
422.435	-79.19
422.648	281.25
422.86	-50.52
423.073	-109.91
423.285	379.56
423.497	-165.2
423.71	-111.96
423.922	-97.62
424.134	299.69
424.347	430.76
424.559	70.31
424.771	191.14
424.984	58.03
425.196	232.1
425.408	-142.68
425.621	-218.45
425.833	320.17
426.045	381.6
426.257	-189.78
426.47	-46.42
426.682	273.06
426.894	217.77
427.106	-118.1
427.318	-71
427.531	78.51
427.743	287.4
427.955	-126.29
428.167	336.55
428.379	291.49
428.591	25.26
428.804	15.02
429.016	-146.77
429.228	29.35
429.44	148.14
429.652	180.9
429.864	-224.59
430.076	51.88
430.288	121.51
430.5	58.03
430.712	8.87
430.924	424.61
431.136	260.77
431.348	-175.44
431.56	-75.09
431.772	62.12
431.984	10.92
432.196	-85.33
432.408	39.59
432.62	23.21
432.832	279.21
433.044	74.41
433.256	182.95
433.468	281.25
433.679	-191.83
433.891	-118.1
434.103	193.19
434.315	516.77
434.527	287.4
434.739	53.93
434.95	29.35
435.162	438.95
435.374	-68.95
435.586	6.83
435.798	-68.95
436.009	-30.04
436.221	74.41
436.433	-36.18
436.645	4.78
436.856	105.13
437.068	432.8
437.28	-7.51
437.491	295.59
437.703	213.67
437.915	178.86
438.126	0.68
438.338	322.21
438.55	232.1
438.761	352.93
438.973	62.12
439.184	-30.04
439.396	199.34
439.608	426.66
439.819	-75.09
440.031	254.63
440.242	316.07
440.454	367.27
440.665	66.22
440.877	111.27
441.088	303.78
441.3	41.64
441.511	-195.92
441.723	-64.85
441.934	271.01
442.146	195.24
442.357	80.55
442.569	289.45
442.78	258.73
442.991	610.98
443.203	309.93
443.414	-159.06
443.626	520.87
443.837	51.88
444.048	35.5
444.26	-75.09
444.471	189.1
444.682	445.09
444.894	-87.38
445.105	-71
445.316	447.14
445.528	295.59
445.739	113.32
445.95	-19.8
446.161	314.02
446.373	457.38
446.584	53.93
446.795	64.17
447.006	365.22
447.217	641.7
447.429	-71
447.64	-66.9
447.851	494.24
448.062	246.44
448.273	-148.82
448.484	-56.66
448.695	404.13
448.907	195.24
449.118	70.31
449.329	314.02
449.54	125.61
449.751	-50.52
449.962	74.41
450.173	27.31
450.384	445.09
450.595	592.55
450.806	121.51
451.017	82.6
451.228	457.38
451.439	391.84
451.65	21.16
451.861	-142.68
452.072	98.99
452.283	221.86
452.494	252.58
452.705	51.88
452.915	602.79
453.126	295.59
453.337	107.18
453.548	-34.13
453.759	467.62
453.97	807.58
454.181	307.88
454.391	123.56
454.602	332.45
454.813	412.32
455.024	152.23
455.235	154.28
455.445	287.4
455.656	393.89
455.867	289.45
456.078	31.4
456.288	146.09
456.499	400.04
456.71	-21.85
456.921	418.47
457.131	297.64
457.342	371.36
457.553	146.09
457.763	47.79
457.974	510.63
458.184	606.88
458.395	-1.37
458.606	60.07
458.816	563.87
459.027	811.68
459.237	244.39
459.448	-105.81
459.659	567.97
459.869	754.34
460.08	53.93
460.29	299.69
460.501	815.77
460.711	215.72
460.922	8.87
461.132	156.33
461.343	950.94
461.553	107.18
461.764	178.86
461.974	135.85
462.184	539.3
462.395	488.1
462.605	217.77
462.816	80.55
463.026	406.18
463.236	711.33
463.447	39.59
463.657	205.48
463.867	748.19
464.078	305.83
464.288	242.34
464.498	209.58
464.709	344.74
464.919	357.03
465.129	285.35
465.339	205.48
465.55	596.64
465.76	635.55
465.97	201.38
466.18	340.65
466.391	670.37
466.601	639.65
466.811	328.36
467.021	168.62
467.231	547.49
467.441	752.29
467.651	365.22
467.862	-9.56
468.072	422.56
468.282	854.69
468.492	230.06
468.702	361.13
468.912	502.43
469.122	1000.09
469.332	637.6
469.542	256.68
469.752	635.55
469.962	637.6
470.172	205.48
470.382	324.26
470.592	715.42
470.802	828.06
471.012	406.18
471.222	307.88
471.432	760.48
471.642	733.86
471.852	502.43
472.062	289.45
472.272	541.35
472.482	326.31
472.691	428.71
472.901	334.5
473.111	637.6
473.321	1186.46
473.531	422.56
473.741	512.67
473.95	799.39
474.16	830.11
474.37	551.59
474.58	389.8
474.79	1041.05
474.999	897.69
475.209	510.63
475.419	422.56
475.628	633.5
475.838	1028.76
476.048	553.63
476.258	428.71
476.467	1036.95
476.677	561.83
476.886	719.52
477.096	690.85
477.306	631.46
477.515	1067.67
477.725	707.23
477.935	674.46
478.144	1114.78
478.354	639.65
478.563	692.9
478.773	533.15
478.982	979.61
479.192	1163.93
479.401	764.57
479.611	641.7
479.82	660.13
480.03	1016.48
480.239	723.62
480.449	631.46
480.658	1266.33
480.868	787.1
481.077	815.77
481.287	819.87
481.496	1094.3
481.705	1413.78
481.915	975.52
482.124	1065.63
482.333	1069.72
482.543	1211.03
482.752	905.88
482.961	774.81
483.171	1266.33
483.38	973.47
483.589	934.56
483.799	823.97
484.008	1043.1
484.217	1239.7
484.426	979.61
484.636	801.44
484.845	1100.44
485.054	750.24
485.263	1299.09
485.472	979.61
485.682	1655.44
485.891	1208.98
486.1	764.57
486.309	1077.91
486.518	1364.63
486.727	1507.99
486.936	932.51
487.146	1165.98
487.355	1620.63
487.564	1122.97
487.773	1077.91
487.982	1045.15
488.191	1122.97
488.4	1299.09
488.609	1069.72
488.818	1190.55
489.027	1823.37
489.236	1647.25
489.445	1178.26
489.654	1163.93
489.863	1579.67
490.072	1333.91
490.281	1501.84
490.49	1065.63
490.698	1688.21
490.907	1649.3
491.116	1225.37
491.325	987.8
491.534	1817.23
491.743	1467.03
491.952	1456.79
492.16	1182.36
492.369	1624.72
492.578	1680.02
492.787	1313.43
492.996	1227.42
493.204	1434.26
493.413	1979.02
493.622	1135.26
493.831	1180.31
494.039	1888.91
494.248	1258.14
494.457	1325.72
494.665	1286.81
494.874	1671.83
495.083	2173.58
495.291	1450.64
495.5	1309.33
495.709	1733.26
495.917	1692.3
496.126	1467.03
496.335	1315.48
496.543	1778.32
496.752	1639.06
496.96	1690.26
497.169	1391.25
497.377	1696.4
497.586	1888.91
497.794	1540.76
498.003	1409.69
498.211	1616.53
498.42	2200.2
498.628	1620.63
498.837	1424.02
499.045	1874.57
499.254	1839.76
499.462	1575.57
499.671	1512.08
499.879	2179.72
500.087	2030.22
500.296	1575.57
500.504	1653.39
500.713	1940.11
500.921	2361.99
501.129	1610.39
501.338	1575.57
501.546	1864.33
501.754	1780.37
501.962	1708.69
502.171	1534.61
502.379	2026.12
502.587	2286.22
502.795	1761.94
503.004	1698.45
503.212	1997.45
503.42	2208.39
503.628	1626.77
503.837	1802.9
504.045	2136.71
504.253	2372.23
504.461	1755.79
504.669	1532.56
504.877	2179.72
505.085	2405
505.294	1606.29
505.502	2101.9
505.71	2062.99
505.918	2189.96
506.126	1675.92
506.334	1704.59
506.542	1991.31
506.75	2177.67
506.958	1897.1
507.166	1895.05
507.374	1917.58
507.582	2521.73
507.79	1979.02
507.998	1817.23
508.206	2255.5
508.414	2175.63
508.622	1806.99
508.83	1911.44
509.037	2478.72
509.245	2019.98
509.453	1872.53
509.661	1811.09
509.869	2235.02
510.077	2206.34
510.285	2065.04
510.492	1577.62
510.7	2693.76
510.908	1983.12
511.116	2073.23
511.324	1792.66
511.531	2187.91
511.739	2206.34
511.947	2146.95
512.155	2318.98
512.362	2321.03
512.57	2015.88
512.778	2042.51
512.985	1913.49
513.193	2505.35
513.401	2622.08
513.608	2065.04
513.816	2136.71
514.024	2427.53
514.231	2554.5
514.439	1958.54
514.646	1991.31
514.854	2550.4
515.061	2605.7
515.269	2155.15
515.477	2167.43
515.684	2157.19
515.892	2613.89
516.099	1995.4
516.307	2067.08
516.514	2669.19
516.722	2855.55
516.929	2202.25
517.136	2142.86
517.344	2665.09
517.551	2585.22
517.759	2228.87
517.966	2220.68
518.173	2321.03
518.381	2396.81
518.588	2427.53
518.796	2241.16
519.003	2763.39
519.21	2591.36
519.418	2271.88
519.625	2499.2
519.832	2509.44
520.039	2531.97
520.247	2105.99
520.454	2364.04
520.661	2744.96
520.868	2656.9
521.076	2460.29
521.283	2386.57
521.49	3166.84
521.697	2613.89
521.904	2462.34
522.112	2450.05
522.319	3005.05
522.526	2812.54
522.733	2370.18
522.94	2241.16
523.147	2617.99
523.354	2867.84
523.561	2263.69
523.768	2605.7
523.975	2986.62
524.183	2609.79
524.39	2478.72
524.597	2433.67
524.804	2747.01
525.011	2587.27
525.218	2521.73
525.425	2474.63
525.632	2968.19
525.838	2585.22
526.045	2464.39
526.252	2462.34
526.459	3680.88
526.666	3392.12
526.873	2605.7
527.08	2562.69
527.287	3158.65
527.494	2925.18
527.701	2591.36
527.907	2552.45
528.114	2855.55
528.321	2929.28
528.528	2718.34
528.735	2448.01
528.941	2798.21
529.148	2728.58
529.355	2728.58
529.562	2552.45
529.768	3101.31
529.975	2790.02
530.182	2796.16
530.388	2751.1
530.595	3121.79
530.802	2693.76
531.008	2921.09
531.215	2773.63
531.422	3574.39
531.628	3740.27
531.835	2876.03
532.042	2957.95
532.248	2896.51
532.455	3005.05
532.661	2751.1
532.868	2753.15
533.074	3062.4
533.281	3459.7
533.487	3037.82
533.694	2747.01
533.9	2806.4
534.107	3220.09
534.313	2871.93
534.52	2785.92
534.726	3478.13
534.933	3658.35
535.139	2849.41
535.345	2781.82
535.552	3160.7
535.758	3209.85
535.965	2992.76
536.171	2910.85
536.377	3414.65
536.584	3578.48
536.79	2941.57
536.996	3105.4
537.203	3252.86
537.409	3359.35
537.615	2986.62
537.821	3240.57
538.028	3416.69
538.234	3351.16
538.44	3048.06
538.646	3027.58
538.853	3539.57
539.059	3256.95
539.265	3443.32
539.471	2757.25
539.677	3527.28
539.883	3224.19
540.09	3089.02
540.296	3558
540.502	3635.83
540.708	3357.3
540.914	3306.1
541.12	3220.09
541.326	3572.34
541.532	3392.12
541.738	3269.24
541.944	3228.28
542.15	3570.29
542.356	3529.33
542.562	3232.38
542.768	3259
542.974	4135.53
543.18	3971.69
543.386	3273.34
543.592	3127.93
543.798	3746.42
544.004	3789.42
544.21	3424.89
544.415	3469.94
544.621	3701.36
544.827	3861.1
545.033	3295.86
545.239	3551.86
545.445	3512.95
545.651	3648.11
545.856	3320.44
546.062	3371.64
546.268	3506.81
546.474	3619.44
546.679	3553.91
546.885	3414.65
547.091	3506.81
547.297	4031.09
547.502	3529.33
547.708	3424.89
547.914	3605.11
548.119	3824.24
548.325	3338.87
548.531	3355.26
548.736	3926.64
548.942	3496.57
549.147	3353.21
549.353	3719.79
549.559	4059.76
549.764	3846.77
549.97	3527.28
550.175	3607.16
550.381	4092.52
550.586	3641.97
550.792	3580.53
550.997	3623.54
551.203	3834.48
551.408	3953.26
551.614	3433.08
551.819	3498.61
552.025	4328.04
552.23	4309.61
552.435	3646.07
552.641	3863.15
552.846	3863.15
553.052	4190.83
553.257	3791.47
553.462	3691.12
553.668	3848.82
553.873	4264.55
554.078	3695.22
554.283	3576.44
554.489	4067.95
554.694	4051.56
554.899	3644.02
555.105	4026.99
555.31	4139.63
555.515	4067.95
555.72	3949.17
555.925	3775.09
556.131	4309.61
556.336	4082.28
556.541	3723.89
556.746	3830.38
556.951	4342.38
557.156	4407.91
557.361	3904.11
557.567	4078.19
557.772	4649.57
557.977	4285.03
558.182	3957.36
558.387	3900.02
558.592	3990.13
558.797	4510.31
559.002	4057.71
559.207	3969.65
559.412	4127.34
559.617	4723.3
559.822	3916.4
560.027	3895.92
560.232	4254.31
560.437	4375.14
560.642	4063.85
560.847	4010.61
561.051	4276.84
561.256	4338.28
561.461	4127.34
561.666	3818.1
561.871	4559.46
562.076	4485.73
562.281	4229.74
562.485	3910.25
562.69	4479.59
562.895	4524.65
563.1	4119.15
563.305	4098.67
563.509	4596.32
563.714	4837.98
563.919	4156.01
564.123	4018.8
564.328	4403.82
564.533	4530.79
564.737	4297.32
564.942	4133.48
565.147	4887.14
565.351	4907.62
565.556	4168.3
565.761	4231.79
565.965	4577.89
566.17	4119.15
566.374	4334.18
566.579	3912.3
566.784	4358.76
566.988	4440.68
567.193	4182.63
567.397	4291.18
567.602	4317.8
567.806	4473.45
568.011	4211.31
568.215	4346.47
568.42	4602.47
568.624	4483.69
568.828	4373.1
569.033	4362.86
569.237	4698.72
569.442	4776.55
569.646	4209.26
569.85	4319.85
570.055	4616.8
570.259	4749.92
570.463	4592.23
570.668	4393.58
570.872	4487.78
571.076	4584.04
571.281	4508.26
571.485	4596.32
571.689	4645.48
571.893	4928.1
572.098	4590.18
572.302	4459.11
572.506	4702.82
572.71	4661.86
572.914	4479.59
573.119	4463.21
573.323	5046.88
573.527	5313.11
573.731	4553.32
573.935	4407.91
574.139	4794.98
574.343	4481.64
574.547	4471.4
574.751	4579.94
574.955	5038.69
575.159	4921.95
575.364	4592.23
575.568	4438.63
575.772	4895.33
575.976	5145.18
576.18	4407.91
576.383	4325.99
576.587	5032.54
576.791	5071.45
576.995	4506.21
577.199	4475.49
577.403	5122.65
577.607	5319.26
577.811	4698.72
578.015	4950.62
578.219	5069.41
578.422	5298.78
578.626	4825.7
578.83	4862.56
579.034	5202.52
579.238	5046.88
579.442	4788.83
579.645	5317.21
579.849	5087.84
580.053	5073.5
580.257	4989.53
580.46	4850.27
580.664	5116.51
580.868	5106.27
581.071	5266.01
581.275	4946.53
581.479	4766.31
581.682	5212.76
581.886	4825.7
582.09	5044.83
582.293	5200.48
582.497	5282.39
582.7	5059.17
582.904	4751.97
583.107	5118.56
583.311	5073.5
583.515	5145.18
583.718	5050.97
583.922	5509.72
584.125	5659.22
584.329	4844.13
584.532	5087.84
584.735	5560.92
584.939	5366.36
585.142	4891.23
585.346	4842.08
585.549	5376.6
585.753	5263.96
585.956	5057.12
586.159	5198.43
586.363	5605.97
586.566	5544.53
586.769	5100.12
586.973	5003.87
587.176	5470.81
587.379	5745.23
587.582	5419.61
587.786	5368.41
587.989	5278.3
588.192	5941.84
588.395	5190.24
588.599	5388.89
588.802	5569.11
589.005	5489.24
589.208	5235.29
589.411	5278.3
589.615	5778
589.818	5831.25
590.021	5374.55
590.224	5378.65
590.427	5726.8
590.63	5673.56
590.833	5157.47
591.036	5173.85
591.239	5499.48
591.442	5272.15
591.645	5550.68
591.848	5368.41
592.051	5726.8
592.254	5747.28
592.457	5276.25
592.66	5479
592.863	5552.73
593.066	5798.48
593.269	5589.59
593.472	5554.77
593.675	5622.36
593.878	5968.46
594.081	5532.25
594.284	5388.89
594.486	5771.86
594.689	5845.59
594.892	5665.36
595.095	5567.06
595.298	5778
595.5	5644.88
595.703	5685.84
595.906	5728.85
596.109	6128.21
596.311	5982.8
596.514	5229.15
596.717	5573.21
596.92	6185.55
597.122	5890.64
597.325	5417.56
597.528	5691.99
597.73	6199.88
597.933	5878.35
598.136	5503.57
598.338	5327.45
598.541	5970.51
598.743	6208.08
598.946	5710.42
599.148	5849.68
599.351	6046.29
599.554	6160.97
599.756	5767.76
599.959	5782.1
600.161	6273.61
600.363	6468.17
600.566	5898.83
600.768	5722.71
600.971	6535.75
601.173	6292.04
601.376	5626.45
601.578	5866.07
601.78	6152.78
601.983	6670.92
602.185	5669.46
602.388	6029.9
602.59	6152.78
602.792	5902.93
602.995	5964.37
603.197	5808.72
603.399	6267.47
603.601	6029.9
603.804	5679.7
604.006	5798.48
604.208	6042.19
604.41	5741.14
604.613	6091.34
604.815	5915.22
605.017	6910.53
605.219	6156.88
605.421	6408.78
605.623	5970.51
605.826	6328.91
606.028	6548.04
606.23	6036.05
606.432	5904.98
606.634	6627.91
606.836	6398.54
607.038	5835.35
607.24	6185.55
607.442	6160.97
607.644	6165.07
607.846	6349.39
608.048	6034
608.25	6513.22
608.452	5970.51
608.654	6052.43
608.856	5870.16
609.058	6312.52
609.26	6445.64
609.462	6171.21
609.664	6177.36
609.866	6808.13
610.067	6296.14
610.269	6326.86
610.471	6068.81
610.673	6273.61
610.875	6355.53
611.077	5892.69
611.278	6363.72
611.48	6318.67
611.682	6771.27
611.884	6287.95
612.085	6277.71
612.287	6158.92
612.489	6437.45
612.69	6095.44
612.892	6261.32
613.094	6568.52
613.295	6378.06
613.497	5947.98
613.699	6015.57
613.9	6812.23
614.102	6605.38
614.304	6259.28
614.505	5964.37
614.707	6316.62
614.908	6373.96
615.11	6023.76
615.311	6296.14
615.513	6447.69
615.714	6425.16
615.916	6230.6
616.117	6294.09
616.319	6376.01
616.52	6586.95
616.722	6212.17
616.923	6120.01
617.124	6599.24
617.326	6410.82
617.527	6412.87
617.729	6464.07
617.93	6689.35
618.131	6613.57
618.333	6158.92
618.534	6455.88
618.735	6562.37
618.937	6935.1
619.138	6160.97
619.339	6163.02
619.54	6705.73
619.742	6451.78
619.943	6586.95
620.144	6302.28
620.345	6703.68
620.546	6820.42
620.748	6179.4
620.949	6482.5
621.15	6783.56
621.351	6521.42
621.552	6310.47
621.753	6124.11
621.954	6359.63
622.155	6994.5
622.356	6275.66
622.558	6625.86
622.759	6703.68
622.96	7002.69
623.161	6439.5
623.362	6431.3
623.563	6707.78
623.764	6783.56
623.965	6445.64
624.166	6675.01
624.366	6679.11
624.567	6789.7
624.768	6273.61
624.969	6300.23
625.17	6726.21
625.371	6756.93
625.572	6599.24
625.773	6310.47
625.973	6916.67
626.174	6971.97
626.375	6644.29
626.576	6527.56
626.777	6857.28
626.977	7262.78
627.178	6496.84
627.379	6609.48
627.58	6728.26
627.78	6711.88
627.981	6527.56
628.182	6656.58
628.382	7023.17
628.583	6474.31
628.784	6457.93
628.984	6761.03
629.185	7078.46
629.386	7002.69
629.586	6613.57
629.787	6568.52
629.987	6961.73
630.188	6941.25
630.388	6699.59
630.589	6599.24
630.79	7350.84
630.99	6904.39
631.191	6801.99
631.391	6724.16
631.591	6947.39
631.792	7256.64
631.992	6857.28
632.193	6677.06
632.393	7281.21
632.594	7029.31
632.794	6693.44
632.994	7053.89
633.195	6875.71
633.395	7105.09
633.595	6627.91
633.796	6953.54
633.996	6918.72
634.196	7352.89
634.397	6754.88
634.597	6765.12
634.797	6677.06
634.997	7389.75
635.198	6877.76
635.398	6730.31
635.598	7156.29
635.798	7330.36
635.998	7127.61
636.199	6920.77
636.399	6853.19
636.599	6851.14
636.799	6838.85
636.999	7053.89
637.199	7127.61
637.399	7496.25
637.599	6677.06
637.799	7019.07
637.999	6978.11
638.199	7686.71
638.399	6679.11
638.599	6820.42
638.799	7375.42
638.999	7563.83
639.199	7041.6
639.399	7008.83
639.599	7678.52
639.799	7057.98
639.999	6906.43
640.199	6910.53
640.399	7125.57
640.599	7150.14
640.799	7129.66
640.998	7129.66
641.198	7445.05
641.398	7369.27
641.598	7250.49
641.798	6937.15
641.997	8192.56
642.197	7414.33
642.397	7322.17
642.597	7074.37
642.796	7402.04
642.996	7578.17
643.196	7215.68
643.395	7064.13
643.595	7393.85
643.795	6955.58
643.994	7236.16
644.194	7125.57
644.394	7533.11
644.593	7279.16
644.793	7051.84
644.992	7379.51
645.192	7463.48
645.392	6898.24
645.591	7459.38
645.791	7289.4
645.99	7383.61
646.19	7371.32
646.389	7146.05
646.589	7100.99
646.788	7440.95
646.987	7596.6
647.187	7311.93
647.386	7215.68
647.586	7520.82
647.785	7537.21
647.984	7236.16
648.184	7199.29
648.383	7340.6
648.582	7268.92
648.782	7262.78
648.981	7381.56
649.18	7154.24
649.38	7496.25
649.579	7344.7
649.778	7258.68
649.977	7746.1
650.177	7404.09
650.376	7146.05
650.575	7258.68
650.774	7940.66
650.973	7324.22
651.173	7080.51
651.372	7268.92
651.571	7610.93
651.77	7787.06
651.969	7404.09
652.168	7512.63
652.367	7205.44
652.566	7862.83
652.765	7336.51
652.964	7643.7
653.163	8088.11
653.362	7434.81
653.561	7535.16
653.76	7379.51
653.959	7406.14
654.158	7834.16
654.357	7529.02
654.556	7389.75
654.755	7676.47
654.954	7666.23
655.153	7428.67
655.352	7545.4
655.551	8086.06
655.749	7359.03
655.948	7535.16
656.147	7578.17
656.346	7713.33
656.545	7688.76
656.743	7621.17
656.942	7789.11
657.141	7623.22
657.34	7430.71
657.538	7500.34
657.737	7535.16
657.936	7873.07
658.135	7787.06
658.333	7610.93
658.532	7479.86
658.731	8188.46
658.929	8059.44
659.128	7733.81
659.326	7664.18
659.525	8243.76
659.724	7627.32
659.922	7328.31
660.121	7426.62
660.319	7770.68
660.518	7352.89
660.716	7467.58
660.915	7504.44
661.113	8026.67
661.312	7625.27
661.51	7615.03
661.709	7416.38
661.907	7977.52
662.105	8102.45
662.304	7637.56
662.502	7803.44
662.701	8077.87
662.899	7699
663.097	7686.71
663.296	7457.34
663.494	8249.9
663.692	8186.41
663.891	7703.09
664.089	7459.38
664.287	7813.68
664.485	8137.26
664.684	7496.25
664.882	7742
665.08	7815.73
665.278	8010.29
665.476	7703.09
665.675	7985.71
665.873	8241.71
666.071	8340.01
666.269	7680.57
666.467	8053.3
666.665	8038.96
666.863	7752.24
667.061	8002.1
667.259	7604.79
667.457	7766.58
667.655	7995.95
667.853	7414.33
668.051	7684.66
668.249	7756.34
668.447	7866.93
668.645	7586.36
668.843	7916.08
669.041	8186.41
669.239	7709.24
669.437	7946.8
669.635	7764.53
669.833	7922.23
670.031	8157.74
670.229	7686.71
670.426	7780.92
670.624	7889.46
670.822	7791.16
671.02	7696.95
671.218	7936.56
671.415	7764.53
671.613	7971.38
671.811	7727.67
672.009	7815.73
672.206	8260.14
672.404	8045.1
672.602	7815.73
672.799	7723.57
672.997	8026.67
673.195	8350.25
673.392	8014.38
673.59	7815.73
673.788	8145.45
673.985	7275.07
674.183	7862.83
674.38	7836.21
674.578	8098.35
674.775	7846.45
674.973	7809.59
675.17	7731.76
675.368	8225.33
675.565	8102.45
675.763	7590.45
675.96	7793.2
676.158	8264.24
676.355	7864.88
676.553	7471.67
676.75	7811.64
676.947	7950.9
677.145	7694.9
677.342	7721.52
677.539	7936.56
677.737	8004.14
677.934	8421.93
678.131	7914.03
678.329	7715.38
678.526	8120.88
678.723	7940.66
678.92	8026.67
679.118	7670.33
679.315	7596.6
679.512	8337.96
679.709	7907.89
679.906	7711.28
680.104	8352.3
680.301	8241.71
680.498	7576.12
680.695	7737.91
680.892	7840.31
681.089	7789.11
681.286	7764.53
681.483	7496.25
681.68	8260.14
681.877	8065.58
682.075	7817.78
682.272	8053.3
682.469	8245.8
682.665	7776.82
682.862	7670.33
683.059	7453.24
683.256	7965.23
683.453	7926.32
683.65	8073.78
683.847	7815.73
684.044	7778.87
684.241	7844.4
684.438	8000.05
684.635	7598.65
684.831	8352.3
685.028	8684.07
685.225	7805.49
685.422	7551.54
685.619	8051.25
685.815	7737.91
686.012	7950.9
686.209	7782.96
686.405	7785.01
686.602	8225.33
686.799	7582.26
686.996	7551.54
687.192	7688.76
687.389	8225.33
687.586	7729.72
687.782	7787.06
687.979	8266.28
688.175	7881.27
688.372	7744.05
688.568	7635.51
688.765	7809.59
688.962	7995.95
689.158	7899.7
689.355	7565.88
689.551	8229.42
689.748	7643.7
689.944	7811.64
690.14	7543.35
690.337	7893.55
690.533	7479.86
690.73	7762.48
690.926	7629.37
691.123	7860.79
691.319	7866.93
691.515	7526.97
691.712	7756.34
691.908	7963.19
692.104	8053.3
692.301	7856.69
692.497	7586.36
692.693	7922.23
692.889	8149.55
693.086	7864.88
693.282	7547.45
693.478	7782.96
693.674	8284.72
693.87	7664.18
694.067	7578.17
694.263	7907.89
694.459	7856.69
694.655	7813.68
694.851	7877.17
695.047	7690.81
695.243	8034.86
695.439	7778.87
695.635	7582.26
695.831	8131.12
696.027	7868.98
696.224	7713.33
696.42	8225.33
696.615	8194.61
696.811	7979.57
697.007	7662.13
697.203	7692.85
697.399	7877.17
697.595	8286.76
697.791	7385.66
697.987	7707.19
698.183	7651.89
698.379	7508.54
698.575	7739.96
698.77	7723.57
698.966	7967.28
699.162	8122.93
699.358	7719.48
699.554	7553.59
699.749	7948.85
699.945	7942.71
700.141	7619.13
700.337	7729.72
700.532	7850.55
700.728	7457.34
700.924	7453.24
701.119	7465.53
701.315	7834.16
701.511	7766.58
701.706	7733.81
701.902	7500.34
702.097	7932.47
702.293	7883.31
702.489	7608.89
702.684	7422.52
702.88	7764.53
703.075	7750.2
703.271	7410.23
703.466	7567.93
703.662	7606.84
703.857	7762.48
704.053	7369.27
704.248	7477.82
704.443	7905.84
704.639	7885.36
704.834	7666.23
705.03	7627.32
705.225	8092.21
705.42	7983.66
705.616	7766.58
705.811	7565.88
706.006	7617.08
706.202	7809.59
706.397	7715.38
706.592	7688.76
706.787	7672.37
706.983	7580.22
707.178	7725.62
707.373	7617.08
707.568	8088.11
707.763	8000.05
707.959	7596.6
708.154	7615.03
708.349	7854.64
708.544	7871.03
708.739	7774.77
708.934	7569.98
709.129	7852.59
709.324	8092.21
709.519	7649.85
709.714	7623.22
709.909	7924.27
710.104	7803.44
710.299	7541.3
710.494	7563.83
710.689	7889.46
710.884	7621.17
711.079	7801.4
711.274	7692.85
711.469	7991.86
711.664	7637.56
711.859	7477.82
712.054	7815.73
712.249	7942.71
712.443	8071.73
712.638	7506.49
712.833	7283.26
713.028	7584.31
713.223	7625.27
713.417	7797.3
713.612	7565.88
713.807	7887.41
714.002	8260.14
714.196	7823.92
714.391	7356.99
714.586	7948.85
714.78	7422.52
714.975	7574.07
715.17	7481.91
715.364	7547.45
715.559	7852.59
715.754	7064.13
715.948	7361.08
716.143	8258.09
716.337	7729.72
716.532	7772.72
716.726	7559.74
716.921	7856.69
717.115	8159.79
717.31	7365.18
717.504	7873.07
717.699	7696.95
717.893	7725.62
718.088	7465.53
718.282	7461.43
718.476	7746.1
718.671	7631.41
718.865	7412.28
719.059	7432.76
719.254	7590.45
719.448	7815.73
719.642	7744.05
719.837	7289.4
720.031	7991.86
720.225	7696.95
720.419	7545.4
720.614	7356.99
720.808	7848.5
721.002	7500.34
721.196	7246.4
721.39	7574.07
721.585	7981.62
721.779	7606.84
721.973	7399.99
722.167	7219.77
722.361	7612.98
722.555	7799.35
722.749	7324.22
722.943	7309.88
723.137	7207.48
723.331	7569.98
723.525	7369.27
723.719	7393.85
723.913	7666.23
724.107	7971.38
724.301	7273.02
724.495	7447.1
724.689	8051.25
724.883	7889.46
725.077	7332.41
725.271	7537.21
725.465	7828.02
725.659	7526.97
725.853	7574.07
726.046	7201.34
726.24	7289.4
726.434	7893.55
726.628	7498.3
726.822	7445.05
727.015	7893.55
727.209	7864.88
727.403	7217.72
727.596	7123.52
727.79	7668.28
727.984	7764.53
728.177	7285.31
728.371	7414.33
728.565	7635.51
728.758	7189.05
728.952	7162.43
729.146	7277.12
729.339	7647.8
729.533	7463.48
729.726	7223.87
729.92	7098.94
730.113	7746.1
730.307	7576.12
730.5	7215.68
730.694	7381.56
730.887	7416.38
731.081	7785.01
731.274	7387.71
731.468	7359.03
731.661	7598.65
731.854	7318.08
732.048	7268.92
732.241	7170.62
732.435	7250.49
732.628	7459.38
732.821	7381.56
733.014	7389.75
733.208	7262.78
733.401	7840.31
733.594	7340.6
733.788	7273.02
733.981	7989.81
734.174	7651.89
734.367	7359.03
734.56	7541.3
734.754	7727.67
734.947	7586.36
735.14	7187
735.333	7455.29
735.526	7424.57
735.719	7356.99
735.912	7373.37
736.105	7193.15
736.298	7424.57
736.491	7387.71
736.684	7230.01
736.877	7035.46
737.07	7510.58
737.263	7709.24
737.456	7139.9
737.649	7158.33
737.842	7332.41
738.035	7578.17
738.228	7537.21
738.421	7303.74
738.614	7838.26
738.807	7789.11
739	7193.15
739.192	6931.01
739.385	7785.01
739.578	7463.48
739.771	7510.58
739.964	7266.88
740.156	7639.61
740.349	7524.92
740.542	7520.82
740.735	7072.32
740.927	7174.72
741.12	7311.93
741.313	7107.13
741.505	7356.99
741.698	7375.42
741.891	7535.16
742.083	7330.36
742.276	7213.63
742.468	7404.09
742.661	7436.86
742.854	7316.03
743.046	7377.47
743.239	7819.83
743.431	7473.72
743.624	7170.62
743.816	7051.84
744.009	7262.78
744.201	7494.2
744.393	7410.23
744.586	7119.42
744.778	7553.59
744.971	7465.53
745.163	7287.36
745.355	7326.27
745.548	7279.16
745.74	7225.92
745.932	7189.05
746.125	7361.08
746.317	7961.14
746.509	7522.87
746.702	7301.69
746.894	7289.4
747.086	7563.83
747.278	7629.37
747.471	7301.69
747.663	7260.73
747.855	7359.03
748.047	7825.97
748.239	7205.44
748.431	7170.62
748.623	7711.28
748.815	7725.62
749.008	7311.93
749.2	7150.14
749.392	7596.6
749.584	7369.27
749.776	7303.74
749.968	7184.96
750.16	7727.67
750.352	7344.7
750.544	7168.57
750.736	7178.81
750.928	7344.7
751.12	7430.71
751.311	7053.89
751.503	7234.11
751.695	7340.6
751.887	7131.71
752.079	6967.87
752.271	6939.2
752.463	8251.95
752.654	7514.68
752.846	7121.47
753.038	7303.74
753.23	7268.92
753.421	7397.95
753.613	7008.83
753.805	7449.15
753.997	7500.34
754.188	7242.3
754.38	6935.1
754.572	7117.37
754.763	7336.51
754.955	7234.11
755.146	7070.27
755.338	7223.87
755.53	7354.94
755.721	7023.17
755.913	6908.48
756.104	7057.98
756.296	6939.2
756.487	7574.07
756.679	6890.05
756.87	6855.23
757.062	6928.96
757.253	7516.73
757.445	6902.34
757.636	7119.42
757.827	7082.56
758.019	7715.38
758.21	6912.58
758.401	6941.25
758.593	7426.62
758.784	7426.62
758.975	6724.16
759.167	6644.29
759.358	7123.52
759.549	7322.17
759.74	6857.28
759.932	6937.15
760.123	7354.94
760.314	6869.57
760.505	6902.34
760.696	6953.54
760.888	7600.69
761.079	6980.16
761.27	6949.44
761.461	6896.19
761.652	7445.05
761.843	6906.43
762.034	6703.68
762.225	7023.17
762.416	6916.67
762.607	6718.02
762.798	6974.02
762.989	6898.24
763.18	7895.6
763.371	6924.86
763.562	6801.99
763.753	6826.56
763.944	7162.43
764.135	7154.24
764.326	6842.95
764.517	6687.3
764.708	7127.61
764.899	7057.98
765.089	6810.18
765.28	6441.54
765.471	6904.39
765.662	7043.65
765.853	6865.47
766.043	6521.42
766.234	7133.76
766.425	7027.26
766.615	6609.48
766.806	6677.06
766.997	6910.53
767.187	6912.58
767.378	6728.26
767.569	6498.89
767.759	6877.76
767.95	6928.96
768.141	6713.92
768.331	6642.25
768.522	6967.87
768.712	7029.31
768.903	6750.79
769.093	6384.2
769.284	7176.77
769.474	6732.36
769.665	6283.85
769.855	6388.3
770.046	6924.86
770.236	6771.27
770.426	6908.48
770.617	6539.85
770.807	6881.86
770.998	6761.03
771.188	6681.16
771.378	6728.26
771.569	6808.13
771.759	6812.23
771.949	6470.22
772.139	6228.56
772.33	6527.56
772.52	7008.83
772.71	6584.9
772.9	6214.22
773.09	7221.82
773.281	7121.47
773.471	6425.16
773.661	6533.7
773.851	6783.56
774.041	6541.89
774.231	6316.62
774.421	6652.49
774.611	7010.88
774.802	6662.73
774.992	6611.53
775.182	6429.26
775.372	6507.08
775.562	6924.86
775.752	6302.28
775.942	6423.11
776.131	6847.04
776.321	6646.34
776.511	6380.11
776.701	6203.98
776.891	6722.12
777.081	6394.44
777.271	6343.24
777.461	6347.34
777.651	6791.75
777.84	7006.78
778.03	6339.15
778.22	6343.24
778.41	6840.9
778.599	6419.02
778.789	6371.91
778.979	6296.14
779.169	6644.29
779.358	6650.44
779.548	6576.71
779.738	6103.63
779.927	6613.57
780.117	6124.11
780.307	6099.53
780.496	6074.96
780.686	6638.15
780.875	7066.17
781.065	6230.6
781.254	6275.66
781.444	6531.66
781.633	6406.73
781.823	6156.88
782.012	6070.86
782.202	6318.67
782.391	6324.81
782.581	6109.77
782.77	6298.19
782.96	6576.71
783.149	6312.52
783.338	6292.04
783.528	6050.38
783.717	6513.22
783.906	6623.81
784.096	6283.85
784.285	6138.44
784.474	6378.06
784.663	6273.61
784.853	6275.66
785.042	6236.75
785.231	6036.05
785.42	6474.31
785.61	6158.92
785.799	5790.29
785.988	6175.31
786.177	6048.33
786.366	6097.49
786.555	6062.67
786.744	6484.55
786.933	6308.43
787.122	6005.33
787.312	5956.18
787.501	6040.14
787.69	6359.63
787.879	6017.61
788.068	5921.36
788.257	6099.53
788.445	6160.97
788.634	6081.1
788.823	5728.85
789.012	6863.43
789.201	6550.09
789.39	5925.46
789.579	5980.75
789.768	6210.12
789.957	6294.09
790.145	5909.07
790.334	5702.23
790.523	6046.29
790.712	6240.84
790.9	6230.6
791.089	5804.63
791.278	6404.68
791.467	6193.74
791.655	6218.32
791.844	6494.79
792.033	6031.95
792.221	6124.11
792.41	6054.48
792.599	5667.41
792.787	6289.99
792.976	6277.71
793.164	5732.95
793.353	5853.78
793.541	6398.54
793.73	6163.02
793.918	5982.8
794.107	5939.79
794.295	6189.64
794.484	6009.42
794.672	5892.69
794.861	5837.39
795.049	6140.49
795.238	6521.42
795.426	5847.63
795.614	5911.12
795.803	5999.18
795.991	6500.94
796.179	5669.46
796.368	5882.45
796.556	6228.56
796.744	5712.47
796.932	5745.23
797.121	5646.93
797.309	5878.35
797.497	6181.45
797.685	5673.56
797.874	5632.6
798.062	5917.26
798.25	6269.51
798.438	5673.56
798.626	5878.35
798.814	6156.88
799.002	6494.79
799.19	5917.26
799.378	5730.9
799.566	6113.87
799.755	6378.06
799.943	6001.23
800.131	5902.93
800.318	6062.67
800.506	6095.44
800.694	5730.9
800.882	5939.79
801.07	6240.84
801.258	5784.15
801.446	5898.83
801.634	5782.1
801.822	6050.38
802.01	5929.55
802.197	5827.15
802.385	6005.33
802.573	5945.94
802.761	5849.68
802.949	6017.61
803.136	5726.8
803.324	6218.32
803.512	6029.9
803.699	5939.79
803.887	5593.69
804.075	6439.5
804.262	5925.46
804.45	5763.67
804.638	5829.2
804.825	5859.92
805.013	5997.14
805.201	5902.93
805.388	5923.41
805.576	6077.01
805.763	6664.77
805.951	5829.2
806.138	6023.76
806.326	6539.85
806.513	6304.33
806.701	6238.8
806.888	5691.99
807.075	6228.56
807.263	6627.91
807.45	5892.69
807.638	6208.08
807.825	6691.4
808.012	6187.6
808.2	5894.74
808.387	6077.01
808.574	6160.97
808.761	6498.89
808.949	5941.84
809.136	6175.31
809.323	6072.91
809.51	6171.21
809.698	6197.84
809.885	6036.05
810.072	6220.36
810.259	6339.15
810.446	6115.92
810.633	5986.9
810.82	6494.79
811.008	6572.61
811.195	6095.44
811.382	6087.25
811.569	6271.56
811.756	5935.7
811.943	6173.26
812.13	5829.2
812.317	6163.02
812.504	6220.36
812.691	6091.34
812.878	6232.65
813.064	6531.66
813.251	6201.93
813.438	5833.3
813.625	6283.85
813.812	6136.4
813.999	6060.62
814.186	6113.87
814.372	6109.77
814.559	6310.47
814.746	6437.45
814.933	6103.63
815.12	6285.9
815.306	6013.52
815.493	5960.27
815.68	5904.98
815.866	5882.45
816.053	6582.85
816.24	6697.54
816.426	6203.98
816.613	5923.41
816.799	6507.08
816.986	6607.43
817.173	6183.5
817.359	5990.99
817.546	6179.4
817.732	5933.65
817.919	5780.05
818.105	6036.05
818.292	5995.09
818.478	6201.93
818.665	6148.68
818.851	5927.5
819.037	6670.92
819.224	6181.45
819.41	5990.99
819.597	5960.27
819.783	6599.24
819.969	6328.91
820.156	5990.99
820.342	5931.6
820.528	6795.84
820.714	6152.78
820.901	6124.11
821.087	6003.28
821.273	6752.84
821.459	6091.34
821.646	5782.1
821.832	5798.48
822.018	6169.16
822.204	6101.58
822.39	5933.65
822.576	5816.91
822.762	6203.98
822.948	5995.09
823.134	6181.45
823.32	5778
823.507	5823.06
823.693	6130.25
823.879	6140.49
824.065	5984.85
824.25	6160.97
824.436	5878.35
824.622	5800.53
824.808	5603.93
824.994	5814.87
825.18	5626.45
825.366	5694.04
825.552	5792.34
825.738	5945.94
825.923	6142.54
826.109	6109.77
826.295	5861.97
826.481	5767.76
826.667	5964.37
826.852	5933.65
827.038	5554.77
827.224	6218.32
827.409	6406.73
827.595	5665.36
827.781	5851.73
827.966	6191.69
828.152	6109.77
828.338	5790.29
828.523	5681.75
828.709	5595.73
828.894	6244.94
829.08	5522.01
829.266	5452.38
829.451	5716.56
829.637	6050.38
829.822	5818.96
830.008	5550.68
830.193	6089.29
830.378	6025.81
830.564	5679.7
830.749	5644.88
830.935	6064.72
831.12	6218.32
831.305	5542.49
831.491	5612.12
831.676	5472.86
831.861	5954.13
832.047	5741.14
832.232	5517.91
832.417	5978.7
832.602	5872.21
832.788	5628.5
832.973	5470.81
833.158	5763.67
833.343	5689.94
833.528	5716.56
833.714	5663.32
833.899	5806.67
834.084	6124.11
834.269	5765.71
834.454	5657.17
834.639	6140.49
834.824	5763.67
835.009	5722.71
835.194	5735
835.379	5915.22
835.564	6138.44
835.749	5616.21
835.934	5306.97
836.119	5704.28
836.304	5816.91
836.489	5456.47
836.674	5694.04
836.859	5730.9
837.044	6210.12
837.228	5419.61
837.413	5450.33
837.598	5653.08
837.783	6107.73
837.968	5440.09
838.152	5196.38
838.337	5163.61
838.522	6009.42
838.707	5818.96
838.891	5601.88
839.076	5638.74
839.261	5812.82
839.445	5470.81
839.63	5476.95
839.815	5956.18
839.999	5536.34
840.184	5403.22
840.368	5421.66
840.553	5759.57
840.737	5767.76
840.922	5268.06
841.106	5286.49
841.291	5282.39
841.475	5628.5
841.66	5255.77
841.844	5343.83
842.029	6189.64
842.213	5251.67
842.397	5177.95
842.582	5202.52
842.766	5694.04
842.951	5599.83
843.135	5345.88
843.319	5380.7
843.504	5507.67
843.688	5616.21
843.872	5206.62
844.056	5124.7
844.241	5741.14
844.425	5433.94
844.609	5624.4
844.793	5028.45
844.977	5587.54
845.161	5499.48
845.346	5071.45
845.53	4878.94
845.714	5479
845.898	5642.84
846.082	4930.14
846.266	5220.95
846.45	5378.65
846.634	5513.81
846.818	5309.02
847.002	5212.76
847.186	5749.33
847.37	5433.94
847.554	5050.97
847.738	5317.21
847.922	5433.94
848.106	5407.32
848.29	5032.54
848.473	4958.81
848.657	5505.62
848.841	5268.06
849.025	5050.97
849.209	5001.82
849.392	5466.71
849.576	5333.59
849.76	4856.42
849.944	5245.53
850.127	5546.58
850.311	4962.91
850.495	4932.19
850.678	4868.7
850.862	5714.52
851.046	5556.82
851.229	5159.52
851.413	4887.14
851.596	5349.98
851.78	5235.29
851.964	5309.02
852.147	4993.63
852.331	5810.77
852.514	5505.62
852.698	5001.82
852.881	4766.31
853.065	5378.65
853.248	4983.39
853.431	5071.45
853.615	5098.08
853.798	5728.85
853.982	5251.67
854.165	5077.6
854.348	4827.74
854.532	4956.77
854.715	5118.56
854.898	4979.29
855.081	4864.61
855.265	5446.23
855.448	5487.19
855.631	4878.94
855.814	5014.11
855.997	5335.64
856.181	5112.41
856.364	5026.4
856.547	4880.99
856.73	5096.03
856.913	5003.87
857.096	4823.65
857.279	4948.58
857.462	4768.35
857.645	5347.93
857.828	4936.29
858.011	4930.14
858.194	4928.1
858.377	5321.31
858.56	4493.93
858.743	4837.98
858.926	4831.84
859.109	5120.6
859.292	4934.24
859.475	4747.87
859.658	5433.94
859.841	5300.83
860.023	4711.01
860.206	4676.2
860.389	4975.2
860.572	5280.35
860.755	4856.42
860.937	4751.97
861.12	4883.04
861.303	4962.91
861.486	4817.51
861.668	4692.58
861.851	5038.69
862.034	5077.6
862.216	4670.05
862.399	4522.6
862.581	5075.55
862.764	5245.53
862.947	4772.45
863.129	4616.8
863.312	4543.08
863.494	5175.9
863.677	4819.55
863.859	4493.93
864.042	5014.11
864.224	5175.9
864.406	4751.97
864.589	4463.21
864.771	4969.05
864.954	4612.71
865.136	4610.66
865.318	4457.06
865.501	4721.25
865.683	4424.3
865.865	4336.23
866.048	4663.91
866.23	4708.96
866.412	4555.37
866.594	4274.79
866.777	4477.54
866.959	4786.79
867.141	4620.9
867.323	4885.09
867.505	4694.63
867.687	4622.95
867.869	4741.73
868.052	4467.3
868.234	4450.92
868.416	4616.8
868.598	4829.79
868.78	4379.24
868.962	4395.62
869.144	4862.56
869.326	4811.36
869.508	4457.06
869.69	4383.34
869.872	4383.34
870.054	4864.61
870.236	4332.14
870.417	4383.34
870.599	4518.5
870.781	5173.85
870.963	4463.21
871.145	4383.34
871.327	4465.25
871.508	4911.71
871.69	4389.48
871.872	4383.34
872.054	4577.89
872.235	4661.86
872.417	4375.14
872.599	4186.73
872.78	5073.5
872.962	4649.57
873.144	4336.23
873.325	4375.14
873.507	5122.65
873.689	4706.91
873.87	4219.5
874.052	4538.98
874.233	4586.08
874.415	4921.95
874.596	4516.45
874.778	4319.85
874.959	4614.76
875.141	4999.77
875.322	4457.06
875.503	4369
875.685	4850.27
875.866	4391.53
876.048	4213.35
876.229	4543.08
876.41	4606.56
876.592	4840.03
876.773	4469.35
876.954	4293.23
877.136	4848.22
877.317	4500.07
877.498	4149.87
877.679	4434.53
877.86	4770.4
878.042	4715.11
878.223	4362.86
878.404	4625
878.585	4721.25
878.766	5104.22
878.947	4794.98
879.128	4575.84
879.309	4754.02
879.49	4981.34
879.672	4485.73
879.853	4584.04
880.034	4424.3
880.215	4788.83
880.396	4422.25
880.576	4573.8
880.757	4606.56
880.938	4997.73
881.119	4524.65
881.3	4500.07
881.481	4649.57
881.662	5438.04
881.843	4268.65
882.023	4346.47
882.204	4665.96
882.385	4917.86
882.566	4469.35
882.747	4436.58
882.927	4698.72
883.108	4735.59
883.289	4514.41
883.469	4860.51
883.65	4637.28
883.831	4954.72
884.011	4840.03
884.192	4686.44
884.373	5132.89
884.553	4952.67
884.734	4874.85
884.914	4971.1
885.095	5511.77
885.275	5259.87
885.456	4844.13
885.636	4481.64
885.817	4856.42
885.997	4950.62
886.178	4670.05
886.358	4659.81
886.538	4909.66
886.719	5708.37
886.899	4668
887.08	4844.13
887.26	5202.52
887.44	4670.05
887.621	4606.56
887.801	4952.67
887.981	5380.7
888.161	5040.73
888.342	4612.71
888.522	4727.39
888.702	5120.6
888.882	5145.18
889.062	4889.18
889.242	4387.43
889.423	5257.82
889.603	5048.93
889.783	4823.65
889.963	4553.32
890.143	4999.77
890.323	5294.68
890.503	4614.76
890.683	4631.14
890.863	4956.77
891.043	5147.23
891.223	4928.1
891.403	4950.62
891.583	4770.4
891.763	4969.05
891.943	4948.58
892.122	4725.35
892.302	5247.58
892.482	4801.12
892.662	4813.41
892.842	4864.61
893.022	5053.02
893.201	4958.81
893.381	4940.38
893.561	4706.91
893.741	5304.92
893.92	5083.74
894.1	4895.33
894.28	4854.37
894.459	5130.84
894.639	5108.32
894.819	4887.14
894.998	4852.32
895.178	5288.54
895.357	5192.28
895.537	4706.91
895.716	4743.78
895.896	4903.52
896.075	5259.87
896.255	4758.11
896.434	4606.56
896.614	5116.51
896.793	5323.35
896.973	4858.46
897.152	4774.5
897.331	5020.25
897.511	5245.53
897.69	4737.63
897.87	4704.87
898.049	5018.21
898.228	4964.96
898.407	4905.57
898.587	4917.86
898.766	4891.23
898.945	5153.37
899.124	4870.75
899.304	4782.69
899.483	5055.07
899.662	5470.81
899.841	4651.62
900.02	4760.16
900.199	5089.89
900.378	5055.07
900.557	4733.54
900.737	4698.72
900.916	5122.65
901.095	5192.28
901.274	4942.43
901.453	4504.17
901.632	4784.74
901.811	4678.24
901.989	4471.4
902.168	4465.25
902.347	5067.36
902.526	4735.59
902.705	4571.75
902.884	4790.88
903.063	5206.62
903.242	5116.51
903.42	4588.13
903.599	4606.56
903.778	5202.52
903.957	5118.56
904.135	4678.24
904.314	4661.86
904.493	5067.36
904.672	4993.63
904.85	4674.15
905.029	4588.13
905.207	4788.83
905.386	5479
905.565	4649.57
905.743	4567.65
905.922	4622.95
906.1	4905.57
906.279	4442.73
906.457	4295.27
906.636	4559.46
906.814	4579.94
906.993	4571.75
907.171	4432.49
907.35	4903.52
907.528	4913.76
907.707	4721.25
907.885	4309.61
908.063	5165.66
908.242	4489.83
908.42	4563.56
908.598	4260.46
908.777	4874.85
908.955	4495.97
909.133	4668
909.311	4289.13
909.49	4526.69
909.668	4751.97
909.846	4520.55
910.024	4305.51
910.202	4661.86
910.38	4678.24
910.559	4323.94
910.737	4254.31
910.915	4657.76
911.093	4610.66
911.271	4481.64
911.449	4551.27
911.627	4475.49
911.805	5036.64
911.983	4293.23
912.161	4307.56
912.339	4672.1
912.517	4725.35
912.695	4369
912.872	4285.03
913.05	4321.9
913.228	4485.73
913.406	4158.06
913.584	4158.06
913.762	4553.32
913.939	4311.66
914.117	4092.52
914.295	4061.8
914.473	4684.39
914.65	4504.17
914.828	4104.81
915.006	4055.66
915.184	4067.95
915.361	4538.98
915.539	4211.31
915.716	4399.72
915.894	4418.15
916.072	4586.08
916.249	4301.42
916.427	4070
916.604	4113
916.782	4401.77
916.959	3818.1
917.137	3910.25
917.314	4348.52
917.492	4334.18
917.669	3955.31
917.847	3998.32
918.024	4280.94
918.201	4100.72
918.379	4106.86
918.556	3957.36
918.733	4385.38
918.911	3916.4
919.088	4096.62
919.265	3928.69
919.442	4115.05
919.62	4117.1
919.797	3848.82
919.974	3746.42
920.151	4059.76
920.328	4135.53
920.506	3730.03
920.683	3975.79
920.86	3682.93
921.037	3787.38
921.214	3742.32
921.391	3744.37
921.568	4248.17
921.745	3740.27
921.922	3768.95
922.099	3748.47
922.276	4190.83
922.453	3873.39
922.63	3699.31
922.807	3930.73
922.984	4088.43
923.161	3732.08
923.338	3582.58
923.514	3560.05
923.691	3887.73
923.868	4045.42
924.045	3785.33
924.222	3453.56
924.399	3764.85
924.575	4020.85
924.752	3545.72
924.929	3701.36
925.105	3687.03
925.282	3631.73
925.459	3648.11
925.635	3502.71
925.812	3764.85
925.989	3531.38
926.165	3723.89
926.342	3316.34
926.518	3416.69
926.695	3648.11
926.871	3449.46
927.048	3166.84
927.224	3881.58
927.401	3596.92
927.577	3379.83
927.754	3175.03
927.93	3781.23
928.107	3836.53
928.283	3279.48
928.459	3492.47
928.636	3795.57
928.812	3506.81
928.988	3476.09
929.165	3050.11
929.341	3592.82
929.517	3490.42
929.693	3539.57
929.87	3140.22
930.046	3615.35
930.222	3316.34
930.398	3043.96
930.574	3195.51
930.751	3451.51
930.927	3234.43
931.103	3152.51
931.279	3207.8
931.455	3105.4
931.631	3367.54
931.807	2949.76
931.983	2941.57
932.159	2978.43
932.335	3277.43
932.511	2978.43
932.687	3013.24
932.863	3238.52
933.039	3093.12
933.215	2826.88
933.391	2722.43
933.566	3037.82
933.742	3000.96
933.918	2927.23
934.094	2622.08
934.27	2957.95
934.445	3025.53
934.621	2837.12
934.797	2773.63
934.973	3205.75
935.148	3013.24
935.324	2511.49
935.5	2556.55
935.675	3134.07
935.851	2984.57
936.027	2617.99
936.202	2564.74
936.378	2826.88
936.553	2648.71
936.729	2765.44
936.904	2302.6
937.08	2179.72
937.255	2331.27
937.431	2071.18
937.606	2091.66
937.782	2212.49
937.957	2361.99
938.133	2050.7
938.308	1899.15
938.483	2259.59
938.659	2017.93
938.834	2110.09
939.009	1874.57
939.185	2171.53
939.36	1972.88
939.535	1567.38
939.71	2069.13
939.886	2370.18
940.061	2214.54
940.236	1931.92
940.411	1796.75
940.586	1862.29
940.761	1989.26
940.937	1747.6
941.112	1745.55
941.287	1938.06
941.462	1876.62
941.637	1495.7
941.812	1573.52
941.987	1786.51
942.162	1761.94
942.337	1673.87
942.512	1651.35
942.687	1938.06
942.862	1837.71
943.037	1307.29
943.212	1256.09
943.386	1651.35
943.561	1682.06
943.736	1616.53
943.911	1669.78
944.086	1763.98
944.26	1796.75
944.435	1452.69
944.61	1591.95
944.785	2060.94
944.959	1960.59
945.134	1628.82
945.309	1426.07
945.483	1450.64
945.658	1786.51
945.833	1299.09
946.007	1362.58
946.182	1948.3
946.357	1505.94
946.531	1284.76
946.706	1309.33
946.88	1270.42
947.055	1628.82
947.229	1381.01
947.404	1411.73
947.578	1852.05
947.752	1577.62
947.927	1313.43
948.101	1356.44
948.276	1538.71
948.45	1759.89
948.624	1516.18
948.799	1366.68
948.973	1688.21
949.147	1292.95
949.321	1495.7
949.496	1415.83
949.67	1909.39
949.844	1649.3
950.018	1444.5
950.193	1510.04
950.367	2067.08
950.541	1467.03
950.715	1524.37
950.889	1632.91
951.063	1557.14
951.237	1802.9
951.411	1110.68
951.585	1184.41
951.759	1647.25
951.933	1579.67
952.107	1421.97
952.281	1725.07
952.455	2042.51
952.629	1788.56
952.803	1436.31
952.977	1387.16
953.151	1854.09
953.325	1755.79
953.499	1647.25
953.672	1344.15
953.846	1403.54
954.02	1434.26
954.194	1266.33
954.368	1356.44
954.541	1716.88
954.715	1485.46
954.889	1489.56
955.062	1290.9
955.236	1532.56
955.41	1542.8
955.583	1581.71
955.757	1305.24
955.93	1524.37
956.104	1358.49
956.278	1331.86
956.451	1426.07
956.625	1669.78
956.798	2075.28
956.972	1596.05
957.145	1292.95
957.319	1528.47
957.492	1559.19
957.665	1563.28
957.839	1348.25
958.012	1673.87
958.185	1415.83
958.359	1292.95
958.532	1675.92
958.705	1628.82
958.879	1729.17
959.052	1405.59
959.225	1182.36
959.398	1415.83
959.572	1550.99
959.745	1409.69
959.918	1460.88
960.091	1462.93
960.264	1632.91
960.438	1204.89
960.611	1249.94
960.784	1747.6
960.957	1516.18
961.13	1692.3
961.303	1348.25
961.476	1528.47
961.649	1675.92
961.822	1168.02
961.995	1323.67
962.168	1780.37
962.341	1577.62
962.514	1272.47
962.686	1401.49
962.859	1501.84
963.032	1522.32
963.205	1231.51
963.378	1094.3
963.551	1606.29
963.723	1540.76
963.896	1372.82
964.069	1348.25
964.242	1505.94
964.414	1647.25
964.587	1243.8
964.76	1464.98
964.932	1460.88
965.105	1520.28
965.278	1321.62
965.45	1301.14
965.623	1389.21
965.795	1626.77
965.968	1295
966.14	1241.75
966.313	1327.77
966.485	1512.08
966.658	1286.81
966.83	1198.74
967.003	1751.7
967.175	1548.95
967.348	1233.56
967.52	1292.95
967.692	1786.51
967.865	1583.76
968.037	1278.62
968.209	1651.35
968.382	1565.33
968.554	1643.15
968.726	1286.81
968.898	1194.65
969.071	1421.97
969.243	1553.04
969.415	1370.77
969.587	1190.55
969.759	2007.69
969.932	1682.06
970.104	1254.04
970.276	926.36
970.448	1407.64
970.62	1362.58
970.792	1362.58
970.964	1186.46
971.136	1884.81
971.308	1548.95
971.48	1182.36
971.652	1227.42
971.824	1835.66
971.996	1381.01
972.168	1342.1
972.339	1333.91
972.511	1581.71
972.683	1319.57
972.855	1409.69
973.027	1243.8
973.199	1413.78
973.37	1485.46
973.542	1323.67
973.714	1403.54
973.886	1338.01
974.057	1573.52
974.229	1094.3
974.401	1251.99
974.572	1114.78
974.744	1000.09
974.915	1133.21
975.087	1116.83
975.259	1720.98
975.43	1362.58
975.602	1143.45
975.773	1088.15
975.945	1174.17
976.116	1448.6
976.288	1079.96
976.459	1280.66
976.63	1260.18
976.802	1499.8
976.973	1041.05
977.145	1163.93
977.316	1759.89
977.487	1299.09
977.659	1331.86
977.83	1131.16
978.001	1774.22
978.172	1270.42
978.344	1008.28
978.515	1145.5
978.686	1254.04
978.857	1667.73
979.028	1073.82
979.2	942.75
979.371	1559.19
979.542	1266.33
979.713	1188.5
979.884	750.24
980.055	1192.6
980.226	1116.83
980.397	1120.92
980.568	979.61
980.739	1548.95
980.91	1241.75
981.081	1270.42
981.252	1043.1
981.423	1368.73
981.594	1587.86
981.765	912.03
981.936	1135.26
982.106	1241.75
982.277	1479.32
982.448	922.27
982.619	1227.42
982.79	1180.31
982.96	1475.22
983.131	1198.74
983.302	807.58
983.472	1233.56
983.643	1378.97
983.814	1225.37
983.984	950.94
984.155	1237.66
984.326	1438.36
984.496	1096.35
984.667	1057.43
984.837	1008.28
985.008	1434.26
985.178	1231.51
985.349	1114.78
985.519	1055.39
985.69	983.71
985.86	1127.07
986.031	901.79
986.201	1221.27
986.371	1278.62
986.542	866.97
986.712	772.77
986.882	1280.66
987.053	1143.45
987.223	916.12
987.393	1118.87
987.563	1016.48
987.734	1395.35
987.904	1270.42
988.074	879.26
988.244	1243.8
988.414	1020.57
988.585	864.93
988.755	1098.39
988.925	1055.39
989.095	1487.51
989.265	895.64
989.435	1039
989.605	1325.72
989.775	1268.38
989.945	1251.99
990.115	742.05
990.285	1094.3
990.455	1264.28
990.625	975.52
990.795	887.45
990.965	1385.11
991.134	936.6
991.304	918.17
991.474	912.03
991.644	1335.96
991.814	1473.17
991.984	707.23
992.153	809.63
992.323	981.66
992.493	1217.18
992.662	621.22
992.832	1006.24
993.002	1028.76
993.171	1096.35
993.341	670.37
993.511	869.02
993.68	918.17
993.85	1143.45
994.019	631.46
994.189	758.43
994.358	1180.31
994.528	869.02
994.697	631.46
994.867	770.72
995.036	1188.5
995.206	955.04
995.375	723.62
995.544	924.32
995.714	1106.59
995.883	969.37
996.052	885.41
996.222	529.06
996.391	1675.92
996.56	983.71
996.73	645.79
996.899	613.03
997.068	1315.48
997.237	944.8
997.406	674.46
997.576	674.46
997.745	1059.48
997.914	1065.63
998.083	432.8
998.252	694.94
998.421	926.36
998.59	785.05
998.759	545.44
998.928	520.87
999.097	1206.94
999.266	1000.09
999.435	881.31
999.604	527.01
999.773	1356.44
999.942	889.5
1000.111	643.74
1000.28	553.63
1000.448	610.98
1000.617	684.7
1000.786	852.64
1000.955	572.07
1001.124	862.88
1001.292	1510.04
1001.461	606.88
1001.63	633.5
1001.798	1223.32
1001.967	1174.17
1002.136	504.48
1002.304	522.91
1002.473	946.84
1002.642	926.36
1002.81	662.18
1002.979	563.87
1003.147	1047.19
1003.316	1428.12
1003.484	684.7
1003.653	535.2
1003.821	1196.7
1003.99	756.38
1004.158	621.22
1004.327	610.98
1004.495	1006.24
1004.663	674.46
1004.832	647.84
1005	494.24
1005.168	1024.67
1005.337	889.5
1005.505	367.27
1005.673	752.29
1005.842	1018.52
1006.01	1028.76
1006.178	490.15
1006.346	522.91
1006.514	875.17
1006.683	1178.26
1006.851	500.39
1007.019	373.41
1007.187	664.22
1007.355	393.89
1007.523	371.36
1007.691	408.23
1007.859	461.48
1008.027	1131.16
1008.195	500.39
1008.363	357.03
1008.531	1079.96
1008.699	664.22
1008.867	318.12
1009.035	498.34
1009.203	1094.3
1009.37	795.29
1009.538	631.46
1009.706	828.06
1009.874	760.48
1010.042	748.19
1010.209	328.36
1010.377	459.43
1010.545	993.95
1010.713	789.15
1010.88	471.72
1011.048	582.31
1011.216	676.51
1011.383	1045.15
1011.551	545.44
1011.718	316.07
1011.886	1036.95
1012.054	703.14
1012.221	441
1012.389	389.8
1012.556	649.89
1012.724	1086.11
1012.891	537.25
1013.058	330.41
1013.226	852.64
1013.393	926.36
1013.561	256.68
1013.728	254.63
1013.895	998.04
1014.063	803.49
1014.23	395.94
1014.397	424.61
1014.565	909.98
1014.732	686.75
1014.899	332.45
1015.066	348.84
1015.233	649.89
1015.401	846.49
1015.568	387.75
1015.735	559.78
1015.902	789.15
1016.069	881.31
1016.236	381.6
1016.403	352.93
1016.57	465.57
1016.737	762.53
1016.904	469.67
1017.071	365.22
1017.238	563.87
1017.405	869.02
1017.572	328.36
1017.739	500.39
1017.906	717.47
1018.073	889.5
1018.24	268.97
1018.407	385.7
1018.573	907.93
1018.74	633.5
1018.907	391.84
1019.074	236.2
1019.241	961.18
1019.407	658.08
1019.574	350.89
1019.741	301.73
1019.907	668.32
1020.074	627.36
1020.241	90.79
1020.407	240.29
1020.574	815.77
1020.74	764.57
1020.907	377.51
1021.073	242.34
1021.24	1051.29
1021.406	926.36
1021.573	320.17
1021.739	365.22
1021.906	815.77
1022.072	555.68
1022.239	326.31
1022.405	357.03
1022.571	631.46
1022.738	402.08
1022.904	185
1023.07	340.65
1023.237	596.64
1023.403	725.66
1023.569	252.58
1023.735	338.6
1023.902	651.94
1024.068	576.16
1024.234	189.1
1024.4	252.58
1024.566	729.76
1024.732	701.09
1024.898	250.53
1025.065	160.42
1025.231	703.14
1025.397	494.24
1025.563	236.2
1025.729	281.25
1025.895	135.85
1026.061	346.79
1026.227	41.64
1026.392	238.25
1026.558	793.25
1026.724	623.27
1026.89	101.03
1027.056	365.22
1027.222	533.15
1027.388	455.33
1027.553	195.24
1027.719	150.18
1027.885	887.45
1028.051	664.22
1028.216	-1.37
1028.382	199.34
1028.548	740
1028.713	457.38
1028.879	19.11
1029.045	365.22
1029.21	762.53
1029.376	729.76
1029.541	299.69
1029.707	303.78
1029.873	676.51
1030.038	731.81
1030.204	195.24
1030.369	266.92
1030.534	733.86
1030.7	498.34
1030.865	246.44
1031.031	197.29
1031.196	629.41
1031.361	490.15
1031.527	238.25
1031.692	68.27
1031.857	135.85
1032.023	680.61
1032.188	158.38
1032.353	207.53
1032.518	887.45
1032.684	578.21
1032.849	74.41
1033.014	203.43
1033.179	639.65
1033.344	672.42
1033.509	211.62
1033.674	154.28
1033.839	658.08
1034.004	721.57
1034.17	254.63
1034.335	70.31
1034.5	529.06
1034.664	246.44
1034.829	117.42
1034.994	150.18
1035.159	580.26
1035.324	604.83
1035.489	168.62
1035.654	131.75
1035.819	758.43
1035.984	467.62
1036.148	195.24
1036.313	148.14
1036.478	729.76
1036.643	541.35
1036.807	164.52
1036.972	43.69
1037.137	813.73
1037.301	438.95
1037.466	-25.94
1037.631	225.96
1037.795	703.14
1037.96	496.29
1038.124	291.49
1038.289	103.08
1038.454	598.69
1038.618	590.5
1038.783	182.95
1038.947	203.43
1039.111	502.43
1039.276	381.6
1039.44	121.51
1039.605	565.92
1039.769	375.46
1039.933	436.9
1040.098	141.99
1040.262	322.21
1040.426	684.7
1040.591	586.4
1040.755	35.5
1040.919	92.84
1041.083	512.67
1041.248	373.41
1041.412	-54.61
1041.576	-5.46
1041.74	465.57
1041.904	770.72
1042.068	33.45
1042.232	146.09
1042.397	649.89
1042.561	529.06
1042.725	-81.24
1042.889	232.1
1043.053	535.2
1043.217	537.25
1043.381	199.34
1043.544	58.03
1043.708	721.57
1043.872	213.67
1044.036	-173.39
1044.2	-27.99
1044.364	608.93
1044.528	826.01
1044.691	4473.45
1044.855	-85.33
1045.019	596.64
1045.183	613.03
1045.346	88.75
1045.51	-62.8
1045.674	510.63
1045.837	625.31
1046.001	156.33
1046.165	2.73
1046.328	932.51
1046.492	510.63
1046.655	203.43
1046.819	129.7
1046.983	281.25
1047.146	471.72
1047.31	74.41
1047.473	-79.19
1047.636	334.5
1047.8	193.19
1047.963	139.94
1048.127	8.87
1048.29	148.14
