Data from Ink_Intensity_USB4F045381__8__00008.txt Node

Date: Mon Jul 17 09:30:15 EDT 2023
User: mmckonesweet
Spectrometer: USB4F04538
Trigger mode: 4
Integration Time (sec): 9.000000E-1
Scans to average: 1
Electric dark correction enabled: true
Nonlinearity correction enabled: false
Boxcar width: 0
XAxis mode: Wavelengths
Number of Pixels in Spectrum: 3648
>>>>>Begin Spectral Data<<<<<
345.52	-916.3
345.736	-916.3
345.952	-916.3
346.168	-901.96
346.384	-949.06
346.6	-103.25
346.816	-275.28
347.032	-152.4
347.248	193.7
347.464	-170.83
347.68	-31.57
347.896	89.26
348.112	373.92
348.328	19.63
348.544	-158.55
348.76	-31.57
348.975	246.95
349.191	-199.51
349.407	-11.09
349.623	33.96
349.839	-4.95
350.055	1.19
350.27	232.62
350.486	220.33
350.702	445.6
350.918	287.91
351.133	-86.87
351.349	249
351.565	339.11
351.781	-162.64
351.996	81.07
352.212	449.7
352.428	-68.44
352.644	-80.72
352.859	-152.4
353.075	361.64
353.291	9.39
353.506	-50
353.722	-121.68
353.938	33.96
354.153	470.18
354.369	87.21
354.584	-64.34
354.8	322.73
355.016	-162.64
355.231	-146.26
355.447	27.82
355.662	79.02
355.878	969.88
356.093	-230.23
356.309	58.54
356.524	-146.26
356.74	210.09
356.955	-76.63
357.171	95.4
357.386	205.99
357.602	-203.6
357.817	13.48
358.033	-13.14
358.248	494.76
358.464	205.99
358.679	-25.43
358.895	-158.55
359.11	-19.29
359.325	404.64
359.541	273.57
359.756	46.25
359.972	-197.46
360.187	179.37
360.402	-47.96
360.618	-33.62
360.833	973.98
361.048	169.13
361.264	-17.24
361.479	74.92
361.694	15.53
361.909	271.53
362.125	-60.24
362.34	48.3
362.555	255.14
362.77	101.55
362.986	-107.35
363.201	74.92
363.416	171.18
363.631	23.72
363.847	-29.52
364.062	-45.91
364.277	222.38
364.492	195.75
364.707	36.01
364.922	-156.5
365.138	351.4
365.353	386.21
365.568	-170.83
365.783	-27.48
365.998	146.6
366.213	662.69
366.428	-78.68
366.643	189.61
366.858	373.92
367.073	341.16
367.288	79.02
367.503	-133.97
367.718	244.9
367.933	375.97
368.148	-97.11
368.363	126.12
368.578	50.35
368.793	607.39
369.008	-50
369.223	-47.96
369.438	386.21
369.653	586.91
369.868	-74.58
370.083	-78.68
370.298	189.61
370.513	476.32
370.728	187.56
370.943	105.64
371.157	-9.05
371.372	611.49
371.587	-60.24
371.802	25.77
372.017	187.56
372.232	627.87
372.446	111.78
372.661	-74.58
372.876	365.73
373.091	249
373.306	177.32
373.52	11.43
373.735	29.87
373.95	545.95
374.165	177.32
374.379	17.58
374.594	23.72
374.809	177.32
375.023	296.1
375.238	-68.44
375.453	357.54
375.667	-78.68
375.882	126.12
376.097	-4.95
376.311	228.52
376.526	113.83
376.741	1.19
376.955	269.48
377.17	693.41
377.384	650.4
377.599	97.45
377.813	-142.16
378.028	724.13
378.242	355.49
378.457	115.88
378.672	-66.39
378.886	289.96
379.101	173.22
379.315	-82.77
379.53	111.78
379.744	341.16
379.958	435.36
380.173	105.64
380.387	148.65
380.602	359.59
380.816	50.35
381.031	99.5
381.245	171.18
381.459	443.56
381.674	2530.44
381.888	111.78
382.103	414.88
382.317	5.29
382.531	713.89
382.746	177.32
382.96	169.13
383.174	199.85
383.388	566.43
383.603	337.06
383.817	29.87
384.031	400.55
384.246	703.65
384.46	353.45
384.674	619.68
384.888	242.85
385.103	330.92
385.317	38.06
385.531	289.96
385.745	545.95
385.959	476.32
386.174	97.45
386.388	134.31
386.602	384.16
386.816	107.69
387.03	251.05
387.244	226.47
387.458	402.6
387.672	654.5
387.887	91.31
388.101	74.92
388.315	695.46
388.529	459.94
388.743	218.28
388.957	105.64
389.171	654.5
389.385	83.11
389.599	298.15
389.813	488.61
390.027	570.53
390.241	957.6
390.455	312.49
390.669	316.58
390.883	253.09
391.097	840.86
391.311	398.5
391.525	251.05
391.738	464.04
391.952	447.65
392.166	363.69
392.38	236.71
392.594	754.85
392.808	736.42
393.022	324.77
393.236	371.88
393.449	578.72
393.663	548
393.877	275.62
394.091	339.11
394.305	318.63
394.518	388.26
394.732	259.24
394.946	298.15
395.16	765.09
395.373	539.81
395.587	285.86
395.801	371.88
396.015	744.61
396.228	623.78
396.442	279.72
396.656	189.61
396.869	722.08
397.083	783.52
397.297	441.51
397.51	312.49
397.724	838.81
397.938	672.93
398.151	212.14
398.365	296.1
398.578	660.64
398.792	750.75
399.005	554.15
399.219	464.04
399.433	533.67
399.646	652.45
399.86	578.72
400.073	568.48
400.287	677.02
400.5	410.79
400.714	560.29
400.927	556.19
401.141	685.22
401.354	1465.49
401.567	826.53
401.781	328.87
401.994	842.91
402.208	1193.11
402.421	410.79
402.635	634.02
402.848	591.01
403.061	879.77
403.275	715.94
403.488	380.07
403.701	1119.39
403.915	851.1
404.128	644.26
404.341	537.76
404.555	898.2
404.768	638.11
404.981	625.83
405.195	427.17
405.408	1209.5
405.621	861.34
405.834	730.27
406.048	507.04
406.261	933.02
406.474	1176.73
406.687	496.8
406.9	705.7
407.114	693.41
407.327	758.94
407.54	558.24
407.753	572.58
407.966	513.19
408.179	971.93
408.392	490.66
408.605	468.13
408.819	826.53
409.032	838.81
409.245	576.67
409.458	941.21
409.671	984.22
409.884	916.64
410.097	517.28
410.31	730.27
410.523	832.67
410.736	652.45
410.949	644.26
411.162	738.46
411.375	1229.98
411.588	1023.13
411.801	859.29
412.014	603.3
412.227	857.25
412.44	814.24
412.653	709.79
412.865	957.6
413.078	1035.42
413.291	967.84
413.504	861.34
413.717	701.6
413.93	1117.34
414.143	742.56
414.356	797.85
414.568	629.92
414.781	1160.34
414.994	1016.99
415.207	994.46
415.42	918.68
415.632	1178.78
415.845	1463.44
416.058	644.26
416.271	754.85
416.483	947.36
416.696	1492.12
416.909	867.49
417.121	912.54
417.334	1299.61
417.547	1531.03
417.759	906.4
417.972	726.18
418.185	904.35
418.397	1191.06
418.61	879.77
418.823	898.2
419.035	1467.54
419.248	1016.99
419.46	976.03
419.673	1045.66
419.885	1236.12
420.098	1090.71
420.311	914.59
420.523	787.61
420.736	1258.65
420.948	1131.67
421.161	924.83
421.373	838.81
421.586	1162.39
421.798	1023.13
422.01	916.64
422.223	1150.11
422.435	1043.61
422.648	1246.36
422.86	1092.76
423.073	1070.23
423.285	1535.12
423.497	1092.76
423.71	1016.99
423.922	1174.68
424.134	1359
424.347	1565.84
424.559	1424.53
424.771	1371.29
424.984	1264.79
425.196	1281.18
425.408	1082.52
425.621	986.27
425.833	1668.24
426.045	1602.71
426.257	1131.67
426.47	1184.92
426.682	1481.88
426.894	1590.42
427.106	1184.92
427.318	1410.2
427.531	1195.16
427.743	1600.66
427.955	1184.92
428.167	1639.57
428.379	1701.01
428.591	1453.2
428.804	1571.99
429.016	1309.85
429.228	1406.1
429.44	1555.6
429.652	1508.5
429.864	1213.59
430.076	1465.49
430.288	1500.31
430.5	1445.01
430.712	1465.49
430.924	1772.69
431.136	1610.9
431.348	1293.46
431.56	1375.38
431.772	1627.28
431.984	1553.55
432.196	1481.88
432.408	1619.09
432.62	1584.27
432.832	1819.79
433.044	1764.5
433.256	1721.49
433.468	1873.04
433.679	1445.01
433.891	1594.51
434.103	1914
434.315	2176.14
434.527	1987.72
434.739	1703.06
434.95	1631.38
435.162	2057.36
435.374	1784.98
435.586	1727.63
435.798	1819.79
436.009	1662.1
436.221	1866.89
436.433	1846.41
436.645	1772.69
436.856	1916.05
437.068	2290.82
437.28	1674.39
437.491	2112.65
437.703	2014.35
437.915	1985.68
438.126	1850.51
438.338	2106.51
438.55	2022.54
438.761	2233.48
438.973	1903.76
439.184	1866.89
439.396	2213
439.608	2409.61
439.819	1758.35
440.031	2096.27
440.242	2288.78
440.454	2194.57
440.665	2010.25
440.877	2178.19
441.088	2299.02
441.3	2077.83
441.511	1973.39
441.723	2000.01
441.934	2274.44
442.146	2102.41
442.357	2290.82
442.569	2356.36
442.78	2280.58
442.991	2593.92
443.203	2505.86
443.414	2102.41
443.626	2569.35
443.837	2344.07
444.048	2116.75
444.26	2194.57
444.471	2301.06
444.682	2643.07
444.894	2077.83
445.105	2081.93
445.316	2645.12
445.528	2518.15
445.739	2348.17
445.95	2421.89
446.161	2550.92
446.373	2757.76
446.584	2231.43
446.795	2358.41
447.006	2610.31
447.217	2806.91
447.429	2122.89
447.64	2307.21
447.851	2675.84
448.062	2571.4
448.273	2213
448.484	2354.31
448.695	2692.23
448.907	2419.85
449.118	2499.72
449.329	2696.32
449.54	2522.24
449.751	2483.33
449.962	2477.19
450.173	2530.44
450.384	2937.98
450.595	2997.37
450.806	2577.54
451.017	2579.59
451.228	3099.77
451.439	3052.67
451.65	2636.93
451.861	2354.31
452.072	2653.31
452.283	2839.68
452.494	2858.11
452.705	2571.4
452.915	3312.76
453.126	3157.11
453.337	2694.27
453.548	2688.13
453.759	3163.26
453.97	3478.65
454.181	2991.23
454.391	2874.49
454.602	3120.25
454.813	3089.53
455.024	3142.78
455.235	2800.77
455.445	3212.41
455.656	3198.07
455.867	3167.35
456.078	2911.36
456.288	3075.2
456.499	3320.95
456.71	2997.37
456.921	3271.8
457.131	3441.78
457.342	3404.92
457.553	3175.55
457.763	3085.44
457.974	3705.97
458.184	3517.56
458.395	3304.57
458.606	3167.35
458.816	3783.79
459.027	4039.79
459.237	3470.45
459.448	3314.81
459.659	3820.66
459.869	4275.31
460.08	3331.19
460.29	3667.06
460.501	4224.11
460.711	3626.1
460.922	3417.21
461.132	3708.02
461.343	4338.79
461.553	3572.85
461.764	3720.31
461.974	3763.31
462.184	4168.81
462.395	4084.84
462.605	4035.69
462.816	3791.98
463.026	3951.73
463.236	4490.34
463.447	3912.81
463.657	3978.35
463.867	4521.06
464.078	4260.97
464.288	4127.85
464.498	4283.5
464.709	4396.14
464.919	4353.13
465.129	4394.09
465.339	4346.98
465.55	4625.51
465.76	4713.57
465.97	4340.84
466.18	4330.6
466.391	4795.49
466.601	4854.88
466.811	4615.27
467.021	4672.61
467.231	4848.74
467.441	4975.71
467.651	4846.69
467.862	4576.36
468.072	5110.88
468.282	5553.24
468.492	4893.79
468.702	5211.23
468.912	5282.91
469.122	5887.06
469.332	5438.55
469.542	5360.73
469.752	5598.29
469.962	5796.95
470.172	5481.56
470.382	5524.57
470.592	5948.5
470.802	5971.02
471.012	5807.19
471.222	5651.54
471.432	6200.4
471.642	6020.17
471.852	6108.24
472.062	5987.41
472.272	6186.06
472.482	5966.93
472.691	6190.16
472.901	5995.6
473.111	6489.16
473.321	7001.15
473.531	6310.99
473.741	6536.26
473.95	6775.88
474.16	6800.45
474.37	6761.54
474.58	6712.39
474.79	7494.71
474.999	7332.92
475.209	6775.88
475.419	7222.33
475.628	7195.71
475.838	7631.93
476.048	7334.97
476.258	7265.34
476.467	7787.57
476.677	7697.46
476.886	7873.59
477.096	7869.49
477.306	7789.62
477.515	8164.4
477.725	7769.14
477.935	8078.38
478.144	8381.48
478.354	8010.8
478.563	8197.17
478.773	8352.81
478.982	8684.58
479.192	9073.7
479.401	8498.22
479.611	8526.89
479.82	8608.81
480.03	9071.65
480.239	8877.09
480.449	8614.95
480.658	9485.34
480.868	9241.63
481.077	9354.27
481.287	9104.42
481.496	9626.65
481.705	10030.1
481.915	9655.32
482.124	9882.64
482.333	9874.45
482.543	10206.22
482.752	9802.77
482.961	9923.6
483.171	10423.31
483.38	10191.89
483.589	10228.75
483.799	10042.39
484.008	10658.82
484.217	10837
484.426	10325.01
484.636	10329.1
484.845	10763.27
485.054	10693.64
485.263	11078.66
485.472	10822.66
485.682	11367.42
485.891	11332.61
486.1	10906.63
486.309	11211.78
486.518	11541.5
486.727	11545.59
486.936	11312.13
487.146	11344.89
487.355	11981.81
487.564	11729.91
487.773	11760.63
487.982	11777.01
488.191	11953.14
488.4	11965.43
488.609	12106.74
488.818	12270.58
489.027	12983.27
489.236	12868.58
489.445	12352.49
489.654	12418.03
489.863	12749.8
490.072	12698.6
490.281	13013.99
490.49	12669.93
490.698	13603.8
490.907	13364.19
491.116	13003.75
491.325	13034.47
491.534	13386.72
491.743	13554.65
491.952	13276.13
492.16	13368.29
492.369	13919.19
492.578	13894.61
492.787	13489.12
492.996	13390.81
493.204	13476.83
493.413	14447.57
493.622	13749.21
493.831	13824.98
494.039	14635.98
494.248	13945.81
494.457	14195.67
494.665	13978.58
494.874	14494.67
495.083	15021
495.291	14562.25
495.5	14341.07
495.709	14797.77
495.917	14750.67
496.126	14724.04
496.335	14437.33
496.543	14984.13
496.752	15227.84
496.96	15397.82
497.169	14621.64
497.377	15229.89
497.586	15713.21
497.794	15182.79
498.003	15152.07
498.211	15655.87
498.42	15903.67
498.628	15602.62
498.837	15479.74
499.045	15637.44
499.254	15856.57
499.462	15866.81
499.671	15784.89
499.879	16157.62
500.087	16464.82
500.296	15961.02
500.504	16014.26
500.713	16413.62
500.921	16987.05
501.129	16012.21
501.338	16212.92
501.546	16690.09
501.754	16792.49
501.962	16581.55
502.171	16343.99
502.379	16800.68
502.587	17183.65
502.795	16778.15
503.004	16405.42
503.212	17118.12
503.42	17308.58
503.628	16778.15
503.837	17175.46
504.045	17472.42
504.253	17693.6
504.461	16896.94
504.669	16982.95
504.877	17822.62
505.085	17884.06
505.294	17191.84
505.502	17386.4
505.71	17505.18
505.918	17824.67
506.126	17501.09
506.334	17509.28
506.542	17677.21
506.75	17953.69
506.958	18037.66
507.166	17828.76
507.374	17996.7
507.582	18484.11
507.79	17896.35
507.998	17906.59
508.206	18449.3
508.414	18342.8
508.622	18326.42
508.83	18289.56
509.037	18703.25
509.245	18191.25
509.453	18461.58
509.661	18338.71
509.869	18688.91
510.077	18666.38
510.285	18807.69
510.492	18473.87
510.7	19233.67
510.908	18615.18
511.116	18797.45
511.324	18934.67
511.531	18946.95
511.739	19078.02
511.947	19205
512.155	19374.98
512.362	19110.79
512.57	19020.68
512.778	18977.67
512.985	19233.67
513.193	19651.45
513.401	19710.85
513.608	19561.34
513.816	19395.46
514.024	19532.67
514.231	19686.27
514.439	19489.67
514.646	19592.06
514.854	19919.74
515.061	19839.87
515.269	19680.13
515.477	19821.44
515.684	19878.78
515.892	20335.48
516.099	19729.28
516.307	19583.87
516.514	20534.13
516.722	20685.68
516.929	19975.03
517.136	19733.37
517.344	20515.7
517.551	20441.97
517.759	20024.19
517.966	20243.32
518.173	20317.04
518.381	20769.65
518.588	20538.23
518.796	20657.01
519.003	21017.45
519.21	20900.72
519.418	20855.66
519.625	20857.71
519.832	20507.51
520.039	20988.78
520.247	20638.58
520.454	21078.89
520.661	21627.74
520.868	21179.24
521.076	21402.47
521.283	21398.37
521.49	21662.56
521.697	21427.04
521.904	21459.81
522.112	21240.68
522.319	21738.33
522.526	21457.76
522.733	21586.79
522.94	21601.12
523.147	21662.56
523.354	22135.64
523.561	21291.88
523.768	21963.61
523.975	22137.69
524.183	22227.8
524.39	21994.33
524.597	21807.97
524.804	22326.1
525.011	22459.22
525.218	22004.57
525.425	22332.25
525.632	22770.51
525.838	22401.88
526.045	22600.53
526.252	22600.53
526.459	23765.82
526.666	23427.91
526.873	22549.33
527.08	22739.79
527.287	23233.35
527.494	23169.87
527.701	22637.39
527.907	22512.47
528.114	23145.29
528.321	23300.94
528.528	23001.93
528.735	23188.3
528.941	23309.13
529.148	22999.88
529.355	23126.86
529.562	23229.26
529.768	23745.34
529.975	23243.59
530.182	23362.37
530.388	23200.58
530.595	23991.1
530.802	23475.01
531.008	24122.17
531.215	23980.86
531.422	24441.65
531.628	24916.78
531.835	24062.78
532.042	23831.36
532.248	24261.43
532.455	24496.95
532.661	24345.4
532.868	24167.23
533.074	24617.78
533.281	24617.78
533.487	24486.71
533.694	24099.64
533.9	24863.54
534.107	24640.31
534.313	24679.22
534.52	24468.28
534.726	25129.77
534.933	25305.9
535.139	24742.71
535.345	24800.05
535.552	24978.22
535.758	25389.86
535.965	25019.18
536.171	24802.1
536.377	25740.07
536.584	25860.9
536.79	25363.24
536.996	25592.61
537.203	25604.9
537.409	25563.94
537.615	25383.72
537.821	25545.51
538.028	26311.45
538.234	25660.2
538.44	25701.15
538.646	25453.35
538.853	25967.39
539.059	25789.22
539.265	26303.26
539.471	25690.91
539.677	26487.57
539.883	26209.05
540.09	26018.59
540.296	26909.46
540.502	26346.26
540.708	26110.75
540.914	26250.01
541.12	26209.05
541.326	27177.74
541.532	26897.17
541.738	26710.8
541.944	26493.72
542.15	27192.08
542.356	26983.18
542.562	27024.14
542.768	26874.64
542.974	27826.95
543.18	27804.42
543.386	26923.79
543.592	27331.34
543.798	27517.7
544.004	27691.78
544.21	27415.3
544.415	27484.94
544.621	28177.15
544.827	27943.68
545.033	27525.89
545.239	27591.43
545.445	27898.62
545.651	27742.98
545.856	27798.27
546.062	27886.34
546.268	27773.7
546.474	27933.44
546.679	27478.79
546.885	27939.58
547.091	27720.45
547.297	28173.05
547.502	27816.71
547.708	27591.43
547.914	27878.15
548.119	28187.39
548.325	27783.94
548.531	27646.72
548.736	28359.42
548.942	28035.84
549.147	27986.69
549.353	28488.44
549.559	28654.33
549.764	28474.1
549.97	28285.69
550.175	28291.83
550.381	28912.37
550.586	28222.2
550.792	28689.14
550.997	28703.48
551.203	29123.31
551.408	29104.88
551.614	28678.9
551.819	28965.62
552.025	29717.22
552.23	29872.87
552.435	28902.13
552.641	29663.97
552.846	29543.14
553.052	29903.59
553.257	29391.59
553.462	29780.71
553.668	29635.3
553.873	29780.71
554.078	29547.24
554.283	29637.35
554.489	30149.34
554.694	29983.46
554.899	29989.6
555.105	29786.85
555.31	30055.14
555.515	30319.32
555.72	30319.32
555.925	29917.92
556.131	30667.48
556.336	29782.76
556.541	30319.32
556.746	29942.5
556.951	30690.01
557.156	30618.33
557.361	30395.1
557.567	30616.28
557.772	31158.99
557.977	30743.25
558.182	30466.78
558.387	30794.45
558.592	30532.31
558.797	31105.74
559.002	30700.25
559.207	31048.4
559.412	30933.71
559.617	31437.51
559.822	30966.48
560.027	30585.56
560.232	31300.3
560.437	31394.51
560.642	30622.42
560.847	31056.59
561.051	31085.26
561.256	30749.4
561.461	31245.01
561.666	31302.35
561.871	31097.55
562.076	31791.81
562.281	30991.06
562.485	30943.95
562.69	31126.22
562.895	31544.01
563.1	31621.83
563.305	31404.75
563.509	31916.74
563.714	32137.92
563.919	31482.57
564.123	31263.44
564.328	31800.01
564.533	32027.33
564.737	31359.69
564.942	31441.61
565.147	32174.78
565.351	32600.76
565.556	31804.1
565.761	32254.65
565.965	32410.3
566.17	31677.13
566.374	31541.96
566.579	31769.29
566.784	31795.91
566.988	32174.78
567.193	31908.55
567.397	32068.29
567.602	32457.4
567.806	32406.2
568.011	32490.17
568.215	32475.84
568.42	32357.05
568.624	32438.97
568.828	32178.88
569.033	32479.93
569.237	32795.32
569.442	32934.58
569.646	32342.72
569.85	32850.61
570.055	32694.97
570.259	33079.99
570.463	32699.06
570.668	32481.98
570.872	32686.78
571.076	32942.77
571.281	32776.89
571.485	33176.24
571.689	32959.16
571.893	33397.42
572.098	33366.7
572.302	32881.33
572.506	33487.53
572.71	32916.15
572.914	33278.64
573.119	33397.42
573.323	33772.2
573.527	33206.96
573.731	33305.26
573.935	33227.44
574.139	33749.67
574.343	33428.14
574.547	33632.94
574.751	33583.79
574.955	33893.03
575.159	33764.01
575.364	33426.09
575.568	33385.13
575.772	33878.69
575.976	34179.75
576.18	33571.5
576.383	33792.68
576.587	34439.84
576.791	34290.34
576.995	33573.55
577.199	33944.23
577.403	34232.99
577.607	34826.9
577.811	34343.58
578.015	34505.37
578.219	34374.3
578.422	34704.03
578.626	34321.05
578.83	33962.66
579.034	34738.84
579.238	34280.1
579.442	34497.18
579.645	34863.77
579.849	34679.45
580.053	35136.15
580.257	34529.95
580.46	34548.38
580.664	35050.13
580.868	34970.26
581.071	35252.88
581.275	34501.28
581.479	34882.2
581.682	34947.73
581.886	34538.14
582.09	35039.89
582.293	35639.95
582.497	35291.79
582.7	35175.06
582.904	35342.99
583.107	35367.57
583.311	34988.69
583.515	35240.59
583.718	35328.66
583.922	35902.09
584.125	35912.33
584.329	35306.13
584.532	35648.14
584.735	36088.45
584.939	35693.19
585.142	35285.65
585.346	35488.4
585.549	36010.63
585.753	36029.06
585.956	35764.87
586.159	35705.48
586.363	36852.34
586.566	36395.65
586.769	35897.99
586.973	35887.75
587.176	36563.58
587.379	36391.55
587.582	36323.97
587.786	36334.21
587.989	36401.79
588.192	37124.72
588.395	36510.33
588.599	36373.12
588.802	36924.02
589.005	36455.04
589.208	36686.46
589.411	36737.66
589.615	36921.98
589.818	37276.27
590.021	37026.42
590.224	36944.5
590.427	36971.13
590.63	37087.86
590.833	36983.41
591.036	36852.34
591.239	37032.57
591.442	36895.35
591.645	37175.92
591.848	37079.67
592.051	37401.2
592.254	37147.25
592.457	37237.36
592.66	37173.88
592.863	37868.14
593.066	37589.61
593.269	37847.66
593.472	37708.4
593.675	37448.3
593.878	37661.29
594.081	37806.7
594.284	37798.51
594.486	38117.99
594.689	38236.77
594.892	37651.05
595.095	37843.56
595.298	38242.92
595.5	37843.56
595.703	38398.56
595.906	38144.61
596.109	38320.74
596.311	38941.27
596.514	38050.41
596.717	38206.05
596.92	39141.97
597.122	38445.66
597.325	37880.42
597.528	38447.71
597.73	39641.68
597.933	38797.91
598.136	38785.63
598.338	38101.61
598.541	38677.08
598.743	39297.62
598.946	38711.9
599.148	38881.88
599.351	39440.98
599.554	39443.02
599.756	38769.24
599.959	38953.56
600.161	39428.69
600.363	39940.68
600.566	39115.35
600.768	39103.06
600.971	39641.68
601.173	39590.48
601.376	39131.73
601.578	39162.45
601.78	39625.29
601.983	39764.56
602.185	39017.05
602.388	39608.91
602.59	39592.53
602.792	39422.55
602.995	39629.39
603.197	38967.9
603.399	39502.42
603.601	39940.68
603.804	38978.14
604.006	39297.62
604.208	39086.68
604.41	39025.24
604.613	39526.99
604.815	39141.97
605.017	40766.01
605.219	39567.95
605.421	39426.64
605.623	39995.98
605.826	40677.95
606.028	40303.17
606.23	40020.55
606.432	39367.25
606.634	40555.07
606.836	40241.73
607.038	39875.15
607.24	39832.14
607.442	40233.54
607.644	40319.56
607.846	40225.35
608.048	39625.29
608.25	40241.73
608.452	39676.49
608.654	40208.97
608.856	39776.84
609.058	40337.99
609.26	40284.74
609.462	40168.01
609.664	40063.56
609.866	40327.75
610.067	40546.88
610.269	40440.39
610.471	40038.98
610.673	40708.67
610.875	40489.54
611.077	40108.61
611.278	40030.79
611.48	40510.02
611.682	40589.89
611.884	40469.06
612.085	40116.81
612.287	39963.21
612.489	40413.76
612.69	39731.79
612.892	40905.27
613.094	40483.39
613.295	40211.01
613.497	40456.77
613.699	40268.36
613.9	40909.37
614.102	41136.69
614.304	40114.76
614.505	39639.63
614.707	40286.79
614.908	39879.24
615.11	39750.22
615.311	40108.61
615.513	40151.62
615.714	40684.09
615.916	39936.59
616.117	40059.46
616.319	40479.3
616.52	40743.48
616.722	40426.05
616.923	40636.99
617.124	41056.82
617.326	40454.72
617.527	40528.45
617.729	41187.89
617.93	40993.34
618.131	41198.13
618.333	40813.12
618.534	40401.47
618.735	40612.41
618.937	41181.75
619.138	40241.73
619.339	40645.18
619.54	41118.26
619.742	40876.6
619.943	40872.51
620.144	40940.09
620.345	41235
620.546	40919.61
620.748	40964.67
620.949	40307.27
621.15	40872.51
621.351	40952.38
621.552	41050.68
621.753	40993.34
621.954	40766.01
622.155	41310.77
622.356	40690.24
622.558	40833.6
622.759	40868.41
622.96	41378.36
623.161	40630.85
623.362	40731.2
623.563	41099.83
623.764	41067.06
623.965	40583.74
624.166	41214.52
624.366	40544.83
624.567	40995.39
624.768	40538.69
624.969	40927.8
625.17	41169.46
625.371	41019.96
625.572	40979
625.773	41144.89
625.973	41413.17
626.174	41335.35
626.375	41206.33
626.576	41093.69
626.777	41361.97
626.977	41202.23
627.178	41415.22
627.379	41226.81
627.58	41173.56
627.78	41540.14
627.981	41210.42
628.182	40905.27
628.382	41382.45
628.583	41194.04
628.784	41013.82
628.984	41239.09
629.185	41577.01
629.386	40804.92
629.586	41361.97
629.787	41671.21
629.987	41708.08
630.188	41871.92
630.388	41830.96
630.589	41321.01
630.79	42486.31
630.99	41939.5
631.191	42258.98
631.391	41730.61
631.591	41951.79
631.792	42125.86
631.992	42330.66
632.193	41863.72
632.393	41816.62
632.594	41833
632.794	41349.68
632.994	41755.18
633.195	41984.55
633.395	41890.35
633.595	41964.07
633.796	42078.76
633.996	42140.2
634.196	42060.33
634.397	41796.14
634.597	41460.27
634.797	41755.18
634.997	42263.08
635.198	42230.31
635.398	41677.36
635.598	42480.16
635.798	42560.03
635.998	41984.55
636.199	42148.39
636.399	42119.72
636.599	42179.11
636.799	41871.92
636.999	41663.02
637.199	41869.87
637.399	41767.47
637.599	41798.19
637.799	41900.59
637.999	42279.46
638.199	42576.42
638.399	41560.62
638.599	41955.88
638.799	42631.71
638.999	43051.55
639.199	42652.19
639.399	42345
639.599	42492.45
639.799	42091.05
639.999	42420.77
640.199	42408.48
640.399	42629.66
640.599	41626.16
640.799	42885.66
640.998	42445.35
641.198	42719.77
641.398	42355.24
641.598	42818.08
641.798	42779.17
641.997	43489.81
642.197	43053.59
642.397	42795.55
642.597	42697.25
642.796	42916.38
642.996	43289.11
643.196	42781.21
643.395	42584.61
643.595	43305.49
643.795	42576.42
643.994	42627.62
644.194	43006.49
644.394	43219.48
644.593	43018.78
644.793	42775.07
644.992	42863.13
645.192	43092.51
645.392	42910.24
645.591	43272.73
645.791	43262.49
645.99	43305.49
646.19	43135.51
646.389	42840.6
646.589	42850.84
646.788	43278.87
646.987	43266.58
647.187	43215.38
647.386	42775.07
647.586	43233.81
647.785	43067.93
647.984	43418.13
648.184	43420.18
648.383	43078.17
648.582	43319.83
648.782	43282.97
648.981	43153.94
649.18	42992.15
649.38	43282.97
649.579	43313.69
649.778	43168.28
649.977	43983.37
650.177	43090.46
650.376	43401.75
650.575	43002.39
650.774	43649.55
650.973	43067.93
651.173	43153.94
651.372	43221.53
651.571	43747.86
651.77	43725.33
651.969	43014.68
652.168	43319.83
652.367	43424.28
652.566	43350.55
652.765	43514.39
652.964	43694.61
653.163	43614.74
653.362	43780.62
653.561	43305.49
653.76	43790.86
653.959	43377.17
654.158	44417.54
654.357	43895.31
654.556	43637.26
654.755	44435.97
654.954	43911.69
655.153	43139.61
655.352	43381.27
655.551	44257.8
655.749	43921.93
655.948	43684.37
656.147	43985.42
656.346	44089.87
656.545	43819.53
656.743	43543.06
656.942	43917.84
657.141	43663.89
657.34	43571.73
657.538	43614.74
657.737	43807.25
657.936	43919.88
658.135	44032.52
658.333	43409.94
658.532	44106.25
658.731	44425.73
658.929	43989.52
659.128	44175.88
659.326	43717.14
659.525	44300.81
659.724	44151.3
659.922	43657.74
660.121	43778.57
660.319	44093.96
660.518	43710.99
660.716	43846.16
660.915	44053
661.113	44196.36
661.312	43696.66
661.51	43844.11
661.709	43366.93
661.907	43981.32
662.105	44298.76
662.304	43903.5
662.502	44048.91
662.701	44411.4
662.899	44136.97
663.097	43942.41
663.296	43561.49
663.494	44730.88
663.692	44608
663.891	43614.74
664.089	43598.35
664.287	44534.28
664.485	44644.87
664.684	44253.7
664.882	44309
665.08	44073.48
665.278	44311.05
665.476	43704.85
665.675	44329.48
665.873	44544.51
666.071	44392.97
666.269	43797.01
666.467	44204.55
666.665	44743.17
666.863	43639.31
667.061	43739.66
667.259	44304.9
667.457	44157.45
667.655	44122.63
667.853	44104.2
668.051	44218.89
668.249	43966.99
668.447	43794.96
668.645	43704.85
668.843	44163.59
669.041	43964.94
669.239	44030.47
669.437	44155.4
669.635	44388.87
669.833	44014.09
670.031	44061.19
670.229	43418.13
670.426	43889.16
670.624	43751.95
670.822	43639.31
671.02	43473.43
671.218	43393.56
671.415	43981.32
671.613	43682.32
671.811	43786.77
672.009	43696.66
672.206	44065.29
672.404	43794.96
672.602	43930.12
672.799	43999.76
672.997	43966.99
673.195	44380.68
673.392	44339.72
673.59	43749.9
673.788	44055.05
673.985	43141.66
674.183	43954.7
674.38	43731.47
674.578	44366.34
674.775	43837.97
674.973	43344.41
675.17	43459.09
675.368	43960.84
675.565	43700.75
675.763	43588.11
675.96	43463.19
676.158	44093.96
676.355	43663.89
676.553	43586.07
676.75	43325.97
676.947	43985.42
677.145	43160.09
677.342	43504.15
677.539	43743.76
677.737	43846.16
677.934	43885.07
678.131	43508.24
678.329	43858.45
678.526	43581.97
678.723	43553.3
678.92	43665.94
679.118	43278.87
679.315	42973.72
679.512	43749.9
679.709	43211.29
679.906	42848.8
680.104	43819.53
680.301	43797.01
680.498	43248.15
680.695	43246.1
680.892	43190.81
681.089	43256.34
681.286	43254.29
681.483	42547.75
681.68	43831.82
681.877	43807.25
682.075	42811.93
682.272	43403.8
682.469	43239.96
682.665	42799.65
682.862	42754.59
683.059	42738.21
683.256	42658.34
683.453	42918.43
683.65	42687.01
683.847	43115.03
684.044	42701.34
684.241	42402.34
684.438	43199
684.635	42127.91
684.831	43004.44
685.028	43155.99
685.225	42336.8
685.422	42723.87
685.619	43153.94
685.815	42801.69
686.012	42662.43
686.209	42404.39
686.405	42824.22
686.602	42955.29
686.799	41992.75
686.996	42607.14
687.192	42297.89
687.389	42797.6
687.586	42502.69
687.782	42709.53
687.979	43080.22
688.175	42529.31
688.372	42324.52
688.568	41888.3
688.765	42197.54
688.962	42455.59
689.158	42084.9
689.355	42263.08
689.551	42197.54
689.748	42197.54
689.944	41945.64
690.14	41828.91
690.337	42183.21
690.533	42549.79
690.73	41804.33
690.926	42072.62
691.123	41415.22
691.319	41835.05
691.515	41552.43
691.712	41585.2
691.908	42160.68
692.104	41730.61
692.301	41511.47
692.497	41648.69
692.693	42007.08
692.889	42045.99
693.086	41826.86
693.282	41458.23
693.478	41839.15
693.674	42162.73
693.87	41523.76
694.067	41591.34
694.263	41998.89
694.459	41630.26
694.655	42039.85
694.851	41488.95
695.047	41804.33
695.243	41744.94
695.439	41271.86
695.635	41196.09
695.831	41667.12
696.027	41394.74
696.224	41267.76
696.42	41642.54
696.615	42101.29
696.811	41476.66
697.007	41069.11
697.203	40880.7
697.399	41468.47
697.595	41525.81
697.791	40831.55
697.987	41017.91
698.183	40739.39
698.379	40866.36
698.575	41218.61
698.77	40927.8
698.966	41001.53
699.162	41439.79
699.358	41435.7
699.554	41069.11
699.749	41288.24
699.945	41247.29
700.141	40815.16
700.337	41122.36
700.532	40755.77
700.728	41153.08
700.924	40843.84
701.119	40538.69
701.315	40892.99
701.511	40680
701.706	41230.9
701.902	40483.39
702.097	40766.01
702.293	41167.41
702.489	40557.12
702.684	40809.02
702.88	40804.92
703.075	40858.17
703.271	40217.16
703.466	40550.98
703.662	40725.05
703.857	41132.6
704.053	40815.16
704.248	40720.96
704.443	41126.46
704.639	40772.16
704.834	40677.95
705.03	40479.3
705.225	40604.22
705.42	40409.67
705.616	40387.14
705.811	40084.04
706.006	40364.61
706.202	40477.25
706.397	40206.92
706.592	39899.72
706.787	40188.49
706.983	40567.36
707.178	40970.81
707.373	40516.16
707.568	41005.62
707.763	40518.21
707.959	40403.52
708.154	40952.38
708.349	40008.26
708.544	40809.02
708.739	40051.27
708.934	39778.89
709.129	40161.86
709.324	40360.51
709.519	39727.69
709.714	40106.57
709.909	40507.97
710.104	39881.29
710.299	39268.95
710.494	39864.91
710.689	40145.48
710.884	39807.56
711.079	40460.87
711.274	39766.6
711.469	40202.82
711.664	39864.91
711.859	39561.81
712.054	39887.43
712.249	40022.6
712.443	40348.23
712.638	39369.3
712.833	39469.65
713.028	39770.7
713.223	39656.01
713.417	39752.27
713.612	39627.34
713.807	40125
714.002	40137.29
714.196	39998.02
714.391	39488.08
714.586	39799.37
714.78	39131.73
714.975	39594.57
715.17	39389.78
715.364	38982.23
715.559	39666.25
715.754	38812.25
715.948	38812.25
716.143	39608.91
716.337	39281.24
716.532	39590.48
716.726	38976.09
716.921	39432.78
717.115	39877.19
717.31	38787.67
717.504	39531.09
717.699	39256.66
717.893	39336.53
718.088	38842.97
718.282	38976.09
718.476	38976.09
718.671	38920.79
718.865	38861.4
719.059	38652.51
719.254	38392.42
719.448	39021.14
719.642	39819.85
719.837	38126.18
720.031	38414.94
720.225	38453.86
720.419	38290.02
720.614	38398.56
720.808	38646.36
721.002	38322.79
721.196	38394.46
721.39	37943.91
721.585	38402.66
721.779	38287.97
721.973	37784.17
722.167	37894.76
722.361	38478.43
722.555	38359.65
722.749	37634.67
722.943	38072.93
723.137	37657.2
723.331	38101.61
723.525	37804.65
723.719	37778.03
723.913	38216.29
724.107	37917.29
724.301	37823.08
724.495	37972.58
724.689	38224.48
724.883	38349.41
725.077	38077.03
725.271	38216.29
725.465	38492.77
725.659	37915.24
725.853	37634.67
726.046	37569.13
726.24	37233.27
726.434	37870.18
726.628	37618.28
726.822	37489.26
727.015	37929.58
727.209	37900.9
727.403	37737.07
727.596	37515.89
727.79	38060.65
727.984	37710.44
728.177	37495.41
728.371	37683.82
728.565	37642.86
728.758	37282.42
728.952	36938.36
729.146	37233.27
729.339	37853.8
729.533	37751.4
729.726	37290.61
729.92	37659.24
730.113	37859.94
730.307	37388.91
730.5	36991.61
730.694	37188.21
730.887	37061.24
731.081	37730.92
731.274	37472.88
731.468	37311.09
731.661	37530.22
731.854	37616.24
732.048	37321.33
732.241	37311.09
732.435	37094
732.628	37540.46
732.821	37495.41
733.014	37137.01
733.208	37042.81
733.401	37587.57
733.594	37091.96
733.788	36969.08
733.981	37587.57
734.174	37513.84
734.367	37139.06
734.56	37536.37
734.754	37497.45
734.947	37562.99
735.14	37137.01
735.333	37599.85
735.526	37651.05
735.719	36915.83
735.912	37051
736.105	37171.83
736.298	37073.52
736.491	37198.45
736.684	36901.5
736.877	36868.73
737.07	37196.4
737.263	37562.99
737.456	36936.31
737.649	37147.25
737.842	36993.65
738.035	37003.89
738.228	36764.28
738.421	37151.35
738.614	37886.57
738.807	37630.57
739	36915.83
739.192	36303.49
739.385	36868.73
739.578	37046.9
739.771	36598.4
739.964	36754.04
740.156	36905.59
740.349	36549.24
740.542	37206.64
740.735	36389.5
740.927	36594.3
741.12	36981.37
741.313	36708.99
741.505	37110.39
741.698	36838.01
741.891	36614.78
742.083	36098.69
742.276	36799.1
742.468	36704.89
742.661	36496
742.854	36614.78
743.046	36471.42
743.239	36835.96
743.431	36551.29
743.624	36407.94
743.816	36364.93
744.009	36653.69
744.201	36749.95
744.393	36391.55
744.586	36242.05
744.778	36741.75
744.971	36694.65
745.163	36254.34
745.355	36141.7
745.548	36317.82
745.74	36516.48
745.932	36379.26
746.125	36268.67
746.317	37022.33
746.509	36416.13
746.702	36764.28
746.894	36393.6
747.086	36014.73
747.278	36369.02
747.471	36059.78
747.663	36199.04
747.855	36219.52
748.047	36588.16
748.239	35930.76
748.431	35621.52
748.623	36782.71
748.815	35965.57
749.008	35760.78
749.2	35832.46
749.392	35955.33
749.584	35902.09
749.776	35949.19
749.968	35965.57
750.16	36573.82
750.352	35728.01
750.544	35803.78
750.736	35930.76
750.928	36135.56
751.12	36145.8
751.311	35627.66
751.503	35603.08
751.695	35594.89
751.887	35506.83
752.079	35373.71
752.271	35285.65
752.463	36287.1
752.654	35431.05
752.846	35707.53
753.038	35390.09
753.23	35392.14
753.421	35414.67
753.613	35187.35
753.805	35644.04
753.997	35373.71
754.188	35259.02
754.38	35052.18
754.572	34867.86
754.763	35295.89
754.955	35424.91
755.146	35299.98
755.338	35130
755.53	34894.49
755.721	34972.31
755.913	34876.05
756.104	34015.91
756.296	34699.93
756.487	34917.01
756.679	34247.33
756.87	34284.19
757.062	34292.38
757.253	35306.13
757.445	34763.42
757.636	34986.64
757.827	34509.47
758.019	35349.14
758.21	34409.12
758.401	34206.37
758.593	34933.4
758.784	34878.1
758.975	33899.17
759.167	33893.03
759.358	34304.67
759.549	34525.85
759.74	33940.13
759.932	33917.61
760.123	34497.18
760.314	33792.68
760.505	33938.08
760.696	33665.7
760.888	34521.76
761.079	33964.71
761.27	33284.78
761.461	33483.44
761.652	34048.68
761.843	33082.03
762.034	33772.2
762.225	34007.72
762.416	33634.99
762.607	33290.93
762.798	33231.54
762.989	33237.68
763.18	34392.73
763.371	33419.95
763.562	33585.83
763.753	33008.31
763.944	33577.64
764.135	33481.39
764.326	33669.8
764.517	33315.5
764.708	33690.28
764.899	33243.82
765.089	33063.6
765.28	32965.3
765.471	33159.86
765.662	33086.13
765.853	32580.28
766.043	32131.78
766.234	33194.67
766.425	32619.19
766.615	32719.54
766.806	32443.07
766.997	32985.78
767.187	32576.19
767.378	32729.78
767.569	32416.44
767.759	32342.72
767.95	32748.21
768.141	32672.44
768.331	32160.45
768.522	32465.6
768.712	32817.85
768.903	32131.78
769.093	32350.91
769.284	32867
769.474	32393.92
769.665	31363.79
769.855	31752.9
770.046	32049.86
770.236	31814.34
770.426	32172.74
770.617	31511.24
770.807	32244.41
770.998	32137.92
771.188	31670.98
771.378	31597.26
771.569	32158.4
771.759	31664.84
771.949	31457.99
772.139	31820.49
772.33	31308.49
772.52	31929.03
772.71	31222.48
772.9	31148.75
773.09	31886.02
773.281	31828.68
773.471	31046.35
773.661	31349.45
773.851	31421.13
774.041	31269.58
774.231	31251.15
774.421	30982.87
774.611	31269.58
774.802	31455.95
774.992	30931.67
775.182	31345.36
775.372	30986.96
775.562	31171.28
775.752	31058.64
775.942	30235.36
776.131	31361.74
776.321	30479.07
776.511	30434.01
776.701	30563.03
776.891	30866.13
777.081	30425.82
777.271	30657.24
777.461	30436.06
777.651	30245.6
777.84	30851.8
778.03	30010.08
778.22	30116.58
778.41	30532.31
778.599	30182.11
778.789	29995.74
778.979	30137.05
779.169	30509.79
779.358	30311.13
779.548	30649.05
779.738	30016.22
779.927	30157.53
780.117	30120.67
780.307	29991.65
780.496	29913.83
780.686	30458.59
780.875	30536.41
781.065	29999.84
781.254	29524.71
781.444	29962.98
781.633	29545.19
781.823	29496.04
782.012	29749.99
782.202	29303.53
782.391	29491.94
782.581	29352.68
782.77	29663.97
782.96	29879.01
783.149	28951.28
783.338	29020.91
783.528	28832.5
783.717	29723.37
783.906	29518.57
784.096	29119.21
784.285	29197.04
784.474	29311.72
784.663	29436.65
784.853	28881.65
785.042	28895.99
785.231	28902.13
785.42	29262.57
785.61	28738.29
785.799	29352.68
785.988	29295.34
786.177	29131.5
786.366	28967.66
786.555	29225.71
786.744	29489.9
786.933	28822.26
787.122	28541.69
787.312	28887.79
787.501	28685.04
787.69	28938.99
787.879	28527.35
788.068	28510.97
788.257	28144.38
788.445	28576.5
788.634	28582.65
788.823	28259.07
789.012	29344.49
789.201	28916.47
789.39	28365.56
789.579	28431.1
789.768	28521.21
789.957	28801.78
790.145	28445.43
790.334	27888.39
790.523	27814.66
790.712	28355.32
790.9	28383.99
791.089	27611.91
791.278	28498.68
791.467	28175.1
791.655	28234.49
791.844	28367.61
792.033	27888.39
792.221	28181.24
792.41	27581.19
792.599	27517.7
792.787	28123.9
792.976	28187.39
793.164	27710.21
793.353	27632.39
793.541	27945.73
793.73	28095.23
793.918	27611.91
794.107	27321.1
794.295	27568.9
794.484	27634.44
794.672	27292.43
794.861	27378.44
795.049	28021.5
795.238	27790.08
795.426	27349.77
795.614	27241.23
795.803	27757.32
795.991	27962.11
796.179	27290.38
796.368	27194.12
796.556	27482.89
796.744	26807.06
796.932	27353.87
797.121	26841.87
797.309	27288.33
797.497	27437.83
797.685	27151.12
797.874	26829.59
798.062	27177.74
798.25	27214.6
798.438	27194.12
798.626	26835.73
798.814	27437.83
799.002	28453.62
799.19	27495.18
799.378	26907.41
799.566	27355.91
799.755	27247.37
799.943	27360.01
800.131	26931.98
800.318	27192.08
800.506	27222.8
800.694	26979.09
800.882	26968.85
801.07	27454.22
801.258	27052.81
801.446	27265.8
801.634	26931.98
801.822	26895.12
802.01	27167.5
802.197	27364.11
802.385	27425.54
802.573	27474.7
802.761	26923.79
802.949	27046.67
803.136	27089.68
803.324	27319.05
803.512	27312.91
803.699	26913.55
803.887	26882.83
804.075	27388.68
804.262	27202.32
804.45	26866.45
804.638	26614.55
804.825	27177.74
805.013	27052.81
805.201	27235.08
805.388	26921.74
805.576	27124.49
805.763	27855.62
805.951	27028.24
806.138	27575.05
806.326	27919.1
806.513	27751.17
806.701	27415.3
806.888	27374.34
807.075	27239.18
807.263	27806.47
807.45	27319.05
807.638	27417.35
807.825	27915.01
808.012	27575.05
808.2	27335.43
808.387	27353.87
808.574	27261.71
808.761	27628.29
808.949	27212.56
809.136	27151.12
809.323	27427.59
809.51	27654.92
809.698	27878.15
809.885	27151.12
810.072	27749.12
810.259	27820.8
810.446	27126.54
810.633	27151.12
810.82	27661.06
811.008	27773.7
811.195	27669.25
811.382	27671.3
811.569	27859.71
811.756	27476.74
811.943	28257.02
812.13	27921.15
812.317	27818.75
812.504	28056.32
812.691	27443.98
812.878	27788.03
813.064	27972.35
813.251	28078.85
813.438	27667.2
813.625	27390.73
813.812	27398.92
813.999	27765.51
814.186	27507.46
814.372	27329.29
814.559	27265.8
814.746	27683.59
814.933	27697.92
815.12	27681.54
815.306	27222.8
815.493	27466.5
815.68	27595.53
815.866	27495.18
816.053	27802.37
816.24	27906.82
816.426	27581.19
816.613	27190.03
816.799	27714.31
816.986	27624.2
817.173	27167.5
817.359	27235.08
817.546	27556.61
817.732	27202.32
817.919	27061.01
818.105	27749.12
818.292	27247.37
818.478	28001.02
818.665	27708.16
818.851	27286.28
819.037	27958.02
819.224	27783.94
819.41	27114.25
819.597	27032.33
819.783	27820.8
819.969	27529.99
820.156	27302.67
820.342	26983.18
820.528	27849.47
820.714	26977.04
820.901	27048.72
821.087	27038.48
821.273	27595.53
821.459	26811.15
821.646	26352.41
821.832	26985.23
822.018	26919.7
822.204	26813.2
822.39	26673.94
822.576	26577.69
822.762	26886.93
822.948	27161.36
823.134	26829.59
823.32	26768.15
823.507	26354.46
823.693	26690.32
823.879	26501.91
824.065	26219.29
824.25	26655.51
824.436	26850.06
824.622	26397.46
824.808	26419.99
824.994	26506.01
825.18	26368.79
825.366	26733.33
825.552	26370.84
825.738	26835.73
825.923	26886.93
826.109	26667.8
826.295	26305.31
826.481	26098.46
826.667	26250.01
826.852	26346.26
827.038	26123.04
827.224	26837.78
827.409	26843.92
827.595	26008.35
827.781	26530.58
827.966	26417.94
828.152	26243.87
828.338	26235.67
828.523	25477.93
828.709	25838.37
828.894	26555.16
829.08	26270.49
829.266	25664.29
829.451	25711.39
829.637	26202.91
829.822	25621.28
830.008	25783.07
830.193	25961.25
830.378	26266.39
830.564	25797.41
830.749	25412.39
830.935	25844.51
831.12	26096.41
831.305	25367.34
831.491	25404.2
831.676	25082.67
831.861	25752.35
832.047	25062.19
832.232	25123.63
832.417	25811.74
832.602	25342.76
832.788	25066.28
832.973	24994.61
833.158	25099.05
833.343	25115.44
833.528	25305.9
833.714	25572.13
833.899	25242.41
834.084	25396.01
834.269	24912.69
834.454	24953.65
834.639	25303.85
834.824	25199.4
835.009	25123.63
835.194	24916.78
835.379	25226.03
835.564	25105.2
835.749	24718.13
835.934	24798
836.119	24867.63
836.304	24931.12
836.489	24638.26
836.674	24660.79
836.859	24431.41
837.044	24959.79
837.228	24793.9
837.413	24609.59
837.598	25088.81
837.783	24908.59
837.968	24519.48
838.152	24439.61
838.337	24308.54
838.522	25037.61
838.707	24851.25
838.891	24560.44
839.076	24732.47
839.261	24902.45
839.445	24392.5
839.63	24396.6
839.815	24628.02
839.999	24044.35
840.184	24267.58
840.368	23954.24
840.553	24273.72
840.737	24527.67
840.922	23900.99
841.106	23716.67
841.291	23978.81
841.475	24234.81
841.66	24156.99
841.844	23630.66
842.029	24810.29
842.213	24073.02
842.397	23767.87
842.582	23524.16
842.766	24126.27
842.951	23919.42
843.135	23221.06
843.319	23339.85
843.504	23348.04
843.688	23731.01
843.872	23257.93
844.056	23761.73
844.241	23743.3
844.425	23257.93
844.609	23540.55
844.793	23241.54
844.977	23558.98
845.161	23538.5
845.346	23114.57
845.53	23040.84
845.714	23536.45
845.898	23702.34
846.082	23071.56
846.266	23391.05
846.45	23225.16
846.634	23345.99
846.818	22981.45
847.002	23239.5
847.186	23593.79
847.37	22999.88
847.554	22715.22
847.738	22948.68
847.922	23227.21
848.106	23130.95
848.29	22459.22
848.473	22668.11
848.657	22713.17
848.841	22704.98
849.025	22627.15
849.209	22461.27
849.392	22944.59
849.576	22971.21
849.76	22303.57
849.944	22684.5
850.127	22864.72
850.311	22158.17
850.495	22334.29
850.678	21939.04
850.862	22985.55
851.046	22717.26
851.229	22862.67
851.413	22281.05
851.596	22426.45
851.78	22375.25
851.964	22463.32
852.147	22256.47
852.331	23051.08
852.514	22459.22
852.698	21934.94
852.881	21836.64
853.065	22414.16
853.248	22168.41
853.431	21922.65
853.615	21836.64
853.798	22659.92
853.982	22285.14
854.165	21941.08
854.348	21861.21
854.532	21871.45
854.715	21959.52
854.898	21517.15
855.081	21640.03
855.265	22109.02
855.448	22006.62
855.631	21332.84
855.814	21275.49
855.997	21740.38
856.181	21646.18
856.364	21257.06
856.547	21058.41
856.73	21584.74
856.913	21259.11
857.096	21357.41
857.279	21287.78
857.462	21330.79
857.645	22006.62
857.828	21515.11
858.011	21551.97
858.194	21384.04
858.377	21515.11
858.56	21003.11
858.743	21128.04
858.926	20761.45
859.109	21531.49
859.292	20892.52
859.475	20755.31
859.658	21422.95
859.841	21230.44
860.023	20513.65
860.206	20575.09
860.389	20765.55
860.572	20882.28
860.755	20560.75
860.937	20564.85
861.12	20460.4
861.303	20771.69
861.486	20546.42
861.668	20243.32
861.851	20439.92
862.034	20687.73
862.216	20335.48
862.399	20044.66
862.581	20433.78
862.764	20562.8
862.947	20339.57
863.129	20005.75
863.312	19987.32
863.494	20538.23
863.677	20231.03
863.859	19864.44
864.042	20427.63
864.224	20669.3
864.406	20024.19
864.589	19626.88
864.771	20013.95
864.954	19833.72
865.136	19571.58
865.318	19704.7
865.501	20087.67
865.683	19567.49
865.865	19710.85
866.048	19532.67
866.23	19788.67
866.412	19520.38
866.594	19430.27
866.777	19178.37
866.959	19624.83
867.141	19192.71
867.323	19174.28
867.505	19532.67
867.687	19573.63
867.869	19420.03
868.052	19338.12
868.234	19391.36
868.416	19532.67
868.598	19637.12
868.78	19182.47
868.962	19207.05
869.144	19624.83
869.326	19772.28
869.508	18793.36
869.69	19127.17
869.872	19241.86
870.054	19731.33
870.236	19080.07
870.417	19221.38
870.599	19233.67
870.781	19440.51
870.963	19268.48
871.145	19151.75
871.327	19133.32
871.508	19397.51
871.69	19188.61
871.872	18992.01
872.054	19153.8
872.235	19327.88
872.417	19075.98
872.599	19073.93
872.78	19340.16
872.962	19325.83
873.144	18887.56
873.325	19172.23
873.507	19229.57
873.689	19278.72
873.87	18766.73
874.052	19010.44
874.233	18916.23
874.415	19075.98
874.596	18903.95
874.778	18967.43
874.959	19129.22
875.141	19557.25
875.322	18934.67
875.503	18901.9
875.685	19200.9
875.866	18594.7
876.048	18680.72
876.229	18940.81
876.41	18742.16
876.592	19078.02
876.773	18815.88
876.954	18987.91
877.136	19553.15
877.317	19270.53
877.498	19161.99
877.679	19315.59
877.86	19536.77
878.042	19127.17
878.223	18938.76
878.404	19467.14
878.585	19428.23
878.766	19676.03
878.947	19544.96
879.128	19149.7
879.309	19254.15
879.49	19972.99
879.672	19383.17
879.853	18979.72
880.034	19252.1
880.215	19299.2
880.396	19229.57
880.576	19364.74
880.757	19198.85
880.938	19780.48
881.119	19245.96
881.3	19356.55
881.481	19688.32
881.662	20374.39
881.843	19532.67
882.023	19704.7
882.204	19811.2
882.385	19972.99
882.566	19547.01
882.747	19559.3
882.927	20030.33
883.108	19948.41
883.289	19712.89
883.469	20009.85
883.65	19489.67
883.831	19809.15
884.011	19991.42
884.192	19864.44
884.373	20237.17
884.553	20157.3
884.734	20337.52
884.914	20018.04
885.095	20489.07
885.275	20220.79
885.456	20061.05
885.636	19678.08
885.817	19985.27
885.997	20181.88
886.178	20093.82
886.358	20271.99
886.538	20302.71
886.719	21431.14
886.899	20142.97
887.08	20249.46
887.26	20417.4
887.44	20126.58
887.621	20308.85
887.801	20020.09
887.981	20917.1
888.161	20603.76
888.342	20056.95
888.522	20147.06
888.702	20450.16
888.882	20601.71
889.062	20310.9
889.242	19934.07
889.423	20552.56
889.603	20470.64
889.783	20634.48
889.963	20099.96
890.143	20364.15
890.323	20616.05
890.503	20106.1
890.683	20087.67
890.863	20450.16
891.043	20278.13
891.223	20161.4
891.403	20269.94
891.583	20493.17
891.763	20278.13
891.943	20300.66
892.122	20087.67
892.302	20575.09
892.482	20657.01
892.662	20546.42
892.842	20429.68
893.022	20444.02
893.201	20255.61
893.381	20351.86
893.561	20288.37
893.741	20681.58
893.92	20824.94
894.1	20468.59
894.28	20290.42
894.459	20568.94
894.639	20513.65
894.819	20450.16
894.998	20325.24
895.178	20587.38
895.357	20626.29
895.537	19944.31
895.716	20001.66
895.896	20489.07
896.075	20603.76
896.255	20110.2
896.434	20065.14
896.614	20570.99
896.793	20702.06
896.973	20081.53
897.152	19889.02
897.331	20394.87
897.511	20534.13
897.69	19745.66
897.87	20378.48
898.049	20421.49
898.228	20462.45
898.407	20253.56
898.587	20501.36
898.766	19991.42
898.945	20312.95
899.124	19977.08
899.304	19880.83
899.483	20231.03
899.662	20183.93
899.841	19643.26
900.02	19686.27
900.199	20261.75
900.378	20018.04
900.557	19886.97
900.737	19538.82
900.916	20099.96
901.095	20079.48
901.274	20108.15
901.453	19514.24
901.632	19673.98
901.811	19936.12
901.989	19792.76
902.168	19377.03
902.347	19927.93
902.526	19460.99
902.705	18910.09
902.884	19665.79
903.063	20038.52
903.242	19870.59
903.42	19188.61
903.599	19630.98
903.778	19872.64
903.957	19829.63
904.135	19530.62
904.314	19284.87
904.493	19618.69
904.672	19403.65
904.85	19342.21
905.029	19346.31
905.207	19510.14
905.386	19862.4
905.565	19157.89
905.743	19227.53
905.922	19329.92
906.1	19446.66
906.279	19082.12
906.457	18914.19
906.636	19377.03
906.814	19276.68
906.993	19086.22
907.171	18949
907.35	19284.87
907.528	19110.79
907.707	19035.02
907.885	18879.37
908.063	19495.81
908.242	18617.23
908.42	18678.67
908.598	18074.52
908.777	18807.69
908.955	18674.57
909.133	18314.13
909.311	18209.68
909.49	18553.74
909.668	18662.29
909.846	18699.15
910.024	18514.83
910.202	18449.3
910.38	18428.82
910.559	17855.39
910.737	17965.98
910.915	18455.44
911.093	18109.33
911.271	18025.37
911.449	18131.86
911.627	18199.44
911.805	18543.5
911.983	17906.59
912.161	17535.9
912.339	18047.9
912.517	17912.73
912.695	17785.76
912.872	17490.85
913.05	17636.25
913.228	17963.93
913.406	17464.22
913.584	17316.77
913.762	17941.4
913.939	17343.39
914.117	17410.98
914.295	16948.14
914.473	17523.62
914.65	17478.56
914.828	17173.41
915.006	16872.36
915.184	17279.91
915.361	17335.2
915.539	17103.78
915.716	17191.84
915.894	17380.26
916.072	17558.43
916.249	16923.56
916.427	17181.6
916.604	17132.45
916.782	17204.13
916.959	16561.07
917.137	16765.87
917.314	17214.37
917.492	17165.22
917.669	16675.76
917.847	16583.6
918.024	16726.96
918.201	16503.73
918.379	16444.34
918.556	16327.6
918.733	16417.71
918.911	16098.23
919.088	16434.1
919.265	16225.2
919.442	16530.35
919.62	16192.44
919.797	16190.39
919.974	15903.67
920.151	16063.41
920.328	16047.03
920.506	15926.2
920.683	16069.56
920.86	15836.09
921.037	15926.2
921.214	15971.25
921.391	15551.42
921.568	15926.2
921.745	15657.92
921.922	15504.32
922.099	15676.35
922.276	15838.14
922.453	15479.74
922.63	15270.85
922.807	15266.75
922.984	15074.24
923.161	15064
923.338	14924.74
923.514	15045.57
923.691	15162.31
923.868	15012.81
924.045	14603.21
924.222	14605.26
924.399	15094.72
924.575	15135.68
924.752	14775.24
924.929	14730.19
925.105	14867.4
925.282	14586.83
925.459	14635.98
925.635	14582.73
925.812	14402.51
925.989	14369.74
926.165	14529.48
926.342	14134.23
926.518	13939.67
926.695	14285.78
926.871	14052.31
927.048	13878.23
927.224	14576.59
927.401	14005.2
927.577	13853.66
927.754	13573.08
927.93	14113.75
928.107	13984.73
928.283	13253.6
928.459	13812.7
928.636	13642.71
928.812	13532.12
928.988	13237.22
929.165	13114.34
929.341	13548.51
929.517	13325.28
929.693	13476.83
929.87	12970.98
930.046	13513.69
930.222	13073.38
930.398	12934.12
930.574	12985.32
930.751	13177.83
930.927	12782.57
931.103	12835.81
931.279	12874.73
931.455	12733.42
931.631	12598.25
931.807	12393.45
931.983	12510.19
932.159	12553.2
932.335	12659.69
932.511	12176.37
932.687	12174.32
932.863	12465.13
933.039	12299.25
933.215	11875.32
933.391	11594.75
933.566	12039.15
933.742	11967.48
933.918	11922.42
934.094	11533.31
934.27	11744.25
934.445	11586.55
934.621	11543.55
934.797	10939.4
934.973	11158.53
935.148	11222.02
935.324	10730.5
935.5	10595.34
935.675	10943.49
935.851	10697.74
936.027	10513.42
936.202	10236.94
936.378	10433.55
936.553	10187.79
936.729	10392.59
936.904	9536.54
937.08	9344.03
937.255	9315.36
937.431	9358.36
937.606	8653.86
937.782	9018.4
937.957	8852.52
938.133	8797.22
938.308	8490.03
938.483	8649.77
938.659	8340.52
938.834	8367.15
939.009	7980.08
939.185	8016.94
939.36	7971.89
939.535	7437.37
939.71	7928.88
939.886	7941.17
940.061	7767.09
940.236	7306.3
940.411	7193.66
940.586	7466.04
940.761	7267.39
940.937	6945.86
941.112	6921.28
941.287	7078.97
941.462	7078.97
941.637	6757.44
941.812	6898.75
941.987	6937.66
942.162	6890.56
942.337	6622.28
942.512	6476.87
942.687	6890.56
942.862	6839.36
943.037	6270.03
943.212	6108.24
943.386	6241.36
943.561	6505.54
943.736	6134.86
943.911	6474.82
944.086	6480.97
944.26	6521.93
944.435	6202.44
944.61	6233.16
944.785	6505.54
944.959	6689.86
945.134	5989.46
945.309	5903.44
945.483	5979.22
945.658	6345.8
945.833	5823.57
946.007	5764.18
946.182	6427.72
946.357	5928.02
946.531	5831.76
946.706	6032.46
946.88	5815.38
947.055	6120.53
947.229	6014.03
947.404	5975.12
947.578	6397
947.752	6069.33
947.927	5811.28
948.101	5835.86
948.276	6200.4
948.45	5950.54
948.624	6177.87
948.799	5776.47
948.973	6169.68
949.147	5780.56
949.321	5887.06
949.496	5952.59
949.67	6319.18
949.844	6048.85
950.018	5956.69
950.193	5987.41
950.367	6614.09
950.541	6081.61
950.715	6317.13
950.889	6227.02
951.063	6048.85
951.237	6374.47
951.411	5870.67
951.585	5786.71
951.759	6325.32
951.933	6210.64
952.107	5979.22
952.281	6202.44
952.455	6517.83
952.629	6380.62
952.803	6034.51
952.977	6020.17
953.151	6196.3
953.325	6349.9
953.499	6222.92
953.672	5700.69
953.846	5891.15
954.02	6001.74
954.194	6003.79
954.368	5854.29
954.541	6190.16
954.715	5973.07
954.889	6050.89
955.062	5680.21
955.236	6102.09
955.41	5678.16
955.583	6122.57
955.757	5850.19
955.93	6108.24
956.104	5696.6
956.278	5821.52
956.451	5942.35
956.625	6206.54
956.798	6507.59
956.972	6198.35
957.145	5696.6
957.319	5999.7
957.492	5856.34
957.665	6098
957.839	5733.46
958.012	6106.19
958.185	5864.53
958.359	5977.17
958.532	6034.51
958.705	6169.68
958.879	5995.6
959.052	5854.29
959.225	5532.76
959.398	5870.67
959.572	5891.15
959.745	5749.84
959.918	5794.9
960.091	5737.56
960.264	5774.42
960.438	5534.81
960.611	5645.4
960.784	5915.73
960.957	5573.72
961.13	5956.69
961.303	5485.65
961.476	5704.79
961.649	5751.89
961.822	5182.56
961.995	5620.82
962.168	5950.54
962.341	5665.88
962.514	5559.38
962.686	5598.29
962.859	5784.66
963.032	5772.37
963.205	5444.7
963.378	5229.66
963.551	5864.53
963.723	5688.4
963.896	5672.02
964.069	5637.2
964.242	5540.95
964.414	5706.84
964.587	5373.02
964.76	5532.76
964.932	5528.66
965.105	5368.92
965.278	5420.12
965.45	5377.11
965.623	5780.56
965.795	5778.51
965.968	5407.83
966.14	5243.99
966.313	5583.96
966.485	5389.4
966.658	5375.06
966.83	5377.11
967.003	5887.06
967.175	5901.39
967.348	5391.45
967.52	5344.35
967.692	5852.24
967.865	5586.01
968.037	5463.13
968.209	5606.49
968.382	5579.86
968.554	5612.63
968.726	5334.11
968.898	5243.99
969.071	5741.65
969.243	5657.68
969.415	5370.97
969.587	5334.11
969.759	6009.93
969.932	5604.44
970.104	5336.15
970.276	5022.81
970.448	5268.57
970.62	5217.37
970.792	5487.7
970.964	5170.27
971.136	5719.12
971.308	5778.51
971.48	5162.08
971.652	5137.5
971.824	5823.57
971.996	5086.3
972.168	5184.6
972.339	5198.94
972.511	5594.2
972.683	5231.71
972.855	5196.89
973.027	5055.58
973.199	5074.01
973.37	5323.87
973.542	5196.89
973.714	5074.01
973.886	5250.14
974.057	5207.13
974.229	5010.53
974.401	4955.23
974.572	4893.79
974.744	4686.95
974.915	4813.92
975.087	4863.07
975.259	5327.96
975.43	4871.26
975.602	4897.89
975.773	4734.05
975.945	4920.42
976.116	5239.9
976.288	4840.54
976.459	5014.62
976.63	4777.06
976.802	5090.4
976.973	4734.05
977.145	4883.55
977.316	5241.95
977.487	4844.64
977.659	4713.57
977.83	4858.98
978.001	5280.86
978.172	4977.76
978.344	4566.12
978.515	4861.02
978.686	4586.6
978.857	5139.55
979.028	4699.23
979.2	4580.45
979.371	4938.85
979.542	5000.29
979.713	4715.62
979.884	4220.01
980.055	4617.32
980.226	4791.39
980.397	4580.45
980.568	4617.32
980.739	5098.59
980.91	4598.88
981.081	4764.77
981.252	4447.33
981.423	4682.85
981.594	4801.63
981.765	4342.89
981.936	4482.15
982.106	4615.27
982.277	4766.82
982.448	4287.59
982.619	4465.77
982.79	4531.3
982.96	4723.81
983.131	4357.22
983.302	4183.15
983.472	4402.28
983.643	4617.32
983.814	4568.16
983.984	4123.76
984.155	4433
984.326	4830.3
984.496	4504.68
984.667	4406.38
984.837	4340.84
985.008	4568.16
985.178	4367.46
985.349	4297.83
985.519	4314.22
985.69	4168.81
985.86	4334.7
986.031	4279.4
986.201	4367.46
986.371	4389.99
986.542	4045.93
986.712	3957.87
986.882	4408.42
987.053	4308.07
987.223	4197.48
987.393	4199.53
987.563	3959.92
987.734	4275.31
987.904	4281.45
988.074	4037.74
988.244	4385.9
988.414	4142.19
988.585	3968.11
988.755	3986.54
988.925	4193.39
989.095	4512.87
989.265	4086.89
989.435	3966.06
989.605	4226.15
989.775	4129.9
989.945	4097.13
990.115	3742.83
990.285	4031.6
990.455	4134
990.625	3806.32
990.795	3738.74
990.965	4437.09
991.134	3832.94
991.304	3794.03
991.474	3738.74
991.644	4125.8
991.814	4134
991.984	3775.6
992.153	3824.75
992.323	3880.05
992.493	4086.89
992.662	3648.63
992.832	3851.38
993.002	4054.12
993.171	4164.72
993.341	3585.14
993.511	3914.86
993.68	3828.85
993.85	4076.65
994.019	3427.45
994.189	3406.97
994.358	3980.4
994.528	3759.22
994.697	3396.73
994.867	3525.75
995.036	3974.25
995.206	3755.12
995.375	3529.84
995.544	3579
995.714	3949.68
995.883	3687.54
996.052	3904.62
996.222	3347.58
996.391	4265.07
996.56	3691.63
996.73	3437.69
996.899	3398.77
997.068	3976.3
997.237	3540.08
997.406	3316.86
997.576	3282.04
997.745	3730.55
997.914	3644.53
998.083	3189.88
998.252	3290.23
998.421	3591.28
998.59	3318.9
998.759	3177.59
998.928	3171.45
999.097	3814.51
999.266	3511.41
999.435	3488.89
999.604	3015.8
999.773	3949.68
999.942	3361.91
1000.111	3126.39
1000.28	2989.18
1000.448	3183.74
1000.617	3155.07
1000.786	3249.27
1000.955	3161.21
1001.124	3429.49
1001.292	3925.1
1001.461	2921.6
1001.63	3171.45
1001.798	3744.88
1001.967	3630.2
1002.136	2933.89
1002.304	3073.15
1002.473	3247.23
1002.642	3390.58
1002.81	3067
1002.979	3069.05
1003.147	3521.65
1003.316	3834.99
1003.484	3073.15
1003.653	3019.9
1003.821	3443.83
1003.99	3179.64
1004.158	2970.75
1004.327	2948.22
1004.495	3421.3
1004.663	3177.59
1004.832	3048.57
1005	2919.55
1005.168	3245.18
1005.337	3038.33
1005.505	2997.37
1005.673	3099.77
1005.842	3159.16
1006.01	3257.46
1006.178	2821.25
1006.346	2825.34
1006.514	3189.88
1006.683	3267.7
1006.851	2831.49
1007.019	2722.95
1007.187	2841.73
1007.355	2538.63
1007.523	2499.72
1007.691	2655.36
1007.859	2714.75
1008.027	3212.41
1008.195	2780.29
1008.363	2546.82
1008.531	3243.13
1008.699	2755.71
1008.867	2522.24
1009.035	2548.87
1009.203	3130.49
1009.37	2749.57
1009.538	2569.35
1009.706	2970.75
1009.874	2856.06
1010.042	2673.79
1010.209	2475.14
1010.377	2438.28
1010.545	3032.19
1010.713	2716.8
1010.88	2503.81
1011.048	2530.44
1011.216	2722.95
1011.383	3054.72
1011.551	2483.33
1011.718	2407.56
1011.886	2976.89
1012.054	2659.46
1012.221	2290.82
1012.389	2481.28
1012.556	2620.55
1012.724	3087.48
1012.891	2436.23
1013.058	2391.17
1013.226	2745.47
1013.393	2755.71
1013.561	2047.12
1013.728	2227.34
1013.895	2722.95
1014.063	2669.7
1014.23	2133.13
1014.397	2239.62
1014.565	2634.88
1014.732	2469
1014.899	2221.19
1015.066	2024.59
1015.233	2532.48
1015.401	2503.81
1015.568	2213
1015.735	2235.53
1015.902	2483.33
1016.069	2600.07
1016.236	2213
1016.403	2120.84
1016.57	2264.2
1016.737	2579.59
1016.904	2268.3
1017.071	2063.5
1017.238	2182.28
1017.405	2602.11
1017.572	2073.74
1017.739	2237.58
1017.906	2499.72
1018.073	2577.54
1018.24	2090.12
1018.407	2239.62
1018.573	2454.66
1018.74	2280.58
1018.907	2096.27
1019.074	1895.57
1019.241	2421.89
1019.407	2354.31
1019.574	1985.68
1019.741	1762.45
1019.907	2288.78
1020.074	2368.65
1020.241	1858.7
1020.407	1830.03
1020.574	2397.32
1020.74	2282.63
1020.907	2034.83
1021.073	1793.17
1021.24	2645.12
1021.406	2452.61
1021.573	1911.95
1021.739	1989.77
1021.906	2366.6
1022.072	2149.51
1022.239	1901.71
1022.405	1924.24
1022.571	2247.82
1022.738	1864.85
1022.904	1729.68
1023.07	1791.12
1023.237	1997.96
1023.403	2284.68
1023.569	1854.61
1023.735	1776.78
1023.902	2131.08
1024.068	2309.26
1024.234	1764.5
1024.4	1670.29
1024.566	2110.6
1024.732	2151.56
1024.898	1756.3
1025.065	1725.58
1025.231	2354.31
1025.397	2002.06
1025.563	1848.46
1025.729	1686.67
1025.895	1655.95
1026.061	1735.82
1026.227	1508.5
1026.392	1631.38
1026.558	2110.6
1026.724	1907.85
1026.89	1660.05
1027.056	1592.47
1027.222	2102.41
1027.388	1868.94
1027.553	1567.89
1027.719	1543.32
1027.885	2354.31
1028.051	1928.33
1028.216	1430.68
1028.382	1709.2
1028.548	2022.54
1028.713	1823.89
1028.879	1500.31
1029.045	1676.43
1029.21	2075.79
1029.376	2014.35
1029.541	1596.56
1029.707	1567.89
1029.873	1858.7
1030.038	2026.64
1030.204	1492.12
1030.369	1725.58
1030.534	1977.48
1030.7	1635.47
1030.865	1547.41
1031.031	1250.46
1031.196	1967.24
1031.361	1870.99
1031.527	1428.63
1031.692	1326.23
1031.857	1315.99
1032.023	1711.25
1032.188	1356.95
1032.353	1430.68
1032.518	2047.12
1032.684	1703.06
1032.849	1289.37
1033.014	1455.25
1033.179	1971.34
1033.344	1698.96
1033.509	1354.9
1033.674	1461.4
1033.839	1696.91
1034.004	1862.8
1034.17	1248.41
1034.335	1303.7
1034.5	1584.27
1034.664	1518.74
1034.829	1262.74
1034.994	1227.93
1035.159	1617.04
1035.324	1635.47
1035.489	1342.61
1035.654	1184.92
1035.819	1875.09
1035.984	1655.95
1036.148	1275.03
1036.313	1234.07
1036.478	1647.76
1036.643	1471.64
1036.807	1217.69
1036.972	1082.52
1037.137	1840.27
1037.301	1514.64
1037.466	1080.47
1037.631	1315.99
1037.795	1614.99
1037.96	1461.4
1038.124	1283.22
1038.289	1111.19
1038.454	1467.54
1038.618	1526.93
1038.783	1066.14
1038.947	1090.71
1039.111	1375.38
1039.276	1334.42
1039.44	1180.82
1039.605	1420.44
1039.769	1191.06
1039.933	1334.42
1040.098	1105.05
1040.262	1272.98
1040.426	1555.6
1040.591	1512.6
1040.755	1037.47
1040.919	1086.62
1041.083	1430.68
1041.248	1287.32
1041.412	984.22
1041.576	898.2
1041.74	1315.99
1041.904	1617.04
1042.068	834.72
1042.232	1039.51
1042.397	1520.79
1042.561	1377.43
1042.725	847.01
1042.889	1123.48
1043.053	1471.64
1043.217	1422.48
1043.381	1047.71
1043.544	781.47
1043.708	1625.23
1043.872	992.41
1044.036	783.52
1044.2	785.57
1044.364	1479.83
1044.528	1531.03
1044.691	5157.98
1044.855	982.17
1045.019	1445.01
1045.183	1326.23
1045.346	992.41
1045.51	857.25
1045.674	1244.31
1045.837	1328.28
1046.001	924.83
1046.165	892.06
1046.328	1782.93
1046.492	1219.74
1046.655	1100.95
1046.819	982.17
1046.983	1043.61
1047.146	1227.93
1047.31	1051.8
1047.473	709.79
1047.636	1111.19
1047.8	953.5
1047.963	930.97
1048.127	849.05
1048.29	930.97
