Data from Ink_Intensity_USB4F045381__48__00048.txt Node

Date: Mon Jul 17 10:13:15 EDT 2023
User: mmckonesweet
Spectrometer: USB4F04538
Trigger mode: 4
Integration Time (sec): 9.000000E-1
Scans to average: 1
Electric dark correction enabled: true
Nonlinearity correction enabled: false
Boxcar width: 0
XAxis mode: Wavelengths
Number of Pixels in Spectrum: 3648
>>>>>Begin Spectral Data<<<<<
345.52	-972.61
345.736	-972.61
345.952	-972.61
346.168	-989
346.384	-986.95
346.6	-114.52
346.816	-202.58
347.032	-208.72
347.248	241.83
347.464	-235.35
347.68	-130.9
347.896	61.61
348.112	430.24
348.328	-94.04
348.544	-57.17
348.76	57.51
348.975	252.07
349.191	-274.26
349.407	-249.68
349.623	61.61
349.839	-81.75
350.055	-106.32
350.27	-14.17
350.486	180.39
350.702	305.32
350.918	221.35
351.133	-270.16
351.349	184.49
351.565	440.48
351.781	-257.87
351.996	45.23
352.212	295.08
352.428	-89.94
352.644	-149.33
352.859	-212.82
353.075	256.17
353.291	-36.69
353.506	-120.66
353.722	-188.24
353.938	-104.28
354.153	362.66
354.369	110.76
354.584	-198.48
354.8	237.74
355.016	-380.75
355.231	-294.74
355.447	-112.47
355.662	45.23
355.878	868.51
356.093	-378.7
356.309	-18.26
356.524	-216.91
356.74	229.54
356.955	-180.05
357.171	-20.31
357.386	213.16
357.602	-264.02
357.817	-126.8
358.033	-223.06
358.248	315.56
358.464	63.66
358.679	-89.94
358.895	-384.85
359.11	8.36
359.325	268.45
359.541	-44.88
359.756	-73.56
359.972	-239.44
360.187	151.72
360.402	-141.14
360.618	-178
360.833	985.24
361.048	82.09
361.264	-169.81
361.479	-106.32
361.694	8.36
361.909	229.54
362.125	-218.96
362.34	-106.32
362.555	200.87
362.77	69.8
362.986	-225.11
363.201	-243.54
363.416	127.14
363.631	51.37
363.847	-243.54
364.062	-208.72
364.277	202.92
364.492	41.13
364.707	-167.76
364.922	-368.46
365.138	239.78
365.353	336.04
365.568	-280.4
365.783	-100.18
365.998	149.67
366.213	616.61
366.428	-298.83
366.643	-18.26
366.858	268.45
367.073	235.69
367.288	-83.8
367.503	-302.93
367.718	98.47
367.933	213.16
368.148	-321.36
368.363	-147.28
368.578	22.7
368.793	374.95
369.008	-204.63
369.223	-266.07
369.438	166.06
369.653	370.85
369.868	-178
370.083	-229.2
370.298	139.43
370.513	356.52
370.728	24.75
370.943	-270.16
371.157	-173.91
371.372	571.55
371.587	-286.54
371.802	-272.21
372.017	-28.5
372.232	391.33
372.446	-114.52
372.661	-200.53
372.876	145.58
373.091	110.76
373.306	-147.28
373.52	-302.93
373.735	-186.19
373.95	356.52
374.165	-163.67
374.379	-167.76
374.594	-143.19
374.809	123.05
375.023	32.94
375.238	-278.35
375.453	207.02
375.667	-249.68
375.882	-214.87
376.097	-198.48
376.311	98.47
376.526	-59.22
376.741	-216.91
376.955	110.76
377.17	477.35
377.384	491.68
377.599	-61.27
377.813	-290.64
378.028	532.64
378.242	125.1
378.457	-89.94
378.672	-329.55
378.886	51.37
379.101	-69.46
379.315	-343.89
379.53	-108.37
379.744	129.19
379.958	190.63
380.173	-143.19
380.387	-227.15
380.602	127.14
380.816	-73.56
381.031	-175.95
381.245	-137.04
381.459	221.35
381.674	2498.69
381.888	-253.78
382.103	34.99
382.317	-200.53
382.531	546.98
382.746	-44.88
382.96	-155.47
383.174	-120.66
383.388	333.99
383.603	34.99
383.817	-356.18
384.031	131.24
384.246	417.96
384.46	-59.22
384.674	225.45
384.888	-5.97
385.103	39.08
385.317	-304.98
385.531	-48.98
385.745	295.08
385.959	284.84
386.174	-225.11
386.388	-229.2
386.602	-28.5
386.816	-161.62
387.03	-102.23
387.244	-169.81
387.458	32.94
387.672	317.61
387.887	-270.16
388.101	-288.59
388.315	319.65
388.529	98.47
388.743	-212.82
388.957	-210.77
389.171	344.23
389.385	-255.83
389.599	-167.76
389.813	73.9
390.027	104.62
390.241	589.99
390.455	-171.86
390.669	-124.76
390.883	-247.63
391.097	352.42
391.311	0.17
391.525	-132.95
391.738	112.81
391.952	190.63
392.166	-71.51
392.38	-178
392.594	270.5
392.808	311.46
393.022	-51.03
393.236	-227.15
393.449	204.97
393.663	82.09
393.877	-253.78
394.091	-73.56
394.305	-116.56
394.518	-145.24
394.732	-335.7
394.946	-139.09
395.16	360.61
395.373	90.28
395.587	-284.5
395.801	-259.92
396.015	266.41
396.228	184.49
396.442	-245.59
396.656	-399.18
396.869	258.21
397.083	477.35
397.297	-85.84
397.51	-261.97
397.724	342.18
397.938	28.84
398.151	-399.18
398.365	-311.12
398.578	186.54
398.792	385.19
399.005	16.55
399.219	-163.67
399.433	88.23
399.646	245.93
399.86	12.46
400.073	-48.98
400.287	213.16
400.5	-61.27
400.714	-16.21
400.927	-79.7
401.141	159.91
401.354	1015.96
401.567	188.58
401.781	-290.64
401.994	215.21
402.208	528.55
402.421	-116.56
402.635	-73.56
402.848	26.79
403.061	288.93
403.275	-22.36
403.488	-225.11
403.701	516.26
403.915	231.59
404.128	26.79
404.341	-102.23
404.555	73.9
404.768	-14.17
404.981	-40.79
405.195	-227.15
405.408	530.59
405.621	178.34
405.834	-51.03
406.048	-261.97
406.261	368.81
406.474	424.1
406.687	-231.25
406.9	-51.03
407.114	110.76
407.327	98.47
407.54	-294.74
407.753	-284.5
407.966	-89.94
408.179	194.73
408.392	-253.78
408.605	-388.94
408.819	198.82
409.032	121
409.245	-204.63
409.458	-38.74
409.671	223.4
409.884	258.21
410.097	-335.7
410.31	8.36
410.523	229.54
410.736	-65.36
410.949	-157.52
411.162	-155.47
411.375	333.99
411.588	241.83
411.801	37.03
412.014	-325.46
412.227	-32.6
412.44	-118.61
412.653	-227.15
412.865	-57.17
413.078	350.37
413.291	256.17
413.504	-46.93
413.717	-204.63
413.93	164.01
414.143	-167.76
414.356	-126.8
414.568	-354.13
414.781	229.54
414.994	143.53
415.207	-44.88
415.42	-40.79
415.632	196.78
415.845	391.33
416.058	-298.83
416.271	-329.55
416.483	37.03
416.696	565.41
416.909	-223.06
417.121	-272.21
417.334	182.44
417.547	454.82
417.759	-229.2
417.972	-182.1
418.185	-116.56
418.397	311.46
418.61	-159.57
418.823	-186.19
419.035	340.13
419.248	-42.84
419.46	-130.9
419.673	-108.37
419.885	190.63
420.098	8.36
420.311	-167.76
420.523	-405.33
420.736	180.39
420.948	82.09
421.161	-137.04
421.373	-393.04
421.586	75.95
421.798	-186.19
422.01	-397.14
422.223	-16.21
422.435	-61.27
422.648	143.53
422.86	-188.24
423.073	-167.76
423.285	301.22
423.497	-206.67
423.71	-255.83
423.922	-243.54
424.134	75.95
424.347	358.57
424.559	-22.36
424.771	108.71
424.984	-51.03
425.196	94.38
425.408	-393.04
425.621	-292.69
425.833	290.98
426.045	333.99
426.257	-237.39
426.47	-165.71
426.682	104.62
426.894	118.95
427.106	-161.62
427.318	-128.85
427.531	-184.15
427.743	237.74
427.955	-204.63
428.167	245.93
428.379	190.63
428.591	-67.41
428.804	-81.75
429.016	-261.97
429.228	-42.84
429.44	159.91
429.652	4.27
429.864	-282.45
430.076	-59.22
430.288	-38.74
430.5	-53.08
430.712	-67.41
430.924	241.83
431.136	18.6
431.348	-370.51
431.56	-247.63
431.772	118.95
431.984	-65.36
432.196	-280.4
432.408	-186.19
432.62	-34.64
432.832	94.38
433.044	92.33
433.256	-106.32
433.468	149.67
433.679	-313.17
433.891	-270.16
434.103	0.17
434.315	356.52
434.527	200.87
434.739	-48.98
434.95	-200.53
435.162	229.54
435.374	-151.38
435.586	-182.1
435.798	-212.82
436.009	-302.93
436.221	-51.03
436.433	-204.63
436.645	-106.32
436.856	-159.57
437.068	321.7
437.28	-171.86
437.491	86.19
437.703	121
437.915	135.34
438.126	-155.47
438.338	24.75
438.55	-12.12
438.761	200.87
438.973	-157.52
439.184	-116.56
439.396	39.08
439.608	258.21
439.819	-270.16
440.031	-71.51
440.242	182.44
440.454	98.47
440.665	-161.62
440.877	-57.17
441.088	96.43
441.3	-85.84
441.511	-300.88
441.723	-241.49
441.934	118.95
442.146	67.75
442.357	-48.98
442.569	106.67
442.78	37.03
442.991	510.11
443.203	164.01
443.414	-261.97
443.626	358.57
443.837	-194.39
444.048	-307.02
444.26	-390.99
444.471	-5.97
444.682	155.82
444.894	-384.85
445.105	-325.46
445.316	315.56
445.528	172.2
445.739	-112.47
445.95	-77.65
446.161	176.3
446.373	276.65
446.584	-40.79
446.795	-151.38
447.006	184.49
447.217	460.96
447.429	-354.13
447.64	-282.45
447.851	254.12
448.062	-16.21
448.273	-378.7
448.484	-196.43
448.695	221.35
448.907	-32.6
449.118	-128.85
449.329	6.31
449.54	-122.71
449.751	-126.8
449.962	-286.54
450.173	-225.11
450.384	264.36
450.595	385.19
450.806	-270.16
451.017	-163.67
451.228	301.22
451.439	204.97
451.65	-257.87
451.861	-438.09
452.072	-257.87
452.283	-40.79
452.494	-63.32
452.705	-317.26
452.915	450.72
453.126	73.9
453.337	-151.38
453.548	-321.36
453.759	239.78
453.97	536.74
454.181	-10.07
454.391	-98.13
454.602	59.56
454.813	151.72
455.024	-110.42
455.235	-206.67
455.445	90.28
455.656	159.91
455.867	-40.79
456.078	-253.78
456.288	-28.5
456.499	133.29
456.71	-212.82
456.921	-24.4
457.131	94.38
457.342	121
457.553	-112.47
457.763	-208.72
457.974	174.25
458.184	229.54
458.395	-286.54
458.606	-286.54
458.816	309.41
459.027	368.81
459.237	-65.36
459.448	-374.61
459.659	368.81
459.869	526.5
460.08	-370.51
460.29	-112.47
460.501	499.88
460.711	-65.36
460.922	-364.37
461.132	-204.63
461.343	641.18
461.553	-221.01
461.764	-239.44
461.974	-239.44
462.184	262.31
462.395	57.51
462.605	-151.38
462.816	-288.59
463.026	88.23
463.236	301.22
463.447	-204.63
463.657	-309.07
463.867	221.35
464.078	-57.17
464.288	-141.14
464.498	-309.07
464.709	55.47
464.919	-36.69
465.129	-175.95
465.339	-325.46
465.55	108.71
465.76	192.68
465.97	-157.52
466.18	-274.26
466.391	229.54
466.601	153.77
466.811	-130.9
467.021	-239.44
467.231	114.86
467.441	344.23
467.651	-104.28
467.862	-438.09
468.072	-59.22
468.282	313.51
468.492	-255.83
468.702	-175.95
468.912	28.84
469.122	600.23
469.332	114.86
469.542	-178
469.752	192.68
469.962	12.46
470.172	-214.87
470.382	-317.26
470.592	303.27
470.802	356.52
471.012	-89.94
471.222	-243.54
471.432	293.03
471.642	172.2
471.852	-65.36
472.062	-178
472.272	2.22
472.482	-247.63
472.691	-364.37
472.901	-288.59
473.111	75.95
473.321	510.11
473.531	-294.74
473.741	-128.85
473.95	41.13
474.16	233.64
474.37	-139.09
474.58	-358.22
474.79	487.59
474.999	239.78
475.209	-286.54
475.419	-145.24
475.628	-36.69
475.838	348.33
476.048	-159.57
476.258	-304.98
476.467	331.94
476.677	-112.47
476.886	-8.02
477.096	-73.56
477.306	-122.71
477.515	385.19
477.725	-143.19
477.935	-171.86
478.144	397.48
478.354	-85.84
478.563	-77.65
478.773	-251.73
478.982	180.39
479.192	315.56
479.401	-32.6
479.611	-192.34
479.82	-122.71
480.03	123.05
480.239	-323.41
480.449	-284.5
480.658	428.2
480.868	-59.22
481.077	-53.08
481.287	-73.56
481.496	116.9
481.705	448.68
481.915	45.23
482.124	90.28
482.333	90.28
482.543	436.39
482.752	-69.46
482.961	-190.29
483.171	266.41
483.38	16.55
483.589	-100.18
483.799	-204.63
484.008	41.13
484.217	323.75
484.426	-284.5
484.636	-294.74
484.845	116.9
485.054	-216.91
485.263	157.86
485.472	-253.78
485.682	469.16
485.891	157.86
486.1	-251.73
486.309	-241.49
486.518	188.58
486.727	348.33
486.936	-180.05
487.146	-67.41
487.355	477.35
487.564	-32.6
487.773	-104.28
487.982	-159.57
488.191	-139.09
488.4	143.53
488.609	-151.38
488.818	-120.66
489.027	688.29
489.236	409.76
489.445	-106.32
489.654	-194.39
489.863	299.17
490.072	254.12
490.281	192.68
490.49	-89.94
490.698	428.2
490.907	430.24
491.116	-167.76
491.325	-304.98
491.534	426.15
491.743	180.39
491.952	-59.22
492.16	-126.8
492.369	243.88
492.578	286.89
492.787	-98.13
492.996	-309.07
493.204	65.71
493.413	503.97
493.622	-380.75
493.831	-274.26
494.039	471.2
494.248	-112.47
494.457	-225.11
494.665	-274.26
494.874	239.78
495.083	645.28
495.291	-28.5
495.5	-180.05
495.709	254.12
495.917	237.74
496.126	-44.88
496.335	-147.28
496.543	55.47
496.752	266.41
496.96	67.75
497.169	-292.69
497.377	135.34
497.586	424.1
497.794	28.84
498.003	-339.79
498.211	98.47
498.42	428.2
498.628	-40.79
498.837	-214.87
499.045	342.18
499.254	184.49
499.462	-190.29
499.671	-202.58
499.879	417.96
500.087	405.67
500.296	-167.76
500.504	-77.65
500.713	217.26
500.921	618.66
501.129	-135
501.338	-112.47
501.546	225.45
501.754	170.15
501.962	-94.04
502.171	-102.23
502.379	250.02
502.587	546.98
502.795	-61.27
503.004	-110.42
503.212	131.24
503.42	379.04
503.628	-85.84
503.837	26.79
504.045	364.71
504.253	614.56
504.461	-81.75
504.669	-253.78
504.877	301.22
505.085	491.68
505.294	-247.63
505.502	88.23
505.71	98.47
505.918	329.89
506.126	-159.57
506.334	-81.75
506.542	106.67
506.75	266.41
506.958	-24.4
507.166	-32.6
507.374	86.19
507.582	659.62
507.79	0.17
507.998	-135
508.206	264.36
508.414	161.96
508.622	-126.8
508.83	-98.13
509.037	528.55
509.245	55.47
509.453	-153.43
509.661	-239.44
509.869	309.41
510.077	90.28
510.285	63.66
510.492	-407.38
510.7	721.06
510.908	65.71
511.116	-26.45
511.324	-53.08
511.531	0.17
511.739	182.44
511.947	8.36
512.155	284.84
512.362	221.35
512.57	-65.36
512.778	-178
512.985	-274.26
513.193	299.17
513.401	551.07
513.608	-81.75
513.816	6.31
514.024	288.93
514.231	465.06
514.439	-100.18
514.646	-51.03
514.854	305.32
515.061	530.59
515.269	-147.28
515.477	-53.08
515.684	-48.98
515.892	442.53
516.099	-89.94
516.307	-257.87
516.514	391.33
516.722	534.69
516.929	-87.89
517.136	-75.6
517.344	508.07
517.551	254.12
517.759	-71.51
517.966	-61.27
518.173	53.42
518.381	143.53
518.588	41.13
518.796	-147.28
519.003	426.15
519.21	170.15
519.418	-108.37
519.625	338.09
519.832	84.14
520.039	274.6
520.247	-298.83
520.454	-132.95
520.661	399.52
520.868	336.04
521.076	-118.61
521.283	-40.79
521.49	798.88
521.697	321.7
521.904	22.7
522.112	-65.36
522.319	368.81
522.526	299.17
522.733	-110.42
522.94	-94.04
523.147	252.07
523.354	452.77
523.561	-231.25
523.768	63.66
523.975	489.64
524.183	184.49
524.39	147.62
524.597	-137.04
524.804	207.02
525.011	49.32
525.218	-120.66
525.425	-57.17
525.632	544.93
525.838	55.47
526.045	-69.46
526.252	-44.88
526.459	1249.43
526.666	1052.83
526.873	-120.66
527.08	6.31
527.287	557.22
527.494	481.44
527.701	-196.43
527.907	-100.18
528.114	411.81
528.321	198.82
528.528	-5.97
528.735	-16.21
528.941	157.86
529.148	123.05
529.355	39.08
529.562	-24.4
529.768	673.95
529.975	159.91
530.182	-38.74
530.388	-94.04
530.595	448.68
530.802	12.46
531.008	106.67
531.215	-20.31
531.422	915.61
531.628	966.81
531.835	28.84
532.042	100.52
532.248	82.09
532.455	360.61
532.661	37.03
532.868	0.17
533.074	350.37
533.281	473.25
533.487	114.86
533.694	-83.8
533.9	190.63
534.107	331.94
534.313	-120.66
534.52	-38.74
534.726	487.59
534.933	690.34
535.139	-79.7
535.345	-77.65
535.552	399.52
535.758	180.39
535.965	45.23
536.171	-20.31
536.377	483.49
536.584	528.55
536.79	57.51
536.996	61.61
537.203	381.09
537.409	465.06
537.615	55.47
537.821	198.82
538.028	538.79
538.234	534.69
538.44	118.95
538.646	159.91
538.853	422.05
539.059	198.82
539.265	395.43
539.471	-130.9
539.677	506.02
539.883	190.63
540.09	32.94
540.296	491.68
540.502	250.02
540.708	198.82
540.914	207.02
541.12	20.65
541.326	477.35
541.532	237.74
541.738	141.48
541.944	149.67
542.15	530.59
542.356	188.58
542.562	-53.08
542.768	180.39
542.974	888.99
543.18	792.73
543.386	26.79
543.592	-71.51
543.798	700.58
544.004	600.23
544.21	-5.97
544.415	194.73
544.621	397.48
544.827	692.38
545.033	34.99
545.239	264.36
545.445	104.62
545.651	442.53
545.856	61.61
546.062	135.34
546.268	243.88
546.474	411.81
546.679	104.62
546.885	227.5
547.091	278.69
547.297	776.35
547.502	164.01
547.708	-10.07
547.914	180.39
548.119	463.01
548.325	-8.02
548.531	77.99
548.736	766.11
548.942	159.91
549.147	104.62
549.353	276.65
549.559	727.2
549.764	540.83
549.97	41.13
550.175	108.71
550.381	499.88
550.586	307.37
550.792	164.01
550.997	127.14
551.203	530.59
551.408	571.55
551.614	51.37
551.819	45.23
552.025	669.86
552.23	784.54
552.435	20.65
552.641	213.16
552.846	164.01
553.052	673.95
553.257	327.85
553.462	145.58
553.668	252.07
553.873	632.99
554.078	63.66
554.283	53.42
554.489	422.05
554.694	450.72
554.899	49.32
555.105	256.17
555.31	555.17
555.515	592.03
555.72	192.68
555.925	86.19
556.131	632.99
556.336	344.23
556.541	82.09
556.746	127.14
556.951	729.25
557.156	762.02
557.361	323.75
557.567	252.07
557.772	893.09
557.977	594.08
558.182	204.97
558.387	133.29
558.592	297.13
558.797	843.93
559.002	161.96
559.207	215.21
559.412	499.88
559.617	868.51
559.822	155.82
560.027	139.43
560.232	522.4
560.437	610.47
560.642	88.23
560.847	139.43
561.051	512.16
561.256	495.78
561.461	229.54
561.666	116.9
561.871	413.86
562.076	575.65
562.281	207.02
562.485	127.14
562.69	573.6
562.895	753.82
563.1	159.91
563.305	141.48
563.509	811.17
563.714	1009.82
563.919	166.06
564.123	143.53
564.328	422.05
564.533	739.49
564.737	145.58
564.942	209.06
565.147	827.55
565.351	1001.63
565.556	350.37
565.761	278.69
565.965	577.7
566.17	315.56
566.374	311.46
566.579	125.1
566.784	577.7
566.988	374.95
567.193	37.03
567.397	260.26
567.602	200.87
567.806	401.57
568.011	227.5
568.215	270.5
568.42	401.57
568.624	438.44
568.828	170.15
569.033	352.42
569.237	639.14
569.442	647.33
569.646	67.75
569.85	274.6
570.055	448.68
570.259	589.99
570.463	440.48
570.668	225.45
570.872	526.5
571.076	561.31
571.281	397.48
571.485	288.93
571.689	589.99
571.893	753.82
572.098	430.24
572.302	297.13
572.506	657.57
572.71	571.55
572.914	327.85
573.119	266.41
573.323	802.97
573.527	815.26
573.731	239.78
573.935	127.14
574.139	571.55
574.343	381.09
574.547	295.08
574.751	256.17
574.955	954.52
575.159	809.12
575.364	245.93
575.568	245.93
575.772	561.31
575.976	735.39
576.18	297.13
576.383	77.99
576.587	800.93
576.791	692.38
576.995	30.89
577.199	63.66
577.403	856.22
577.607	854.17
577.811	215.21
578.015	434.34
578.219	637.09
578.422	786.59
578.626	442.53
578.83	460.96
579.034	778.4
579.238	585.89
579.442	278.69
579.645	733.34
579.849	589.99
580.053	618.66
580.257	229.54
580.46	495.78
580.664	821.41
580.868	688.29
581.071	520.35
581.275	510.11
581.479	342.18
581.682	778.4
581.886	352.42
582.09	415.91
582.293	860.32
582.497	825.5
582.7	596.13
582.904	309.41
583.107	628.9
583.311	536.74
583.515	469.16
583.718	522.4
583.922	655.52
584.125	950.43
584.329	290.98
584.532	540.83
584.735	942.24
584.939	823.45
585.142	260.26
585.346	276.65
585.549	684.19
585.753	430.24
585.956	397.48
586.159	544.93
586.363	1058.97
586.566	635.04
586.769	372.9
586.973	403.62
587.176	809.12
587.379	921.76
587.582	676
587.786	573.6
587.989	692.38
588.192	1239.19
588.395	618.66
588.599	733.34
588.802	721.06
589.005	872.61
589.208	387.24
589.411	467.11
589.615	868.51
589.818	964.76
590.021	606.37
590.224	485.54
590.427	907.42
590.63	815.26
590.833	262.31
591.036	342.18
591.239	616.61
591.442	571.55
591.645	651.42
591.848	377
592.051	819.36
592.254	917.66
592.457	397.48
592.66	499.88
592.863	641.18
593.066	827.55
593.269	407.72
593.472	594.08
593.675	600.23
593.878	901.28
594.081	544.93
594.284	403.62
594.486	901.28
594.689	903.32
594.892	635.04
595.095	479.4
595.298	860.32
595.5	579.75
595.703	663.71
595.906	561.31
596.109	954.52
596.311	1020.06
596.514	278.69
596.717	532.64
596.92	1085.59
597.122	856.22
597.325	290.98
597.528	483.49
597.73	1009.82
597.933	745.63
598.136	596.13
598.338	184.49
598.541	899.23
598.743	958.62
598.946	481.44
599.148	561.31
599.351	1026.2
599.554	1044.63
599.756	676
599.959	575.65
600.161	1036.44
600.363	1321.11
600.566	788.64
600.768	540.83
600.971	1257.62
601.173	927.9
601.376	602.27
601.578	477.35
601.78	1022.11
601.983	1269.91
602.185	463.01
602.388	704.67
602.59	798.88
602.792	729.25
602.995	702.62
603.197	508.07
603.399	1024.16
603.601	868.51
603.804	610.47
604.006	514.21
604.208	774.3
604.41	491.68
604.613	798.88
604.815	528.55
605.017	1364.12
605.219	770.21
605.421	839.84
605.623	448.68
605.826	1175.7
606.028	1169.56
606.23	628.9
606.432	696.48
606.634	1325.21
606.836	1157.27
607.038	493.73
607.24	751.78
607.442	917.66
607.644	827.55
607.846	747.68
608.048	397.48
608.25	1101.98
608.452	749.73
608.654	620.71
608.856	372.9
609.058	749.73
609.26	970.91
609.462	688.29
609.664	716.96
609.866	1308.82
610.067	1067.16
610.269	727.2
610.471	700.58
610.673	893.09
610.875	1032.35
611.077	463.01
611.278	678.05
611.48	899.23
611.682	1337.49
611.884	737.44
612.085	790.69
612.287	688.29
612.489	968.86
612.69	456.87
612.892	798.88
613.094	1130.65
613.295	1028.25
613.497	553.12
613.699	663.71
613.9	1331.35
614.102	1032.35
614.304	688.29
614.505	534.69
614.707	821.41
614.908	878.75
615.11	561.31
615.311	727.2
615.513	1110.17
615.714	1052.83
615.916	551.07
616.117	661.66
616.319	823.45
616.52	1114.27
616.722	676
616.923	678.05
617.124	1310.87
617.326	1116.31
617.527	817.31
617.729	995.48
617.93	1095.83
618.131	1155.23
618.333	678.05
618.534	673.95
618.735	764.06
618.937	1441.94
619.138	514.21
619.339	616.61
619.54	1120.41
619.742	944.28
619.943	733.34
620.144	737.44
620.345	1108.12
620.546	1110.17
620.748	694.43
620.949	714.91
621.15	993.44
621.351	1001.63
621.552	737.44
621.753	610.47
621.954	657.57
622.155	1433.75
622.356	573.6
622.558	897.18
622.759	934.04
622.96	1378.45
623.161	733.34
623.362	770.21
623.563	952.48
623.764	1018.01
623.965	665.76
624.166	981.15
624.366	923.8
624.567	1167.51
624.768	471.2
624.969	882.85
625.17	1020.06
625.371	1175.7
625.572	817.31
625.773	649.38
625.973	1239.19
626.174	1159.32
626.375	821.41
626.576	901.28
626.777	1087.64
626.977	1466.52
627.178	690.34
627.379	880.8
627.58	954.52
627.78	987.29
627.981	807.07
628.182	927.9
628.382	1292.44
628.583	737.44
628.784	688.29
628.984	1046.68
629.185	1294.49
629.386	1259.67
629.586	860.32
629.787	823.45
629.987	1149.08
630.188	1048.73
630.388	821.41
630.589	876.7
630.79	1697.94
630.99	1081.5
631.191	942.24
631.391	929.95
631.591	1255.58
631.792	1489.04
631.992	1073.31
632.193	886.94
632.393	1517.72
632.594	1140.89
632.794	811.17
632.994	979.1
633.195	1038.49
633.395	1056.92
633.595	888.99
633.796	1075.35
633.996	919.71
634.196	1427.6
634.397	608.42
634.597	897.18
634.797	827.55
634.997	1548.44
635.198	1065.11
635.398	870.56
635.598	1134.75
635.798	1519.76
635.998	1339.54
636.199	850.08
636.399	1015.96
636.599	993.44
636.799	852.13
636.999	1222.81
637.199	1228.95
637.399	1491.09
637.599	929.95
637.799	1071.26
637.999	1036.44
638.199	1519.76
638.399	815.26
638.599	891.04
638.799	1290.39
638.999	1622.16
639.199	1038.49
639.399	991.39
639.599	1499.28
639.799	954.52
639.999	802.97
640.199	796.83
640.399	1198.23
640.599	1200.28
640.799	1018.01
640.998	1149.08
641.198	1472.66
641.398	1241.24
641.598	1040.54
641.798	1056.92
641.997	2087.05
642.197	1112.22
642.397	946.33
642.597	913.56
642.796	1296.53
642.996	1530
643.196	1210.52
643.395	899.23
643.595	1323.16
643.795	884.89
643.994	1056.92
644.194	942.24
644.394	1372.31
644.593	1187.99
644.793	792.73
644.992	1118.36
645.192	1288.34
645.392	835.74
645.591	1112.22
645.791	1032.35
645.99	1220.76
646.19	1196.18
646.389	1085.59
646.589	946.33
646.788	1421.46
646.987	1290.39
647.187	1183.9
647.386	1249.43
647.586	1241.24
647.785	1435.8
647.984	1030.3
648.184	1122.46
648.383	1120.41
648.582	1190.04
648.782	1030.3
648.981	1071.26
649.18	1104.03
649.38	1286.3
649.579	934.04
649.778	1032.35
649.977	1372.31
650.177	1421.46
650.376	903.32
650.575	985.24
650.774	1566.87
650.973	1118.36
651.173	757.92
651.372	1106.07
651.571	1372.31
651.77	1468.56
651.969	1083.55
652.168	1126.55
652.367	1018.01
652.566	1149.08
652.765	1077.4
652.964	1278.1
653.163	1716.37
653.362	1271.96
653.561	1024.16
653.76	1112.22
653.959	1237.14
654.158	1454.23
654.357	1331.35
654.556	1079.45
654.755	1374.36
654.954	1495.19
655.153	1157.27
655.352	1196.18
655.551	1638.55
655.749	1208.47
655.948	1161.37
656.147	1222.81
656.346	1472.66
656.545	1327.25
656.743	1157.27
656.942	1159.32
657.141	1357.97
657.34	1077.4
657.538	1198.23
657.737	1222.81
657.936	1149.08
658.135	1419.41
658.333	1128.6
658.532	1208.47
658.731	1753.23
658.929	1450.13
659.128	1380.5
659.326	1085.59
659.525	1681.55
659.724	1407.13
659.922	950.43
660.121	946.33
660.319	1460.37
660.518	1169.56
660.716	970.91
660.915	1052.83
661.113	1624.21
661.312	979.1
661.51	1296.53
661.709	1163.42
661.907	1474.71
662.105	1835.15
662.304	1112.22
662.502	1175.7
662.701	1601.68
662.899	1224.86
663.097	1482.9
663.296	1026.2
663.494	1747.09
663.692	1695.89
663.891	1073.31
664.089	1095.83
664.287	1384.6
664.485	1761.42
664.684	1136.79
664.882	1323.16
665.08	1368.21
665.278	1366.17
665.476	1089.69
665.675	1495.19
665.873	1943.69
666.071	1659.03
666.269	1239.19
666.467	1499.28
666.665	1386.65
666.863	1323.16
667.061	1355.93
667.259	1144.99
667.457	1446.04
667.655	1577.11
667.853	1007.77
668.051	1200.28
668.249	1271.96
668.447	1644.69
668.645	1149.08
668.843	1294.49
669.041	1609.87
669.239	1460.37
669.437	1327.25
669.635	1353.88
669.833	1317.01
670.031	1654.93
670.229	1411.22
670.426	1245.34
670.624	1329.3
670.822	1212.57
671.02	1282.2
671.218	1337.49
671.415	1321.11
671.613	1419.41
671.811	1265.82
672.009	1267.86
672.206	1613.97
672.404	1568.91
672.602	1478.8
672.799	1433.75
672.997	1650.83
673.195	1702.03
673.392	1419.41
673.59	1126.55
673.788	1777.81
673.985	1085.59
674.183	1343.64
674.38	1224.86
674.578	1712.27
674.775	1177.75
674.973	1120.41
675.17	1173.66
675.368	1720.46
675.565	1521.81
675.763	1163.42
675.96	1271.96
676.158	1804.43
676.355	1509.52
676.553	1276.06
676.75	1196.18
676.947	1556.63
677.145	1450.13
677.342	1343.64
677.539	1372.31
677.737	1507.48
677.934	2048.14
678.131	1364.12
678.329	1243.29
678.526	1816.72
678.723	1716.37
678.92	1308.82
679.118	1288.34
679.315	1231
679.512	1763.47
679.709	1298.58
679.906	1527.96
680.104	1869.97
680.301	1683.6
680.498	1214.62
680.695	1200.28
680.892	1368.21
681.089	1450.13
681.286	1388.69
681.483	1159.32
681.68	1691.79
681.877	1720.46
682.075	1353.88
682.272	1558.67
682.469	1538.2
682.665	1491.09
682.862	1243.29
683.059	1163.42
683.256	1718.42
683.453	1507.48
683.65	1454.23
683.847	1370.26
684.044	1497.24
684.241	1304.73
684.438	1314.97
684.635	1204.38
684.831	1955.98
685.028	1974.41
685.225	1362.07
685.422	1503.38
685.619	1448.08
685.815	1589.39
686.012	1517.72
686.209	1419.41
686.405	1214.62
686.602	1724.56
686.799	1151.13
686.996	1294.49
687.192	1396.89
687.389	1980.56
687.586	1233.05
687.782	1329.3
687.979	1876.11
688.175	1792.14
688.372	1454.23
688.568	1396.89
688.765	1480.85
688.962	1804.43
689.158	1396.89
689.355	1271.96
689.551	1779.86
689.748	1421.46
689.944	1458.32
690.14	1196.18
690.337	1841.29
690.533	1425.56
690.73	1544.34
690.926	1489.04
691.123	1728.66
691.319	1640.59
691.515	1194.14
691.712	1546.39
691.908	1722.51
692.104	1630.35
692.301	1507.48
692.497	1233.05
692.693	1829.01
692.889	1812.62
693.086	1458.32
693.282	1222.81
693.478	1568.91
693.674	2005.13
693.87	1421.46
694.067	1265.82
694.263	1810.58
694.459	1507.48
694.655	1534.1
694.851	1525.91
695.047	1720.46
695.243	1632.4
695.439	1482.9
695.635	1306.77
695.831	1742.99
696.027	1564.82
696.224	1405.08
696.42	1788.05
696.615	1953.93
696.811	1685.65
697.007	1036.44
697.203	1421.46
697.399	1687.7
697.595	1888.4
697.791	1308.82
697.987	1487
698.183	1392.79
698.379	1429.65
698.575	1374.36
698.77	1462.42
698.966	1751.18
699.162	1783.95
699.358	1507.48
699.554	1351.83
699.749	1757.33
699.945	1839.25
700.141	1468.56
700.337	1540.24
700.532	1632.4
700.728	1357.97
700.924	1304.73
701.119	1302.68
701.315	1773.71
701.511	1583.25
701.706	1433.75
701.902	1136.79
702.097	1618.07
702.293	1677.46
702.489	1384.6
702.684	1327.25
702.88	1550.48
703.075	1396.89
703.271	1431.7
703.466	1364.12
703.662	1513.62
703.857	1792.14
704.053	1337.49
704.248	1521.81
704.443	1722.51
704.639	1749.14
704.834	1540.24
705.03	1382.55
705.225	1712.27
705.42	1845.39
705.616	1548.44
705.811	1212.57
706.006	1609.87
706.202	1507.48
706.397	1581.2
706.592	1360.02
706.787	1681.55
706.983	1654.93
707.178	1581.2
707.373	1544.34
707.568	1775.76
707.763	1880.21
707.959	1351.83
708.154	1448.08
708.349	1677.46
708.544	1788.05
708.739	1573.01
708.934	1394.84
709.129	1749.14
709.324	1722.51
709.519	1284.25
709.714	1370.26
709.909	1796.24
710.104	1697.94
710.299	1386.65
710.494	1470.61
710.689	1884.3
710.884	1704.08
711.079	1433.75
711.274	1613.97
711.469	1788.05
711.664	1605.78
711.859	1470.61
712.054	1515.67
712.249	1620.11
712.443	1872.01
712.638	1351.83
712.833	1396.89
713.028	1585.3
713.223	1601.68
713.417	1671.31
713.612	1306.77
713.807	1779.86
714.002	2228.36
714.196	1601.68
714.391	1439.89
714.586	1859.73
714.78	1642.64
714.975	1431.7
715.17	1314.97
715.364	1599.63
715.559	1892.49
715.754	1206.42
715.948	1525.91
716.143	2074.76
716.337	1702.03
716.532	1732.75
716.726	1443.99
716.921	1786
717.115	2181.26
717.31	1382.55
717.504	1931.41
717.699	1530
717.893	1786
718.088	1431.7
718.282	1458.32
718.476	1673.36
718.671	1626.26
718.865	1409.17
719.059	1521.81
719.254	1665.17
719.448	2056.33
719.642	2924.67
719.837	1257.62
720.031	1927.31
720.225	2037.9
720.419	1523.86
720.614	1345.69
720.808	1915.02
721.002	1683.6
721.196	1425.56
721.39	1458.32
721.585	1970.32
721.779	1747.09
721.973	1452.18
722.167	1321.11
722.361	1616.02
722.555	1857.68
722.749	1435.8
722.943	1349.78
723.137	1390.74
723.331	1644.69
723.525	1482.9
723.719	1458.32
723.913	1814.67
724.107	2039.95
724.301	1208.47
724.495	1489.04
724.689	2109.58
724.883	1906.83
725.077	1384.6
725.271	1376.41
725.465	2054.28
725.659	1716.37
725.853	1427.6
726.046	1312.92
726.24	1491.09
726.434	1917.07
726.628	1384.6
726.822	1478.8
727.015	2058.38
727.209	1904.78
727.403	1517.72
727.596	1351.83
727.79	1966.22
727.984	1939.6
728.177	1415.32
728.371	1587.35
728.565	1816.72
728.758	1513.62
728.952	1327.25
729.146	1439.89
729.339	1929.36
729.533	1667.22
729.726	1550.48
729.92	1335.45
730.113	2019.47
730.307	1775.76
730.5	1458.32
730.694	1546.39
730.887	1611.92
731.081	1820.81
731.274	1355.93
731.468	1568.91
731.661	1613.97
731.854	1552.53
732.048	1495.19
732.241	1364.12
732.435	1570.96
732.628	1740.94
732.821	1648.79
733.014	1413.27
733.208	1484.95
733.401	1788.05
733.594	1523.86
733.788	1495.19
733.981	2060.43
734.174	1718.42
734.367	1462.42
734.56	1560.72
734.754	1994.89
734.947	1716.37
735.14	1544.34
735.333	1675.41
735.526	1847.44
735.719	1491.09
735.912	1446.04
736.105	1388.69
736.298	1802.38
736.491	1611.92
736.684	1577.11
736.877	1415.32
737.07	1892.49
737.263	1994.89
737.456	1458.32
737.649	1327.25
737.842	1646.74
738.035	1861.77
738.228	1478.8
738.421	1613.97
738.614	2089.1
738.807	1921.17
739	1423.51
739.192	1503.38
739.385	1892.49
739.578	1986.7
739.771	1861.77
739.964	1489.04
740.156	1806.48
740.349	1814.67
740.542	1634.45
740.735	1405.08
740.927	1503.38
741.12	1497.24
741.313	1503.38
741.505	1691.79
741.698	1822.86
741.891	1716.37
742.083	1679.51
742.276	1466.52
742.468	1781.9
742.661	1673.36
742.854	1534.1
743.046	1550.48
743.239	2185.35
743.431	1650.83
743.624	1472.66
743.816	1335.45
744.009	1716.37
744.201	1876.11
744.393	1652.88
744.586	1491.09
744.778	2119.82
744.971	1685.65
745.163	1618.07
745.355	1646.74
745.548	1716.37
745.74	1669.27
745.932	1595.54
746.125	1491.09
746.317	2252.94
746.509	1716.37
746.702	1390.74
746.894	1675.41
747.086	1802.38
747.278	2056.33
747.471	1810.58
747.663	1478.8
747.855	1724.56
748.047	2183.31
748.239	1562.77
748.431	1536.15
748.623	2101.39
748.815	2130.06
749.008	1464.47
749.2	1452.18
749.392	1933.45
749.584	1867.92
749.776	1585.3
749.968	1644.69
750.16	2314.38
750.352	1699.98
750.544	1562.77
750.736	1554.58
750.928	1790.1
751.12	1767.57
751.311	1544.34
751.503	1599.63
751.695	1888.4
751.887	1792.14
752.079	1259.67
752.271	1570.96
752.463	2519.17
752.654	2005.13
752.846	1613.97
753.038	1466.52
753.23	1583.25
753.421	1976.46
753.613	1589.39
753.805	1747.09
753.997	2005.13
754.188	2023.56
754.38	1624.21
754.572	1568.91
754.763	1591.44
754.955	1933.45
755.146	1618.07
755.338	1589.39
755.53	1878.16
755.721	1755.28
755.913	1392.79
756.104	1468.56
756.296	1648.79
756.487	1841.29
756.679	1450.13
756.87	1568.91
757.062	1644.69
757.253	1851.53
757.445	1441.94
757.636	1728.66
757.827	1599.63
758.019	2341
758.21	1396.89
758.401	1607.83
758.593	2279.56
758.784	2125.96
758.975	1421.46
759.167	1439.89
759.358	1806.48
759.549	1992.84
759.74	1450.13
759.932	1503.38
760.123	1974.41
760.314	1626.26
760.505	1618.07
760.696	1476.76
760.888	2125.96
761.079	1613.97
761.27	1482.9
761.461	1308.82
761.652	2132.11
761.843	1712.27
762.034	1558.67
762.225	1792.14
762.416	1745.04
762.607	1738.9
762.798	1413.27
762.989	1470.61
763.18	2613.38
763.371	1736.85
763.562	1411.22
763.753	1632.4
763.944	1945.74
764.135	2023.56
764.326	1679.51
764.517	1583.25
764.708	1708.18
764.899	1921.17
765.089	1327.25
765.28	1331.35
765.471	1800.34
765.662	1915.02
765.853	1513.62
766.043	1302.68
766.234	1966.22
766.425	1962.12
766.615	1425.56
766.806	1335.45
766.997	2058.38
767.187	1751.18
767.378	1487
767.569	1378.45
767.759	1814.67
767.95	1745.04
768.141	1675.41
768.331	1302.68
768.522	1747.09
768.712	1839.25
768.903	1609.87
769.093	1489.04
769.284	2093.19
769.474	1878.16
769.665	1362.07
769.855	1321.11
770.046	1986.7
770.236	1640.59
770.426	1611.92
770.617	1421.46
770.807	1841.29
770.998	1671.31
771.188	1628.31
771.378	1396.89
771.569	1941.65
771.759	1798.29
771.949	1306.77
772.139	1179.8
772.33	1849.49
772.52	1996.94
772.71	1396.89
772.9	1282.2
773.09	2097.29
773.281	1890.45
773.471	1366.17
773.661	1421.46
773.851	1886.35
774.041	1677.46
774.231	1421.46
774.421	1505.43
774.611	2103.43
774.802	1714.32
774.992	1491.09
775.182	1312.92
775.372	1738.9
775.562	1927.31
775.752	1487
775.942	1441.94
776.131	2005.13
776.321	1814.67
776.511	1427.6
776.701	1319.06
776.891	1966.22
777.081	1507.48
777.271	1530
777.461	1298.58
777.651	1923.21
777.84	1972.36
778.03	1527.96
778.22	1460.37
778.41	1953.93
778.599	1411.22
778.789	1484.95
778.979	1290.39
779.169	1779.86
779.358	1601.68
779.548	1812.62
779.738	1345.69
779.927	1722.51
780.117	1499.28
780.307	1439.89
780.496	1136.79
780.686	1857.68
780.875	2222.22
781.065	1493.14
781.254	1329.3
781.444	1718.42
781.633	1712.27
781.823	1355.93
782.012	1314.97
782.202	1581.2
782.391	1591.44
782.581	1284.25
782.77	1632.4
782.96	1759.38
783.149	1689.74
783.338	1392.79
783.528	1294.49
783.717	1851.53
783.906	1925.26
784.096	1570.96
784.285	1292.44
784.474	1654.93
784.663	1474.71
784.853	1460.37
785.042	1540.24
785.231	1611.92
785.42	1865.87
785.61	1476.76
785.799	1286.3
785.988	1433.75
786.177	1550.48
786.366	1448.08
786.555	1560.72
786.744	1859.73
786.933	1673.36
787.122	1400.98
787.312	1351.83
787.501	1507.48
787.69	1753.23
787.879	1501.33
788.068	1425.56
788.257	1306.77
788.445	1489.04
788.634	1425.56
788.823	1345.69
789.012	2373.77
789.201	2011.28
789.39	1538.2
789.579	1347.73
789.768	1577.11
789.957	1710.22
790.145	1466.52
790.334	1202.33
790.523	1503.38
790.712	1523.86
790.9	1548.44
791.089	1261.72
791.278	1841.29
791.467	1706.13
791.655	1646.74
791.844	1884.3
792.033	1540.24
792.221	1484.95
792.41	1552.53
792.599	1380.5
792.787	1749.14
792.976	1788.05
793.164	1304.73
793.353	1366.17
793.541	1802.38
793.73	1792.14
793.918	1450.13
794.107	1386.65
794.295	1626.26
794.484	1630.35
794.672	1429.65
794.861	1450.13
795.049	1804.43
795.238	2085
795.426	1253.53
795.614	1427.6
795.803	1745.04
795.991	2048.14
796.179	1405.08
796.368	1441.94
796.556	1939.6
796.744	1448.08
796.932	1294.49
797.121	1239.19
797.309	1577.11
797.497	1734.8
797.685	1343.64
797.874	1335.45
798.062	1550.48
798.25	1943.69
798.438	1296.53
798.626	1370.26
798.814	1745.04
799.002	2101.39
799.19	1579.15
799.378	1413.27
799.566	1794.19
799.755	1925.26
799.943	1468.56
800.131	1423.51
800.318	1794.19
800.506	1878.16
800.694	1296.53
800.882	1433.75
801.07	1816.72
801.258	1695.89
801.446	1341.59
801.634	1362.07
801.822	1661.07
802.01	1816.72
802.197	1347.73
802.385	1542.29
802.573	1693.84
802.761	1515.67
802.949	1470.61
803.136	1294.49
803.324	1765.52
803.512	1689.74
803.699	1462.42
803.887	1200.28
804.075	2093.19
804.262	1583.25
804.45	1319.06
804.638	1462.42
804.825	1472.66
805.013	1515.67
805.201	1421.46
805.388	1245.34
805.576	1591.44
805.763	2044.04
805.951	1478.8
806.138	1517.72
806.326	2162.83
806.513	1781.9
806.701	1560.72
806.888	1431.7
807.075	1759.38
807.263	2154.63
807.45	1421.46
807.638	1620.11
807.825	2078.86
808.012	1853.58
808.2	1540.24
808.387	1558.67
808.574	1781.9
808.761	2101.39
808.949	1409.17
809.136	1519.76
809.323	1548.44
809.51	1638.55
809.698	1673.36
809.885	1478.8
810.072	1833.1
810.259	1917.07
810.446	1507.48
810.633	1503.38
810.82	1990.8
811.008	1972.36
811.195	1747.09
811.382	1564.82
811.569	1685.65
811.756	1364.12
811.943	1568.91
812.13	1527.96
812.317	1626.26
812.504	1491.09
812.691	1566.87
812.878	1677.46
813.064	2080.91
813.251	1745.04
813.438	1550.48
813.625	1691.79
813.812	1730.7
813.999	1650.83
814.186	1575.06
814.372	1523.86
814.559	1921.17
814.746	2033.8
814.933	1458.32
815.12	1722.51
815.306	1646.74
815.493	1525.91
815.68	1466.52
815.866	1540.24
816.053	2044.04
816.24	2101.39
816.426	1689.74
816.613	1333.4
816.799	1964.17
816.986	1970.32
817.173	1443.99
817.359	1478.8
817.546	1839.25
817.732	1458.32
817.919	1210.52
818.105	1683.6
818.292	1695.89
818.478	1867.92
818.665	1589.39
818.851	1540.24
819.037	2314.38
819.224	1685.65
819.41	1419.41
819.597	1405.08
819.783	2138.25
819.969	1976.46
820.156	1566.87
820.342	1403.03
820.528	2416.77
820.714	1702.03
820.901	1806.48
821.087	1470.61
821.273	2117.77
821.459	1775.76
821.646	1415.32
821.832	1437.84
822.018	1671.31
822.204	1833.1
822.39	1507.48
822.576	1347.73
822.762	1845.39
822.948	1810.58
823.134	1747.09
823.32	1525.91
823.507	1550.48
823.693	1783.95
823.879	1912.97
824.065	1493.14
824.25	1783.95
824.436	1491.09
824.622	1523.86
824.808	1378.45
824.994	1591.44
825.18	1521.81
825.366	1349.78
825.552	1511.57
825.738	1675.41
825.923	2037.9
826.109	1683.6
826.295	1501.33
826.481	1579.15
826.667	1683.6
826.852	1710.22
827.038	1370.26
827.224	2007.18
827.409	2113.67
827.595	1366.17
827.781	1650.83
827.966	1990.8
828.152	1970.32
828.338	1624.21
828.523	1331.35
828.709	1556.63
828.894	2042
829.08	1437.84
829.266	1497.24
829.451	1589.39
829.637	1847.44
829.822	1624.21
830.008	1400.98
830.193	1906.83
830.378	2107.53
830.564	1620.11
830.749	1347.73
830.935	1880.21
831.12	1869.97
831.305	1372.31
831.491	1517.72
831.676	1462.42
831.861	1876.11
832.047	1472.66
832.232	1417.37
832.417	2082.95
832.602	1763.47
832.788	1487
832.973	1454.23
833.158	1671.31
833.343	1790.1
833.528	1652.88
833.714	1593.49
833.899	1775.76
834.084	2117.77
834.269	1630.35
834.454	1548.44
834.639	1949.84
834.824	1683.6
835.009	1497.24
835.194	1577.11
835.379	1884.3
835.564	2027.66
835.749	1544.34
835.934	1343.64
836.119	1843.34
836.304	1689.74
836.489	1464.47
836.674	1757.33
836.859	1398.93
837.044	2128.01
837.228	1421.46
837.413	1339.54
837.598	1613.97
837.783	2015.37
837.968	1507.48
838.152	1278.1
838.337	1208.47
838.522	2076.81
838.707	1912.97
838.891	1585.3
839.076	1802.38
839.261	1859.73
839.445	1335.45
839.63	1544.34
839.815	1949.84
839.999	1527.96
840.184	1521.81
840.368	1538.2
840.553	1896.59
840.737	1912.97
840.922	1394.84
841.106	1351.83
841.291	1415.32
841.475	1673.36
841.66	1429.65
841.844	1425.56
842.029	2375.81
842.213	1368.21
842.397	1601.68
842.582	1261.72
842.766	2031.76
842.951	1818.77
843.135	1405.08
843.319	1552.53
843.504	1687.7
843.688	1935.5
843.872	1276.06
844.056	1446.04
844.241	1835.15
844.425	1554.58
844.609	1650.83
844.793	1241.24
844.977	1804.43
845.161	1720.46
845.346	1396.89
845.53	1388.69
845.714	1644.69
845.898	1988.75
846.082	1278.1
846.266	1372.31
846.45	1618.07
846.634	1626.26
846.818	1450.13
847.002	1624.21
847.186	1869.97
847.37	1386.65
847.554	1292.44
847.738	1519.76
847.922	1732.75
848.106	1624.21
848.29	1265.82
848.473	1439.89
848.657	1857.68
848.841	1540.24
849.025	1396.89
849.209	1081.5
849.392	1661.07
849.576	1697.94
849.76	1274.01
849.944	1550.48
850.127	2072.72
850.311	1376.41
850.495	1325.21
850.678	1343.64
850.862	1931.41
851.046	2082.95
851.229	1702.03
851.413	1265.82
851.596	1540.24
851.78	1618.07
851.964	1548.44
852.147	1519.76
852.331	2377.86
852.514	1937.55
852.698	1478.8
852.881	1142.94
853.065	1886.35
853.248	1597.59
853.431	1499.28
853.615	1448.08
853.798	2168.97
853.982	1734.8
854.165	1611.92
854.348	1386.65
854.532	1335.45
854.715	1515.67
854.898	1400.98
855.081	1378.45
855.265	1872.01
855.448	2011.28
855.631	1314.97
855.814	1378.45
855.997	1761.42
856.181	1630.35
856.364	1405.08
856.547	1208.47
856.73	1640.59
856.913	1624.21
857.096	1101.98
857.279	1335.45
857.462	1507.48
857.645	1814.67
857.828	1405.08
858.011	1464.47
858.194	1435.8
858.377	1691.79
858.56	1181.85
858.743	1310.87
858.926	1466.52
859.109	1824.91
859.292	1304.73
859.475	1247.38
859.658	1894.54
859.841	1736.85
860.023	1196.18
860.206	1269.91
860.389	1484.95
860.572	1867.92
860.755	1343.64
860.937	1341.59
861.12	1489.04
861.303	1663.12
861.486	1425.56
861.668	1353.88
861.851	1708.18
862.034	1679.51
862.216	1355.93
862.399	1056.92
862.581	1648.79
862.764	1966.22
862.947	1276.06
863.129	1267.86
863.312	1380.5
863.494	2021.52
863.677	1568.91
863.859	1124.51
864.042	1751.18
864.224	1896.59
864.406	1312.92
864.589	1249.43
864.771	1613.97
864.954	1220.76
865.136	1245.34
865.318	1106.07
865.501	1620.11
865.683	1153.18
865.865	1271.96
866.048	1226.9
866.23	1616.02
866.412	1429.65
866.594	1138.84
866.777	1300.63
866.959	1763.47
867.141	1310.87
867.323	1511.57
867.505	1341.59
867.687	1570.96
867.869	1570.96
868.052	1333.4
868.234	1237.14
868.416	1466.52
868.598	1691.79
868.78	1261.72
868.962	1163.42
869.144	1806.48
869.326	1722.51
869.508	1278.1
869.69	1163.42
869.872	1335.45
870.054	1757.33
870.236	1212.57
870.417	1288.34
870.599	1376.41
870.781	2027.66
870.963	1437.84
871.145	1204.38
871.327	1327.25
871.508	1667.22
871.69	1247.38
871.872	1306.77
872.054	1484.95
872.235	1654.93
872.417	1417.37
872.599	1091.74
872.78	1947.79
872.962	1460.37
873.144	1042.59
873.325	1314.97
873.507	1900.69
873.689	1628.31
873.87	1089.69
874.052	1317.01
874.233	1392.79
874.415	1704.08
874.596	1312.92
874.778	1147.03
874.959	1534.1
875.141	1663.12
875.322	1288.34
875.503	1056.92
875.685	1683.6
875.866	1136.79
876.048	1106.07
876.229	1271.96
876.41	1425.56
876.592	1552.53
876.773	1194.14
876.954	1142.94
877.136	1843.34
877.317	1274.01
877.498	1069.21
877.679	1339.54
877.86	1544.34
878.042	1429.65
878.223	1237.14
878.404	1523.86
878.585	1667.22
878.766	2009.23
878.947	1509.52
879.128	1476.76
879.309	1695.89
879.49	1769.62
879.672	1325.21
879.853	1403.03
880.034	1345.69
880.215	1441.94
880.396	1425.56
880.576	1294.49
880.757	1429.65
880.938	1872.01
881.119	1210.52
881.3	1241.24
881.481	1386.65
881.662	2388.1
881.843	1224.86
882.023	1169.56
882.204	1622.16
882.385	1550.48
882.566	1220.76
882.747	1187.99
882.927	1452.18
883.108	1589.39
883.289	1257.62
883.469	1478.8
883.65	1462.42
883.831	1587.35
884.011	1429.65
884.192	1284.25
884.373	1843.34
884.553	1724.56
884.734	1501.33
884.914	1681.55
885.095	2261.13
885.275	1951.88
885.456	1759.38
885.636	1274.01
885.817	1577.11
885.997	1644.69
886.178	1261.72
886.358	1417.37
886.538	1515.67
886.719	2576.52
886.899	1337.49
887.08	1390.74
887.26	1872.01
887.44	1339.54
887.621	1228.95
887.801	1493.14
887.981	2220.17
888.161	1714.32
888.342	1540.24
888.522	1374.36
888.702	1775.76
888.882	1998.99
889.062	1396.89
889.242	1155.23
889.423	1994.89
889.603	1736.85
889.783	1478.8
889.963	1327.25
890.143	1845.39
890.323	1855.63
890.503	1413.27
890.683	1454.23
890.863	1742.99
891.043	1669.27
891.223	1513.62
891.403	1677.46
891.583	1671.31
891.763	1640.59
891.943	1501.33
892.122	1351.83
892.302	1548.44
892.482	1583.25
892.662	1527.96
892.842	1462.42
893.022	1765.52
893.201	1466.52
893.381	1568.91
893.561	1392.79
893.741	1886.35
893.92	1843.34
894.1	1482.9
894.28	1460.37
894.459	1910.93
894.639	1806.48
894.819	1462.42
894.998	1603.73
895.178	1699.98
895.357	1638.55
895.537	1362.07
895.716	1280.15
895.896	1573.01
896.075	2046.09
896.255	1462.42
896.434	1278.1
896.614	1837.2
896.793	1923.21
896.973	1550.48
897.152	1607.83
897.331	1910.93
897.511	1863.82
897.69	1298.58
897.87	1532.05
898.049	1888.4
898.228	1689.74
898.407	1613.97
898.587	1544.34
898.766	1487
898.945	1906.83
899.124	1710.22
899.304	1472.66
899.483	1892.49
899.662	2142.35
899.841	1364.12
900.02	1392.79
900.199	2066.57
900.378	1704.08
900.557	1337.49
900.737	1261.72
900.916	1704.08
901.095	1872.01
901.274	1777.81
901.453	1360.02
901.632	1507.48
901.811	1423.51
901.989	1378.45
902.168	1394.84
902.347	1718.42
902.526	1599.63
902.705	1523.86
902.884	1480.85
903.063	1996.94
903.242	1953.93
903.42	1212.57
903.599	1640.59
903.778	1806.48
903.957	1945.74
904.135	1577.11
904.314	1534.1
904.493	1597.59
904.672	1824.91
904.85	1499.28
905.029	1429.65
905.207	1685.65
905.386	2392.2
905.565	1296.53
905.743	1298.58
905.922	1505.43
906.1	1876.11
906.279	1187.99
906.457	1159.32
906.636	1487
906.814	1663.12
906.993	1423.51
907.171	1413.27
907.35	1882.25
907.528	1761.42
907.707	1562.77
907.885	1278.1
908.063	2066.57
908.242	1515.67
908.42	1495.19
908.598	1132.7
908.777	1820.81
908.955	1566.87
909.133	1386.65
909.311	1284.25
909.49	1491.09
909.668	1644.69
909.846	1489.04
910.024	1077.4
910.202	1554.58
910.38	1634.45
910.559	1274.01
910.737	1284.25
910.915	1603.73
911.093	1579.15
911.271	1411.22
911.449	1546.39
911.627	1685.65
911.805	2076.81
911.983	1302.68
912.161	1372.31
912.339	1640.59
912.517	1921.17
912.695	1544.34
912.872	1466.52
913.05	1374.36
913.228	1534.1
913.406	1278.1
913.584	1294.49
913.762	1745.04
913.939	1437.84
914.117	1237.14
914.295	1200.28
914.473	1685.65
914.65	1591.44
914.828	1333.4
915.006	1306.77
915.184	1396.89
915.361	1683.6
915.539	1368.21
915.716	1403.03
915.894	1487
916.072	1687.7
916.249	1425.56
916.427	1405.08
916.604	1224.86
916.782	1661.07
916.959	1163.42
917.137	1179.8
917.314	1470.61
917.492	1581.2
917.669	1310.87
917.847	1392.79
918.024	1575.06
918.201	1521.81
918.379	1294.49
918.556	1288.34
918.733	1724.56
918.911	1521.81
919.088	1519.76
919.265	1249.43
919.442	1521.81
919.62	1435.8
919.797	1198.23
919.974	1048.73
920.151	1693.84
920.328	1487
920.506	1310.87
920.683	1403.03
920.86	1220.76
921.037	1271.96
921.214	1231
921.391	1175.7
921.568	1536.15
921.745	1220.76
921.922	1183.9
922.099	1063.07
922.276	1642.64
922.453	1509.52
922.63	1106.07
922.807	1630.35
922.984	1456.28
923.161	1294.49
923.338	1077.4
923.514	1216.66
923.691	1454.23
923.868	1470.61
924.045	1220.76
924.222	1093.79
924.399	1400.98
924.575	1632.4
924.752	1263.77
924.929	1288.34
925.105	1505.43
925.282	1155.23
925.459	1147.03
925.635	1198.23
925.812	1341.59
925.989	1263.77
926.165	1151.13
926.342	1048.73
926.518	1085.59
926.695	1323.16
926.871	1079.45
927.048	903.32
927.224	1495.19
927.401	1114.27
927.577	1159.32
927.754	913.56
927.93	1470.61
928.107	1390.74
928.283	950.43
928.459	1192.09
928.636	1398.93
928.812	1216.66
928.988	983.2
929.165	901.28
929.341	1173.66
929.517	1271.96
929.693	1245.34
929.87	882.85
930.046	1308.82
930.222	1085.59
930.398	909.47
930.574	1036.44
930.751	1239.19
930.927	987.29
931.103	1036.44
931.279	1003.68
931.455	977.05
931.631	1216.66
931.807	831.65
931.983	856.22
932.159	960.67
932.335	1185.94
932.511	1097.88
932.687	997.53
932.863	1274.01
933.039	1159.32
933.215	839.84
933.391	811.17
933.566	1104.03
933.742	1147.03
933.918	880.8
934.094	692.38
934.27	1108.12
934.445	1126.55
934.621	987.29
934.797	817.31
934.973	1321.11
935.148	1251.48
935.324	710.82
935.5	667.81
935.675	1409.17
935.851	1169.56
936.027	796.83
936.202	845.98
936.378	1159.32
936.553	921.76
936.729	1179.8
936.904	786.59
937.08	698.53
937.255	888.99
937.431	649.38
937.606	620.71
937.782	864.41
937.957	989.34
938.133	796.83
938.308	731.3
938.483	823.45
938.659	606.37
938.834	669.86
939.009	589.99
939.185	790.69
939.36	630.95
939.535	329.89
939.71	727.2
939.886	1048.73
940.061	907.42
940.236	807.07
940.411	639.14
940.586	880.8
940.761	874.65
940.937	583.84
941.112	503.97
941.287	737.44
941.462	790.69
941.637	377
941.812	434.34
941.987	823.45
942.162	688.29
942.337	497.83
942.512	469.16
942.687	925.85
942.862	792.73
943.037	364.71
943.212	268.45
943.386	544.93
943.561	686.24
943.736	538.79
943.911	704.67
944.086	802.97
944.26	655.52
944.435	456.87
944.61	479.4
944.785	950.43
944.959	1128.6
945.134	604.32
945.309	362.66
945.483	401.57
945.658	921.76
945.833	133.29
946.007	264.36
946.182	1034.39
946.357	428.2
946.531	325.8
946.706	331.94
946.88	174.25
947.055	610.47
947.229	381.09
947.404	290.98
947.578	878.75
947.752	598.18
947.927	323.75
948.101	270.5
948.276	596.13
948.45	657.57
948.624	671.9
948.799	317.61
948.973	825.5
949.147	346.28
949.321	559.27
949.496	452.77
949.67	878.75
949.844	512.16
950.018	409.76
950.193	438.44
950.367	1075.35
950.541	485.54
950.715	417.96
950.889	594.08
951.063	569.51
951.237	829.6
951.411	180.39
951.585	229.54
951.759	864.41
951.933	536.74
952.107	391.33
952.281	573.6
952.455	1046.68
952.629	841.89
952.803	379.04
952.977	333.99
953.151	856.22
953.325	807.07
953.499	571.55
953.672	223.4
953.846	366.76
954.02	534.69
954.194	260.26
954.368	348.33
954.541	788.64
954.715	448.68
954.889	467.11
955.062	315.56
955.236	514.21
955.41	540.83
955.583	544.93
955.757	147.62
955.93	520.35
956.104	399.52
956.278	245.93
956.451	458.92
956.625	686.24
956.798	1106.07
956.972	647.33
957.145	329.89
957.319	608.42
957.492	585.89
957.665	506.02
957.839	270.5
958.012	747.68
958.185	481.44
958.359	450.72
958.532	647.33
958.705	694.43
958.879	757.92
959.052	467.11
959.225	114.86
959.398	618.66
959.572	635.04
959.745	393.38
959.918	501.92
960.091	612.51
960.264	716.96
960.438	278.69
960.611	284.84
960.784	798.88
960.957	428.2
961.13	723.1
961.303	407.72
961.476	573.6
961.649	868.51
961.822	290.98
961.995	446.63
962.168	682.14
962.341	714.91
962.514	389.28
962.686	344.23
962.859	663.71
963.032	620.71
963.205	409.76
963.378	258.21
963.551	727.2
963.723	686.24
963.896	518.31
964.069	452.77
964.242	491.68
964.414	796.83
964.587	434.34
964.76	536.74
964.932	632.99
965.105	616.61
965.278	413.86
965.45	329.89
965.623	569.51
965.795	700.58
965.968	368.81
966.14	352.42
966.313	475.3
966.485	522.4
966.658	430.24
966.83	258.21
967.003	848.03
967.175	821.41
967.348	256.17
967.52	366.76
967.692	960.67
967.865	710.82
968.037	342.18
968.209	620.71
968.382	577.7
968.554	745.63
968.726	342.18
968.898	323.75
969.071	602.27
969.243	739.49
969.415	444.58
969.587	442.53
969.759	1085.59
969.932	784.54
970.104	452.77
970.276	69.8
970.448	448.68
970.62	430.24
970.792	473.25
970.964	370.85
971.136	993.44
971.308	630.95
971.48	370.85
971.652	340.13
971.824	901.28
971.996	438.44
972.168	403.62
972.339	379.04
972.511	843.93
972.683	477.35
972.855	491.68
973.027	368.81
973.199	559.27
973.37	678.05
973.542	411.81
973.714	561.31
973.886	614.56
974.057	721.06
974.229	229.54
974.401	338.09
974.572	391.33
974.744	135.34
974.915	327.85
975.087	323.75
975.259	907.42
975.43	463.01
975.602	305.32
975.773	204.97
975.945	313.51
976.116	684.19
976.288	317.61
976.459	567.46
976.63	475.3
976.802	594.08
976.973	331.94
977.145	469.16
977.316	991.39
977.487	913.56
977.659	436.39
977.83	336.04
978.001	1003.68
978.172	587.94
978.344	186.54
978.515	295.08
978.686	403.62
978.857	827.55
979.028	409.76
979.2	272.55
979.371	757.92
979.542	561.31
979.713	444.58
979.884	-8.02
980.055	311.46
980.226	438.44
980.397	305.32
980.568	207.02
980.739	762.02
980.91	487.59
981.081	467.11
981.252	258.21
981.423	721.06
981.594	809.12
981.765	231.59
981.936	426.15
982.106	567.46
982.277	778.4
982.448	274.6
982.619	465.06
982.79	377
982.96	729.25
983.131	370.85
983.302	127.14
983.472	428.2
983.643	594.08
983.814	270.5
983.984	217.26
984.155	528.55
984.326	796.83
984.496	434.34
984.667	333.99
984.837	307.37
985.008	764.06
985.178	499.88
985.349	340.13
985.519	442.53
985.69	282.79
985.86	321.7
986.031	153.77
986.201	530.59
986.371	626.85
986.542	207.02
986.712	10.41
986.882	641.18
987.053	579.75
987.223	290.98
987.393	417.96
987.563	401.57
987.734	661.66
987.904	516.26
988.074	327.85
988.244	573.6
988.414	307.37
988.585	188.58
988.755	368.81
988.925	520.35
989.095	860.32
989.265	164.01
989.435	340.13
989.605	559.27
989.775	563.36
989.945	503.97
990.115	188.58
990.285	532.64
990.455	557.22
990.625	315.56
990.795	209.06
990.965	805.02
991.134	245.93
991.304	180.39
991.474	188.58
991.644	610.47
991.814	835.74
991.984	63.66
992.153	280.74
992.323	493.73
992.493	471.2
992.662	-91.99
992.832	385.19
993.002	542.88
993.171	493.73
993.341	39.08
993.511	331.94
993.68	370.85
993.85	622.75
994.019	53.42
994.189	123.05
994.358	463.01
994.528	319.65
994.697	-55.12
994.867	104.62
995.036	522.4
995.206	352.42
995.375	123.05
995.544	299.17
995.714	460.96
995.883	385.19
996.052	209.06
996.222	-53.08
996.391	917.66
996.56	397.48
996.73	51.37
996.899	-32.6
997.068	790.69
997.237	381.09
997.406	37.03
997.576	-10.07
997.745	463.01
997.914	450.72
998.083	-53.08
998.252	77.99
998.421	436.39
998.59	231.59
998.759	65.71
998.928	-44.88
999.097	712.86
999.266	397.48
999.435	223.4
999.604	-20.31
999.773	899.23
999.942	315.56
1000.111	-5.97
1000.28	-100.18
1000.448	118.95
1000.617	204.97
1000.786	207.02
1000.955	41.13
1001.124	444.58
1001.292	1097.88
1001.461	94.38
1001.63	18.6
1001.798	811.17
1001.967	721.06
1002.136	-46.93
1002.304	4.27
1002.473	426.15
1002.642	463.01
1002.81	106.67
1002.979	69.8
1003.147	589.99
1003.316	960.67
1003.484	32.94
1003.653	30.89
1003.821	612.51
1003.99	383.14
1004.158	137.38
1004.327	110.76
1004.495	518.31
1004.663	157.86
1004.832	145.58
1005	-81.75
1005.168	477.35
1005.337	381.09
1005.505	-79.7
1005.673	207.02
1005.842	508.07
1006.01	487.59
1006.178	-18.26
1006.346	22.7
1006.514	520.35
1006.683	602.27
1006.851	-20.31
1007.019	-102.23
1007.187	139.43
1007.355	-98.13
1007.523	0.17
1007.691	-110.42
1007.859	94.38
1008.027	573.6
1008.195	59.56
1008.363	-63.32
1008.531	475.3
1008.699	243.88
1008.867	-102.23
1009.035	-75.6
1009.203	530.59
1009.37	295.08
1009.538	-16.21
1009.706	424.1
1009.874	450.72
1010.042	256.17
1010.209	-106.32
1010.377	-51.03
1010.545	481.44
1010.713	319.65
1010.88	-3.93
1011.048	114.86
1011.216	139.43
1011.383	651.42
1011.551	86.19
1011.718	-20.31
1011.886	524.45
1012.054	217.26
1012.221	-81.75
1012.389	-24.4
1012.556	237.74
1012.724	694.43
1012.891	94.38
1013.058	-151.38
1013.226	409.76
1013.393	508.07
1013.561	-173.91
1013.728	-120.66
1013.895	450.72
1014.063	383.14
1014.23	-104.28
1014.397	-36.69
1014.565	501.92
1014.732	229.54
1014.899	-53.08
1015.066	-69.46
1015.233	319.65
1015.401	434.34
1015.568	22.7
1015.735	34.99
1015.902	327.85
1016.069	475.3
1016.236	45.23
1016.403	-96.08
1016.57	139.43
1016.737	516.26
1016.904	0.17
1017.071	-63.32
1017.238	102.57
1017.405	381.09
1017.572	-36.69
1017.739	114.86
1017.906	366.76
1018.073	463.01
1018.24	-85.84
1018.407	2.22
1018.573	569.51
1018.74	303.27
1018.907	65.71
1019.074	-241.49
1019.241	503.97
1019.407	307.37
1019.574	-145.24
1019.741	-200.53
1019.907	272.55
1020.074	362.66
1020.241	-266.07
1020.407	-180.05
1020.574	295.08
1020.74	442.53
1020.907	-94.04
1021.073	-81.75
1021.24	768.16
1021.406	514.21
1021.573	-69.46
1021.739	-114.52
1021.906	422.05
1022.072	262.31
1022.239	-110.42
1022.405	-69.46
1022.571	331.94
1022.738	16.55
1022.904	-94.04
1023.07	-42.84
1023.237	247.97
1023.403	487.59
1023.569	-108.37
1023.735	-18.26
1023.902	231.59
1024.068	286.89
1024.234	-221.01
1024.4	-104.28
1024.566	286.89
1024.732	479.4
1024.898	-20.31
1025.065	-235.35
1025.231	450.72
1025.397	200.87
1025.563	2.22
1025.729	-167.76
1025.895	-132.95
1026.061	77.99
1026.227	-257.87
1026.392	-73.56
1026.558	579.75
1026.724	360.61
1026.89	-188.24
1027.056	-26.45
1027.222	368.81
1027.388	280.74
1027.553	-32.6
1027.719	-143.19
1027.885	661.66
1028.051	305.32
1028.216	-261.97
1028.382	-69.46
1028.548	465.06
1028.713	141.48
1028.879	-216.91
1029.045	34.99
1029.21	581.79
1029.376	501.92
1029.541	4.27
1029.707	-26.45
1029.873	348.33
1030.038	458.92
1030.204	-118.61
1030.369	-110.42
1030.534	448.68
1030.7	190.63
1030.865	-73.56
1031.031	-118.61
1031.196	387.24
1031.361	364.71
1031.527	-137.04
1031.692	-122.71
1031.857	-87.89
1032.023	395.43
1032.188	-173.91
1032.353	-61.27
1032.518	622.75
1032.684	309.41
1032.849	-221.01
1033.014	-85.84
1033.179	491.68
1033.344	360.61
1033.509	16.55
1033.674	-145.24
1033.839	493.73
1034.004	393.38
1034.17	-151.38
1034.335	-112.47
1034.5	129.19
1034.664	213.16
1034.829	-175.95
1034.994	-8.02
1035.159	258.21
1035.324	260.26
1035.489	-55.12
1035.654	-147.28
1035.819	569.51
1035.984	342.18
1036.148	-59.22
1036.313	-106.32
1036.478	620.71
1036.643	252.07
1036.807	-85.84
1036.972	-188.24
1037.137	469.16
1037.301	270.5
1037.466	-296.78
1037.631	-118.61
1037.795	542.88
1037.96	307.37
1038.124	57.51
1038.289	-184.15
1038.454	434.34
1038.618	262.31
1038.783	-77.65
1038.947	-55.12
1039.111	282.79
1039.276	129.19
1039.44	-212.82
1039.605	321.7
1039.769	202.92
1039.933	159.91
1040.098	-30.55
1040.262	131.24
1040.426	495.78
1040.591	325.8
1040.755	-204.63
1040.919	-40.79
1041.083	364.71
1041.248	237.74
1041.412	-298.83
1041.576	-178
1041.74	211.11
1041.904	452.77
1042.068	-157.52
1042.232	-38.74
1042.397	485.54
1042.561	321.7
1042.725	-347.98
1042.889	12.46
1043.053	401.57
1043.217	377
1043.381	-36.69
1043.544	-253.78
1043.708	551.07
1043.872	20.65
1044.036	-331.6
1044.2	-227.15
1044.364	522.4
1044.528	610.47
1044.691	4614.24
1044.855	-223.06
1045.019	467.11
1045.183	383.14
1045.346	0.17
1045.51	-163.67
1045.674	264.36
1045.837	446.63
1046.001	-122.71
1046.165	-243.54
1046.328	845.98
1046.492	323.75
1046.655	65.71
1046.819	-3.93
1046.983	155.82
1047.146	372.9
1047.31	-118.61
1047.473	-266.07
1047.636	266.41
1047.8	80.04
1047.963	-53.08
1048.127	-155.47
1048.29	20.65
