Data from Ink_Intensity_USB4F045381__146__00146.txt Node

Date: Mon Jul 17 11:26:53 EDT 2023
User: mmckonesweet
Spectrometer: USB4F04538
Trigger mode: 4
Integration Time (sec): 9.000000E-1
Scans to average: 1
Electric dark correction enabled: true
Nonlinearity correction enabled: false
Boxcar width: 0
XAxis mode: Wavelengths
Number of Pixels in Spectrum: 3648
>>>>>Begin Spectral Data<<<<<
345.52	-995.82
345.736	-995.82
345.952	-995.82
346.168	-1079.79
346.384	-981.49
346.6	-156.16
346.816	-272.89
347.032	-223.74
347.248	275.96
347.464	-260.6
347.68	-176.64
347.896	183.81
348.112	376.31
348.328	-39.42
348.544	-53.76
348.76	34.3
348.975	312.83
349.191	-240.12
349.407	-186.88
349.623	9.73
349.839	-27.14
350.055	-125.44
350.27	91.65
350.486	58.88
350.702	321.02
350.918	159.23
351.133	-238.08
351.349	118.27
351.565	361.98
351.781	-262.65
351.996	-57.86
352.212	343.55
352.428	-170.49
352.644	-260.6
352.859	-107.01
353.075	222.72
353.291	101.89
353.506	-182.78
353.722	-205.31
353.938	-109.05
354.153	458.23
354.369	99.84
354.584	-197.12
354.8	185.85
355.016	-342.52
355.231	-233.98
355.447	-61.95
355.662	116.22
355.878	785.91
356.093	-377.34
356.309	-115.2
356.524	-197.12
356.74	243.2
356.955	-172.54
357.171	-66.05
357.386	163.33
357.602	-311.8
357.817	-78.33
358.033	-279.04
358.248	366.07
358.464	52.74
358.679	-158.21
358.895	-307.71
359.11	-8.7
359.325	292.35
359.541	-90.62
359.756	-18.94
359.972	-367.1
360.187	294.4
360.402	-238.08
360.618	-248.32
360.833	947.7
361.048	87.55
361.264	-248.32
361.479	-90.62
361.694	52.74
361.909	218.62
362.125	-279.04
362.34	-201.21
362.555	220.67
362.77	185.85
362.986	-305.66
363.201	-201.21
363.416	101.89
363.631	54.78
363.847	-236.03
364.062	-178.69
364.277	222.72
364.492	-31.23
364.707	-229.88
364.922	-489.98
365.138	300.54
365.353	298.49
365.568	-309.76
365.783	-162.3
365.998	-4.61
366.213	577.02
366.428	-219.64
366.643	24.06
366.858	159.23
367.073	206.33
367.288	-205.31
367.503	-285.18
367.718	134.65
367.933	261.63
368.148	-336.38
368.363	-131.58
368.578	-25.09
368.793	345.59
369.008	-152.06
369.223	-295.42
369.438	183.81
369.653	364.03
369.868	-293.37
370.083	-287.23
370.298	65.02
370.513	347.64
370.728	-16.9
370.943	-125.44
371.157	-193.02
371.372	497.14
371.587	-301.56
371.802	-336.38
372.017	-33.28
372.232	495.1
372.446	-66.05
372.661	-221.69
372.876	167.42
373.091	91.65
373.306	-111.1
373.52	-262.65
373.735	-238.08
373.95	329.21
374.165	-154.11
374.379	-221.69
374.594	-158.21
374.809	105.98
375.023	1.54
375.238	-258.56
375.453	269.82
375.667	-363
375.882	-213.5
376.097	-246.27
376.311	11.78
376.526	40.45
376.741	-336.38
376.955	87.55
377.17	482.81
377.384	484.86
377.599	-168.45
377.813	-309.76
378.028	564.73
378.242	171.52
378.457	-133.63
378.672	-377.34
378.886	26.11
379.101	-35.33
379.315	-418.3
379.53	-147.97
379.744	189.95
379.958	112.13
380.173	-143.87
380.387	-231.93
380.602	128.51
380.816	-131.58
381.031	-154.11
381.245	-154.11
381.459	196.09
381.674	810.48
381.888	-207.36
382.103	32.26
382.317	-268.8
382.531	474.62
382.746	-176.64
382.96	-291.32
383.174	-127.49
383.388	501.24
383.603	-29.18
383.817	-350.71
384.031	101.89
384.246	372.22
384.46	-49.66
384.674	253.44
384.888	15.87
385.103	38.4
385.317	-430.59
385.531	-74.24
385.745	411.13
385.959	347.64
386.174	-295.42
386.388	-279.04
386.602	-20.99
386.816	-180.73
387.03	-154.11
387.244	-193.02
387.458	1.54
387.672	341.5
387.887	-276.99
388.101	-307.71
388.315	316.92
388.529	122.37
388.743	-115.2
388.957	-250.36
389.171	284.16
389.385	-172.54
389.599	-236.03
389.813	22.02
390.027	183.81
390.241	607.73
390.455	-176.64
390.669	-139.77
390.883	-127.49
391.097	359.93
391.311	-12.8
391.525	-262.65
391.738	136.7
391.952	105.98
392.166	-72.19
392.38	-285.18
392.594	243.2
392.808	349.69
393.022	-111.1
393.236	-125.44
393.449	187.9
393.663	122.37
393.877	-184.83
394.091	-82.43
394.305	-172.54
394.518	-111.1
394.732	-256.51
394.946	-160.25
395.16	499.19
395.373	110.08
395.587	-270.84
395.801	-270.84
396.015	388.6
396.228	110.08
396.442	-303.61
396.656	-328.19
396.869	245.24
397.083	435.71
397.297	-123.39
397.51	-123.39
397.724	329.21
397.938	105.98
398.151	-336.38
398.365	-285.18
398.578	204.28
398.792	396.79
399.005	-6.66
399.219	-172.54
399.433	32.26
399.646	146.94
399.86	-6.66
400.073	-66.05
400.287	194.05
400.5	-0.51
400.714	-55.81
400.927	-25.09
401.141	222.72
401.354	1007.09
401.567	175.61
401.781	-188.93
401.994	265.72
402.208	581.11
402.421	-156.16
402.635	-203.26
402.848	-33.28
403.061	280.06
403.275	-98.81
403.488	-254.46
403.701	407.03
403.915	298.49
404.128	-20.99
404.341	-238.08
404.555	208.38
404.768	-16.9
404.981	-31.23
405.195	-209.4
405.408	470.52
405.621	273.92
405.834	-41.47
406.048	-344.57
406.261	378.36
406.474	398.84
406.687	-221.69
406.9	-64
407.114	-0.51
407.327	126.46
407.54	-330.23
407.753	-358.91
407.966	-162.3
408.179	169.47
408.392	-258.56
408.605	-360.95
408.819	144.89
409.032	210.43
409.245	-246.27
409.458	34.3
409.671	124.41
409.884	245.24
410.097	-393.72
410.31	-41.47
410.523	198.14
410.736	13.82
410.949	-92.67
411.162	-164.35
411.375	392.7
411.588	259.58
411.801	-64
412.014	-229.88
412.227	-82.43
412.44	-90.62
412.653	-147.97
412.865	-33.28
413.078	175.61
413.291	155.13
413.504	-164.35
413.717	-242.17
413.93	175.61
414.143	-176.64
414.356	-78.33
414.568	-365.05
414.781	237.05
414.994	110.08
415.207	-119.29
415.42	-98.81
415.632	218.62
415.845	456.19
416.058	-279.04
416.271	-373.24
416.483	48.64
416.696	413.18
416.909	-162.3
417.121	-246.27
417.334	101.89
417.547	441.85
417.759	-262.65
417.972	-252.41
418.185	-113.15
418.397	177.66
418.61	-242.17
418.823	-262.65
419.035	425.47
419.248	28.16
419.46	-176.64
419.673	-139.77
419.885	163.33
420.098	-66.05
420.311	-190.97
420.523	-446.97
420.736	216.57
420.948	40.45
421.161	-188.93
421.373	-465.4
421.586	177.66
421.798	-168.45
422.01	-397.82
422.223	-78.33
422.435	-107.01
422.648	269.82
422.86	-233.98
423.073	-227.84
423.285	318.97
423.497	-180.73
423.71	-240.12
423.922	-295.42
424.134	220.67
424.347	384.51
424.559	-66.05
424.771	34.3
424.984	-57.86
425.196	97.79
425.408	-360.95
425.621	-309.76
425.833	249.34
426.045	343.55
426.257	-303.61
426.47	-262.65
426.682	114.17
426.894	192
427.106	-225.79
427.318	-162.3
427.531	-125.44
427.743	204.28
427.955	-236.03
428.167	263.68
428.379	148.99
428.591	-41.47
428.804	-162.3
429.016	-262.65
429.228	-33.28
429.44	67.07
429.652	-2.56
429.864	-373.24
430.076	1.54
430.288	-70.14
430.5	-90.62
430.712	-121.34
430.924	282.11
431.136	112.13
431.348	-295.42
431.56	-360.95
431.772	58.88
431.984	-115.2
432.196	-338.43
432.408	-289.28
432.62	-107.01
432.832	110.08
433.044	-35.33
433.256	-145.92
433.468	187.9
433.679	-342.52
433.891	-360.95
434.103	-49.66
434.315	378.36
434.527	198.14
434.739	-68.09
434.95	-207.36
435.162	179.71
435.374	-178.69
435.586	-238.08
435.798	-170.49
436.009	-266.75
436.221	-127.49
436.433	-190.97
436.645	-215.55
436.856	-147.97
437.068	290.3
437.28	-336.38
437.491	73.21
437.703	155.13
437.915	91.65
438.126	-193.02
438.338	9.73
438.55	-12.8
438.761	153.09
438.973	-229.88
439.184	-176.64
439.396	-31.23
439.608	216.57
439.819	-350.71
440.031	-29.18
440.242	175.61
440.454	179.71
440.665	-168.45
440.877	-143.87
441.088	144.89
441.3	-55.81
441.511	-367.1
441.723	-213.5
441.934	128.51
442.146	97.79
442.357	-57.86
442.569	-14.85
442.78	22.02
442.991	419.32
443.203	110.08
443.414	-330.23
443.626	316.92
443.837	-213.5
444.048	-291.32
444.26	-397.82
444.471	103.93
444.682	220.67
444.894	-352.76
445.105	-270.84
445.316	204.28
445.528	175.61
445.739	-25.09
445.95	-113.15
446.161	46.59
446.373	200.19
446.584	-166.4
446.795	-244.22
447.006	153.09
447.217	359.93
447.429	-440.83
447.64	-291.32
447.851	302.59
448.062	24.06
448.273	-358.91
448.484	-250.36
448.695	108.03
448.907	-0.51
449.118	-154.11
449.329	-129.53
449.54	-135.68
449.751	-246.27
449.962	-209.4
450.173	-272.89
450.384	239.1
450.595	310.78
450.806	-221.69
451.017	-164.35
451.228	331.26
451.439	173.57
451.65	-223.74
451.861	-412.15
452.072	-231.93
452.283	-35.33
452.494	-64
452.705	-274.94
452.915	456.19
453.126	93.69
453.337	-178.69
453.548	-293.37
453.759	247.29
453.97	474.62
454.181	40.45
454.391	-227.84
454.602	60.93
454.813	69.12
455.024	-88.57
455.235	-229.88
455.445	44.54
455.656	163.33
455.867	-78.33
456.078	-295.42
456.288	-23.04
456.499	77.31
456.71	-320
456.921	28.16
457.131	75.26
457.342	138.75
457.553	-188.93
457.763	-199.16
457.974	159.23
458.184	226.81
458.395	-258.56
458.606	-297.47
458.816	269.82
459.027	433.66
459.237	-16.9
459.448	-332.28
459.659	327.16
459.869	587.26
460.08	-492.02
460.29	-119.29
460.501	382.46
460.711	-131.58
460.922	-344.57
461.132	-332.28
461.343	646.65
461.553	-287.23
461.764	-229.88
461.974	-246.27
462.184	261.63
462.395	114.17
462.605	-152.06
462.816	-258.56
463.026	101.89
463.236	310.78
463.447	-246.27
463.657	-215.55
463.867	247.29
464.078	-145.92
464.288	-154.11
464.498	-330.23
464.709	-0.51
464.919	-84.48
465.129	-168.45
465.339	-287.23
465.55	79.36
465.76	218.62
465.97	-233.98
466.18	-238.08
466.391	212.48
466.601	138.75
466.811	-150.01
467.021	-451.07
467.231	52.74
467.441	318.97
467.651	-186.88
467.862	-500.22
468.072	-25.09
468.282	380.41
468.492	-350.71
468.702	-260.6
468.912	-20.99
469.122	626.17
469.332	24.06
469.542	-332.28
469.752	261.63
469.962	62.98
470.172	-322.04
470.382	-315.9
470.592	220.67
470.802	378.36
471.012	-184.83
471.222	-340.47
471.432	235
471.642	165.37
471.852	-137.73
472.062	-330.23
472.272	-188.93
472.482	-221.69
472.691	-322.04
472.901	-449.02
473.111	122.37
473.321	548.34
473.531	-313.85
473.741	-152.06
473.95	19.97
474.16	198.14
474.37	-70.14
474.58	-379.39
474.79	396.79
474.999	187.9
475.209	-287.23
475.419	-250.36
475.628	-84.48
475.838	310.78
476.048	-221.69
476.258	-426.49
476.467	302.59
476.677	-74.24
476.886	-100.86
477.096	-223.74
477.306	-180.73
477.515	228.86
477.725	-131.58
477.935	-98.81
478.144	382.46
478.354	-131.58
478.563	-225.79
478.773	-385.53
478.982	146.94
479.192	230.91
479.401	-123.39
479.611	-270.84
479.82	-205.31
480.03	36.35
480.239	-285.18
480.449	-379.39
480.658	478.71
480.868	-80.38
481.077	-111.1
481.287	-184.83
481.496	67.07
481.705	423.42
481.915	-43.52
482.124	52.74
482.333	118.27
482.543	411.13
482.752	-178.69
482.961	-369.15
483.171	222.72
483.38	-8.7
483.589	-127.49
483.799	-373.24
484.008	-6.66
484.217	183.81
484.426	-262.65
484.636	-399.87
484.845	101.89
485.054	-344.57
485.263	95.74
485.472	-266.75
485.682	429.56
485.891	54.78
486.1	-401.91
486.309	-201.21
486.518	85.5
486.727	353.79
486.936	-272.89
487.146	-92.67
487.355	335.35
487.564	-172.54
487.773	-182.78
487.982	-205.31
488.191	-129.53
488.4	-4.61
488.609	-190.97
488.818	-197.12
489.027	622.07
489.236	327.16
489.445	-227.84
489.654	-238.08
489.863	304.64
490.072	28.16
490.281	124.41
490.49	-201.21
490.698	402.94
490.907	351.74
491.116	-238.08
491.325	-395.77
491.534	361.98
491.743	71.17
491.952	-131.58
492.16	-137.73
492.369	179.71
492.578	157.18
492.787	-143.87
492.996	-434.68
493.204	-125.44
493.413	480.76
493.622	-496.12
493.831	-381.43
494.039	357.88
494.248	-250.36
494.457	-248.32
494.665	-500.22
494.874	105.98
495.083	589.3
495.291	-246.27
495.5	-332.28
495.709	232.96
495.917	22.02
496.126	-55.81
496.335	-356.86
496.543	-121.34
496.752	58.88
496.96	-45.57
497.169	-369.15
497.377	60.93
497.586	265.72
497.794	-104.96
498.003	-408.06
498.211	19.97
498.42	384.51
498.628	-152.06
498.837	-338.43
499.045	204.28
499.254	81.41
499.462	-270.84
499.671	-233.98
499.879	437.75
500.087	226.81
500.296	-289.28
500.504	-172.54
500.713	89.6
500.921	523.77
501.129	-182.78
501.338	-217.6
501.546	44.54
501.754	128.51
501.962	-172.54
502.171	-352.76
502.379	118.27
502.587	423.42
502.795	-184.83
503.004	-285.18
503.212	75.26
503.42	278.01
503.628	-252.41
503.837	-92.67
504.045	214.52
504.253	517.62
504.461	-305.66
504.669	-410.11
504.877	239.1
505.085	400.89
505.294	-426.49
505.502	-117.25
505.71	142.85
505.918	189.95
506.126	-285.18
506.334	-270.84
506.542	-47.62
506.75	99.84
506.958	-49.66
507.166	-233.98
507.374	-137.73
507.582	531.96
507.79	-143.87
507.998	-289.28
508.206	200.19
508.414	157.18
508.622	-172.54
508.83	-205.31
509.037	441.85
509.245	81.41
509.453	-322.04
509.661	-291.32
509.869	196.09
510.077	-33.28
510.285	-131.58
510.492	-512.5
510.7	642.55
510.908	-107.01
511.116	-274.94
511.324	-289.28
511.531	-39.42
511.739	124.41
511.947	-90.62
512.155	151.04
512.362	146.94
512.57	-131.58
512.778	-266.75
512.985	-367.1
513.193	245.24
513.401	400.89
513.608	-188.93
513.816	-274.94
514.024	189.95
514.231	361.98
514.439	-299.52
514.646	-225.79
514.854	282.11
515.061	310.78
515.269	-238.08
515.477	-184.83
515.684	-145.92
515.892	294.4
516.099	-358.91
516.307	-422.39
516.514	280.06
516.722	417.27
516.929	-260.6
517.136	-260.6
517.344	409.08
517.551	202.24
517.759	-289.28
517.966	-233.98
518.173	-78.33
518.381	46.59
518.588	-172.54
518.796	-240.12
519.003	314.88
519.21	28.16
519.418	-256.51
519.625	-20.99
519.832	-8.7
520.039	97.79
520.247	-369.15
520.454	-246.27
520.661	339.45
520.868	245.24
521.076	-236.03
521.283	-150.01
521.49	724.47
521.697	196.09
521.904	-168.45
522.112	-123.39
522.319	355.83
522.526	210.43
522.733	-328.19
522.94	-283.13
523.147	103.93
523.354	298.49
523.561	-342.52
523.768	-178.69
523.975	294.4
524.183	81.41
524.39	-180.73
524.597	-403.96
524.804	87.55
525.011	-143.87
525.218	-262.65
525.425	-197.12
525.632	331.26
525.838	-119.29
526.045	-217.6
526.252	-330.23
526.459	1244.65
526.666	859.63
526.873	-221.69
527.08	-223.74
527.287	415.23
527.494	327.16
527.701	-313.85
527.907	-279.04
528.114	198.14
528.321	56.83
528.528	-150.01
528.735	-250.36
528.941	-104.96
529.148	56.83
529.355	-125.44
529.562	-178.69
529.768	577.02
529.975	-16.9
530.182	-266.75
530.388	-285.18
530.595	331.26
530.802	-201.21
531.008	-82.43
531.215	-162.3
531.422	484.86
531.628	777.72
531.835	-57.86
532.042	-70.14
532.248	-115.2
532.455	69.12
532.661	-74.24
532.868	-283.13
533.074	122.37
533.281	409.08
533.487	-57.86
533.694	-190.97
533.9	-29.18
534.107	216.57
534.313	-291.32
534.52	-295.42
534.726	343.55
534.933	564.73
535.139	-317.95
535.345	-360.95
535.552	192
535.758	140.8
535.965	-164.35
536.171	-186.88
536.377	310.78
536.584	445.95
536.79	-178.69
536.996	-115.2
537.203	161.28
537.409	241.15
537.615	-225.79
537.821	-49.66
538.028	355.83
538.234	316.92
538.44	-164.35
538.646	-119.29
538.853	255.48
539.059	65.02
539.265	286.2
539.471	-401.91
539.677	302.59
539.883	-29.18
540.09	-135.68
540.296	286.2
540.502	46.59
540.708	-135.68
540.914	-16.9
541.12	-70.14
541.326	337.4
541.532	24.06
541.738	-115.2
541.944	-127.49
542.15	284.16
542.356	56.83
542.562	-203.26
542.768	-94.72
542.974	712.18
543.18	613.88
543.386	-166.4
543.592	-336.38
543.798	392.7
544.004	394.75
544.21	-150.01
544.415	-90.62
544.621	163.33
544.827	318.97
545.033	-252.41
545.239	116.22
545.445	-88.57
545.651	204.28
545.856	-178.69
546.062	-168.45
546.268	-23.04
546.474	140.8
546.679	-107.01
546.885	-84.48
547.091	112.13
547.297	632.31
547.502	-104.96
547.708	-242.17
547.914	-115.2
548.119	267.77
548.325	-250.36
548.531	-164.35
548.736	507.38
548.942	-45.57
549.147	-231.93
549.353	118.27
549.559	335.35
549.764	228.86
549.97	-109.05
550.175	-111.1
550.381	323.07
550.586	48.64
550.792	-82.43
550.997	-139.77
551.203	271.87
551.408	413.18
551.614	-287.23
551.819	-107.01
552.025	562.68
552.23	671.22
552.435	-236.03
552.641	19.97
552.846	11.78
553.052	454.14
553.257	48.64
553.462	-131.58
553.668	-41.47
553.873	353.79
554.078	-182.78
554.283	-195.07
554.489	239.1
554.694	161.28
554.899	-203.26
555.105	60.93
555.31	321.02
555.515	351.74
555.72	-31.23
555.925	-215.55
556.131	388.6
556.336	26.11
556.541	-162.3
556.746	-203.26
556.951	501.24
557.156	544.25
557.361	32.26
557.567	71.17
557.772	638.45
557.977	318.97
558.182	-43.52
558.387	-143.87
558.592	38.4
558.797	486.9
559.002	44.54
559.207	3.58
559.412	230.91
559.617	660.98
559.822	-57.86
560.027	-127.49
560.232	245.24
560.437	378.36
560.642	-225.79
560.847	-147.97
561.051	181.76
561.256	314.88
561.461	-10.75
561.666	-242.17
561.871	101.89
562.076	290.3
562.281	5.63
562.485	-168.45
562.69	386.55
562.895	382.46
563.1	-39.42
563.305	-190.97
563.509	484.86
563.714	759.28
563.919	-107.01
564.123	-115.2
564.328	183.81
564.533	593.4
564.737	13.82
564.942	-23.04
565.147	667.13
565.351	699.89
565.556	50.69
565.761	7.68
565.965	286.2
566.17	89.6
566.374	-49.66
566.579	-195.07
566.784	316.92
566.988	93.69
567.193	-225.79
567.397	-47.62
567.602	-66.05
567.806	155.13
568.011	-72.19
568.215	-14.85
568.42	198.14
568.624	187.9
568.828	-31.23
569.033	116.22
569.237	484.86
569.442	388.6
569.646	-188.93
569.85	3.58
570.055	220.67
570.259	310.78
570.463	171.52
570.668	-16.9
570.872	308.73
571.076	288.25
571.281	93.69
571.485	-16.9
571.689	280.06
571.893	470.52
572.098	50.69
572.302	-57.86
572.506	359.93
572.71	327.16
572.914	-55.81
573.119	9.73
573.323	615.93
573.527	585.21
573.731	15.87
573.935	-109.05
574.139	415.23
574.343	79.36
574.547	60.93
574.751	11.78
574.955	626.17
575.159	601.59
575.364	-2.56
575.568	-57.86
575.772	216.57
575.976	556.54
576.18	-104.96
576.383	-123.39
576.587	419.32
576.791	421.37
576.995	-217.6
577.199	-184.83
577.403	484.86
577.607	650.74
577.811	-154.11
578.015	91.65
578.219	392.7
578.422	435.71
578.626	105.98
578.83	144.89
579.034	570.87
579.238	282.11
579.442	-14.85
579.645	427.51
579.849	337.4
580.053	245.24
580.257	81.41
580.46	79.36
580.664	566.78
580.868	429.56
581.071	212.48
581.275	151.04
581.479	-6.66
581.682	540.15
581.886	15.87
582.09	253.44
582.293	531.96
582.497	513.53
582.7	151.04
582.904	-6.66
583.107	316.92
583.311	255.48
583.515	116.22
583.718	114.17
583.922	562.68
584.125	751.09
584.329	42.5
584.532	296.44
584.735	634.36
584.939	366.07
585.142	-80.38
585.346	-10.75
585.549	429.56
585.753	214.52
585.956	151.04
586.159	349.69
586.363	718.33
586.566	460.28
586.769	11.78
586.973	79.36
587.176	450.04
587.379	622.07
587.582	368.12
587.786	302.59
587.989	450.04
588.192	984.56
588.395	163.33
588.599	415.23
588.802	472.57
589.005	552.44
589.208	142.85
589.411	62.98
589.615	599.54
589.818	790
590.021	417.27
590.224	253.44
590.427	609.78
590.63	468.47
590.833	11.78
591.036	157.18
591.239	318.97
591.442	253.44
591.645	427.51
591.848	140.8
592.051	491
592.254	687.61
592.457	189.95
592.66	142.85
592.863	286.2
593.066	458.23
593.269	208.38
593.472	335.35
593.675	255.48
593.878	632.31
594.081	265.72
594.284	-8.7
594.486	663.03
594.689	511.48
594.892	218.62
595.095	226.81
595.298	632.31
595.5	343.55
595.703	290.3
595.906	339.45
596.109	749.04
596.311	632.31
596.514	-27.14
596.717	146.94
596.92	675.32
597.122	671.22
597.325	-16.9
597.528	134.65
597.73	736.76
597.933	601.59
598.136	179.71
598.338	-66.05
598.541	509.43
598.743	796.15
598.946	196.09
599.148	278.01
599.351	763.38
599.554	706.04
599.756	261.63
599.959	171.52
600.161	824.82
600.363	1074.67
600.566	417.27
600.768	224.76
600.971	851.44
601.173	650.74
601.376	189.95
601.578	212.48
601.78	611.83
601.983	1117.68
602.185	230.91
602.388	331.26
602.59	607.73
602.792	470.52
602.995	458.23
603.197	237.05
603.399	740.85
603.601	638.45
603.804	382.46
604.006	267.77
604.208	536.06
604.41	212.48
604.613	452.09
604.815	271.87
605.017	1056.24
605.219	335.35
605.421	597.49
605.623	267.77
605.826	927.22
606.028	933.36
606.23	245.24
606.432	261.63
606.634	888.31
606.836	882.16
607.038	245.24
607.24	491
607.442	556.54
607.644	611.83
607.846	491
608.048	247.29
608.25	902.64
608.452	409.08
608.654	554.49
608.856	60.93
609.058	593.4
609.26	652.79
609.462	402.94
609.664	380.41
609.866	1064.43
610.067	871.92
610.269	482.81
610.471	421.37
610.673	507.38
610.875	787.96
611.077	140.8
611.278	421.37
611.48	613.88
611.682	1037.81
611.884	497.14
612.085	386.55
612.287	310.78
612.489	736.76
612.69	187.9
612.892	495.1
613.094	859.63
613.295	736.76
613.497	224.76
613.699	482.81
613.9	937.46
614.102	857.59
614.304	392.7
614.505	146.94
614.707	624.12
614.908	724.47
615.11	212.48
615.311	443.9
615.513	878.07
615.714	898.55
615.916	255.48
616.117	396.79
616.319	663.03
616.52	902.64
616.722	411.13
616.923	404.99
617.124	873.97
617.326	839.16
617.527	523.77
617.729	615.93
617.93	853.49
618.131	941.55
618.333	419.32
618.534	435.71
618.735	511.48
618.937	1031.66
619.138	298.49
619.339	355.83
619.54	896.5
619.742	630.26
619.943	613.88
620.144	517.62
620.345	900.59
620.546	894.45
620.748	343.55
620.949	431.61
621.15	736.76
621.351	798.2
621.552	376.31
621.753	318.97
621.954	325.12
622.155	1213.93
622.356	386.55
622.558	658.93
622.759	738.8
622.96	1150.45
623.161	572.92
623.362	456.19
623.563	761.33
623.764	800.24
623.965	413.18
624.166	656.89
624.366	771.57
624.567	806.39
624.768	253.44
624.969	425.47
625.17	679.41
625.371	886.26
625.572	611.83
625.773	392.7
625.973	1011.18
626.174	955.89
626.375	540.15
626.576	617.97
626.777	888.31
626.977	1236.46
627.178	443.9
627.379	597.49
627.58	794.1
627.78	845.3
627.981	556.54
628.182	622.07
628.382	1134.06
628.583	423.42
628.784	423.42
628.984	732.66
629.185	970.23
629.386	1017.33
629.586	591.35
629.787	474.62
629.987	996.85
630.188	804.34
630.388	482.81
630.589	644.6
630.79	1478.12
630.99	785.91
631.191	663.03
631.391	609.78
631.591	951.79
631.792	1250.8
631.992	753.14
632.193	699.89
632.393	1277.42
632.594	978.42
632.794	501.24
632.994	792.05
633.195	818.68
633.395	890.35
633.595	579.06
633.796	796.15
633.996	818.68
634.196	1127.92
634.397	501.24
634.597	703.99
634.797	779.76
634.997	1224.17
635.198	876.02
635.398	511.48
635.598	1002.99
635.798	1263.08
635.998	1078.77
636.199	669.17
636.399	761.33
636.599	712.18
636.799	667.13
636.999	982.51
637.199	1035.76
637.399	1152.49
637.599	560.63
637.799	753.14
637.999	714.23
638.199	1197.55
638.399	609.78
638.599	638.45
638.799	1154.54
638.999	1367.53
639.199	855.54
639.399	800.24
639.599	1349.1
639.799	794.1
639.999	654.84
640.199	607.73
640.399	1078.77
640.599	1027.57
640.799	822.77
640.998	931.31
641.198	1246.7
641.398	1121.77
641.598	835.06
641.798	744.95
641.997	1932.77
642.197	871.92
642.397	882.16
642.597	716.28
642.796	1121.77
642.996	1375.72
643.196	943.6
643.395	646.65
643.595	1129.97
643.795	613.88
643.994	857.59
644.194	837.11
644.394	1193.45
644.593	1097.2
644.793	615.93
644.992	818.68
645.192	1138.16
645.392	695.8
645.591	884.21
645.791	892.4
645.99	1097.2
646.19	1048.05
646.389	835.06
646.589	957.94
646.788	1175.02
646.987	1236.46
647.187	1025.52
647.386	1052.14
647.586	1048.05
647.785	1199.6
647.984	929.27
648.184	906.74
648.383	853.49
648.582	990.7
648.782	841.2
648.981	923.12
649.18	822.77
649.38	1168.88
649.579	812.53
649.778	869.87
649.977	1232.37
650.177	1172.97
650.376	902.64
650.575	812.53
650.774	1428.97
650.973	962.03
651.173	671.22
651.372	927.22
651.571	1168.88
651.77	1263.08
651.969	996.85
652.168	984.56
652.367	916.98
652.566	1287.66
652.765	888.31
652.964	1146.35
653.163	1635.82
653.362	1000.94
653.561	916.98
653.76	986.61
653.959	1138.16
654.158	1295.85
654.357	1164.78
654.556	976.37
654.755	1299.95
654.954	1342.96
655.153	968.18
655.352	1025.52
655.551	1404.39
655.749	968.18
655.948	929.27
656.147	972.27
656.346	1355.24
656.545	1144.3
656.743	1062.38
656.942	1000.94
657.141	1304.04
657.34	957.94
657.538	1046
657.737	1029.62
657.936	1097.2
658.135	1342.96
658.333	949.75
658.532	1154.54
658.731	1662.44
658.929	1400.3
659.128	1330.67
659.326	951.79
659.525	1480.17
659.724	1238.51
659.922	835.06
660.121	947.7
660.319	1246.7
660.518	1019.38
660.716	878.07
660.915	1041.9
661.113	1529.32
661.312	1048.05
661.51	1195.5
661.709	972.27
661.907	1445.35
662.105	1627.62
662.304	1080.82
662.502	1109.49
662.701	1566.18
662.899	1148.4
663.097	1363.44
663.296	855.54
663.494	1459.69
663.692	1666.53
663.891	1005.04
664.089	1005.04
664.287	1441.26
664.485	1678.82
664.684	1039.86
664.882	1193.45
665.08	1385.96
665.278	1342.96
665.476	1015.28
665.675	1449.45
665.873	1820.13
666.071	1623.53
666.269	1089.01
666.467	1412.59
666.665	1297.9
666.863	1252.84
667.061	1261.04
667.259	1076.72
667.457	1424.87
667.655	1517.03
667.853	1002.99
668.051	1385.96
668.249	1187.31
668.447	1379.82
668.645	1007.09
668.843	1338.86
669.041	1449.45
669.239	1355.24
669.437	1277.42
669.635	1304.04
669.833	1283.56
670.031	1590.76
670.229	1308.14
670.426	1293.8
670.624	1283.56
670.822	1254.89
671.02	1183.21
671.218	1361.39
671.415	1199.6
671.613	1388.01
671.811	1371.63
672.009	1250.8
672.206	1660.39
672.404	1553.9
672.602	1422.83
672.799	1302
672.997	1609.19
673.195	1730.02
673.392	1349.1
673.59	1101.3
673.788	1711.59
673.985	959.99
674.183	1273.32
674.38	1256.94
674.578	1781.22
674.775	1285.61
674.973	1166.83
675.17	1195.5
675.368	1781.22
675.565	1582.57
675.763	1222.13
675.96	1187.31
676.158	1799.65
676.355	1476.07
676.553	1183.21
676.75	1275.37
676.947	1644.01
677.145	1514.98
677.342	1441.26
677.539	1326.57
677.737	1506.79
677.934	2037.22
678.131	1443.31
678.329	1308.14
678.526	1883.62
678.723	1709.54
678.92	1525.22
679.118	1295.85
679.315	1291.76
679.512	1813.99
679.709	1361.39
679.906	1396.2
680.104	1926.63
680.301	1547.75
680.498	1293.8
680.695	1293.8
680.892	1377.77
681.089	1408.49
681.286	1455.59
681.483	1177.07
681.68	1641.96
681.877	1748.45
682.075	1363.44
682.272	1588.71
682.469	1689.06
682.665	1484.27
682.862	1295.85
683.059	1258.99
683.256	1744.36
683.453	1660.39
683.65	1584.62
683.847	1478.12
684.044	1635.82
684.241	1375.72
684.438	1555.94
684.635	1340.91
684.831	1965.54
685.028	2049.5
685.225	1375.72
685.422	1613.29
685.619	1564.14
685.815	1625.58
686.012	1549.8
686.209	1482.22
686.405	1433.07
686.602	1789.41
686.799	1285.61
686.996	1248.75
687.192	1422.83
687.389	2067.94
687.586	1322.48
687.782	1476.07
687.979	1926.63
688.175	1943.01
688.372	1555.94
688.568	1420.78
688.765	1402.35
688.962	1887.72
689.158	1605.1
689.355	1279.47
689.551	1777.12
689.748	1613.29
689.944	1582.57
690.14	1279.47
690.337	1846.76
690.533	1498.6
690.73	1660.39
690.926	1553.9
691.123	1826.28
691.319	1635.82
691.515	1304.04
691.712	1678.82
691.908	1906.15
692.104	1687.01
692.301	1633.77
692.497	1342.96
692.693	1953.25
692.889	1820.13
693.086	1510.89
693.282	1435.11
693.478	1654.25
693.674	1992.16
693.87	1527.27
694.067	1351.15
694.263	1852.9
694.459	1613.29
694.655	1631.72
694.851	1594.86
695.047	1885.67
695.243	1940.96
695.439	1727.97
695.635	1461.74
695.831	1981.92
696.027	1701.35
696.224	1580.52
696.42	2039.26
696.615	2137.57
696.811	1861.09
697.007	1498.6
697.203	1627.62
697.399	1854.95
697.595	2104.8
697.791	1547.75
697.987	1689.06
698.183	1605.1
698.379	1547.75
698.575	1631.72
698.77	1607.14
698.966	1986.02
699.162	2072.03
699.358	1691.11
699.554	1551.85
699.749	2086.37
699.945	2047.46
700.141	1633.77
700.337	1670.63
700.532	1834.47
700.728	1693.16
700.924	1533.42
701.119	1535.46
701.315	1975.78
701.511	1734.12
701.706	1674.73
701.902	1371.63
702.097	1852.9
702.293	2057.7
702.489	1525.22
702.684	1580.52
702.88	1805.8
703.075	1670.63
703.271	1629.67
703.466	1457.64
703.662	1861.09
703.857	2086.37
704.053	1560.04
704.248	1760.74
704.443	2020.83
704.639	2078.18
704.834	1734.12
705.03	1582.57
705.225	2002.4
705.42	2147.81
705.616	1801.7
705.811	1553.9
706.006	1744.36
706.202	1807.84
706.397	1740.26
706.592	1603.05
706.787	2008.55
706.983	1871.33
707.178	2006.5
707.373	1730.02
707.568	2088.42
707.763	2246.11
707.959	1545.7
708.154	1631.72
708.349	1908.19
708.544	2080.22
708.739	2016.74
708.934	1504.75
709.129	2246.11
709.324	2182.62
709.519	1596.9
709.714	1666.53
709.909	2280.93
710.104	2069.98
710.299	1625.58
710.494	1736.17
710.689	2115.04
710.884	1912.29
711.079	1879.52
711.274	2010.59
711.469	2184.67
711.664	2057.7
711.859	1760.74
712.054	1850.85
712.249	2086.37
712.443	2246.11
712.638	1664.49
712.833	1570.28
713.028	1879.52
713.223	2014.69
713.417	2086.37
713.612	1748.45
713.807	2254.3
714.002	2608.6
714.196	1986.02
714.391	1672.68
714.586	2227.68
714.78	1973.73
714.975	1762.79
715.17	1777.12
715.364	1965.54
715.559	2192.86
715.754	1582.57
715.948	1695.21
716.143	2481.63
716.337	2137.57
716.532	2115.04
716.726	1818.08
716.921	2174.43
717.115	2457.05
717.31	1717.73
717.504	2295.26
717.699	1955.3
717.893	2192.86
718.088	1666.53
718.282	1617.38
718.476	2149.86
718.671	2194.91
718.865	1781.22
719.059	1785.32
719.254	2149.86
719.448	2424.28
719.642	3229.13
719.837	1629.67
720.031	2315.74
720.225	2264.54
720.419	1922.53
720.614	1699.3
720.808	2192.86
721.002	1986.02
721.196	1775.08
721.39	1809.89
721.585	2364.89
721.779	2145.76
721.973	1768.93
722.167	1687.01
722.361	2088.42
722.555	2301.4
722.749	1781.22
722.943	1867.24
723.137	1891.81
723.331	2029.03
723.525	1854.95
723.719	1758.69
723.913	2223.58
724.107	2368.99
724.301	1848.8
724.495	1861.09
724.689	2510.3
724.883	2455
725.077	1900
725.271	1793.51
725.465	2235.87
725.659	2145.76
725.853	2057.7
726.046	1760.74
726.24	1912.29
726.434	2342.36
726.628	1779.17
726.822	1965.54
727.015	2371.04
727.209	2319.84
727.403	1887.72
727.596	1717.73
727.79	2344.41
727.984	2332.12
728.177	1986.02
728.371	1977.83
728.565	2459.1
728.758	1973.73
728.952	1699.3
729.146	1859.04
729.339	2438.62
729.533	2129.38
729.726	1936.87
729.92	1943.01
730.113	2498.01
730.307	2432.47
730.5	2047.46
730.694	1889.76
730.887	2215.39
731.081	2321.88
731.274	1891.81
731.468	2000.35
731.661	2260.45
731.854	2227.68
732.048	1951.2
732.241	1854.95
732.435	1979.87
732.628	2217.44
732.821	1914.34
733.014	2029.03
733.208	1940.96
733.401	2328.03
733.594	1859.04
733.788	1961.44
733.981	2612.7
734.174	2330.08
734.367	1897.96
734.56	2121.18
734.754	2399.71
734.947	2217.44
735.14	1934.82
735.333	2061.79
735.526	2541.02
735.719	2080.22
735.912	1936.87
736.105	1934.82
736.298	2397.66
736.491	2145.76
736.684	1990.11
736.877	2035.17
737.07	2389.47
737.263	2581.98
737.456	1983.97
737.649	1889.76
737.842	2211.29
738.035	2231.77
738.228	2131.42
738.421	2235.87
738.614	2579.93
738.807	2508.25
739	1900
739.192	2043.36
739.385	2418.14
739.578	2424.28
739.771	2321.88
739.964	2000.35
740.156	2389.47
740.349	2452.95
740.542	2235.87
740.735	2012.64
740.927	2115.04
741.12	2164.19
741.313	1932.77
741.505	2112.99
741.698	2332.12
741.891	2432.47
742.083	2219.49
742.276	1988.07
742.468	2334.17
742.661	2313.69
742.854	2164.19
743.046	2123.23
743.239	2651.61
743.431	2319.84
743.624	2174.43
743.816	1867.24
744.009	2256.35
744.201	2407.9
744.393	2282.97
744.586	1928.67
744.778	2678.23
744.971	2377.18
745.163	2192.86
745.355	2164.19
745.548	2393.56
745.74	2561.5
745.932	2045.41
746.125	2203.1
746.317	2950.61
746.509	2442.71
746.702	2131.42
746.894	2125.28
747.086	2518.49
747.278	2737.62
747.471	2377.18
747.663	2221.53
747.855	2479.58
748.047	2856.4
748.239	2194.91
748.431	2029.03
748.623	2817.49
748.815	2770.39
749.008	2090.46
749.2	2074.08
749.392	2618.84
749.584	2612.7
749.776	2272.73
749.968	2325.98
750.16	2844.12
750.352	2344.41
750.544	2244.06
750.736	2182.62
750.928	2477.53
751.12	2354.65
751.311	2121.18
751.503	2303.45
751.695	2491.87
751.887	2399.71
752.079	1959.39
752.271	2211.29
752.463	3288.53
752.654	2526.68
752.846	2231.77
753.038	2237.92
753.23	2291.17
753.421	2563.54
753.613	2121.18
753.805	2338.27
753.997	2584.02
754.188	2706.9
754.38	2186.72
754.572	2219.49
754.763	2362.84
754.955	2426.33
755.146	2307.55
755.338	2309.6
755.53	2506.2
755.721	2422.24
755.913	2121.18
756.104	2235.87
756.296	2297.31
756.487	2586.07
756.679	1986.02
756.87	2289.12
757.062	2373.08
757.253	2522.59
757.445	2217.44
757.636	2549.21
757.827	2555.35
758.019	3065.3
758.21	2067.94
758.401	2231.77
758.593	2938.32
758.784	2829.78
758.975	2119.14
759.167	2196.96
759.358	2500.06
759.549	2711
759.74	2270.69
759.932	2184.67
760.123	2756.05
760.314	2385.37
760.505	2334.17
760.696	2213.34
760.888	2964.95
761.079	2465.24
761.27	2194.91
761.461	2129.38
761.652	2899.41
761.843	2436.57
762.034	2330.08
762.225	2735.57
762.416	2452.95
762.607	2399.71
762.798	2176.48
762.989	2069.98
763.18	3388.88
763.371	2543.07
763.562	2317.79
763.753	2311.64
763.944	2766.29
764.135	2862.55
764.326	2375.13
764.517	2375.13
764.708	2631.13
764.899	2614.74
765.089	2203.1
765.28	2053.6
765.471	2569.69
765.662	2645.46
765.853	2321.88
766.043	2221.53
766.234	2850.26
766.425	2741.72
766.615	2305.5
766.806	2096.61
766.997	2768.34
767.187	2491.87
767.378	2149.86
767.569	2158.05
767.759	2594.26
767.95	2657.75
768.141	2504.15
768.331	2203.1
768.522	2631.13
768.712	2649.56
768.903	2229.73
769.093	1965.54
769.284	2891.22
769.474	2526.68
769.665	2100.7
769.855	2117.09
770.046	2624.98
770.236	2334.17
770.426	2448.86
770.617	2268.64
770.807	2563.54
770.998	2528.73
771.188	2375.13
771.378	2172.38
771.569	2717.14
771.759	2885.08
771.949	2098.66
772.139	2074.08
772.33	2614.74
772.52	2932.18
772.71	2223.58
772.9	2147.81
773.09	2983.38
773.281	2956.75
773.471	2262.49
773.661	2338.27
773.851	2749.91
774.041	2352.6
774.231	2072.03
774.421	2549.21
774.611	2878.93
774.802	2563.54
774.992	2422.24
775.182	2078.18
775.372	2637.27
775.562	2831.83
775.752	2307.55
775.942	2303.45
776.131	2815.45
776.321	2610.65
776.511	2196.96
776.701	2158.05
776.891	2686.42
777.081	2315.74
777.271	2428.38
777.461	2280.93
777.651	2645.46
777.84	2797.01
778.03	2455
778.22	2194.91
778.41	2856.4
778.599	2303.45
778.789	2432.47
778.979	2250.21
779.169	2596.31
779.358	2565.59
779.548	2436.57
779.738	2145.76
779.927	2504.15
780.117	2379.23
780.307	2276.83
780.496	1959.39
780.686	2620.89
780.875	3061.2
781.065	2325.98
781.254	2227.68
781.444	2528.73
781.633	2680.28
781.823	2260.45
782.012	2213.34
782.202	2409.95
782.391	2538.97
782.581	2166.24
782.77	2524.63
782.96	2743.77
783.149	2524.63
783.338	2309.6
783.528	2080.22
783.717	2794.97
783.906	2848.21
784.096	2446.81
784.285	2192.86
784.474	2553.31
784.663	2358.75
784.853	2293.21
785.042	2356.7
785.231	2371.04
785.42	2852.31
785.61	2407.9
785.799	2151.9
785.988	2422.24
786.177	2455
786.366	2371.04
786.555	2516.44
786.744	2731.48
786.933	2534.87
787.122	2209.25
787.312	2112.99
787.501	2424.28
787.69	2620.89
787.879	2141.66
788.068	2303.45
788.257	2328.03
788.445	2502.11
788.634	2338.27
788.823	2135.52
789.012	3227.09
789.201	2860.5
789.39	2299.36
789.579	2145.76
789.768	2590.17
789.957	2559.45
790.145	2412
790.334	1996.26
790.523	2395.61
790.712	2491.87
790.9	2301.4
791.089	2104.8
791.278	2811.35
791.467	2622.94
791.655	2659.8
791.844	2821.59
792.033	2401.76
792.221	2412
792.41	2336.22
792.599	2026.98
792.787	2797.01
792.976	2768.34
793.164	2213.34
793.353	2309.6
793.541	2764.25
793.73	2747.86
793.918	2489.82
794.107	2334.17
794.295	2645.46
794.484	2489.82
794.672	2270.69
794.861	2235.87
795.049	2743.77
795.238	3128.78
795.426	2221.53
795.614	2250.21
795.803	2616.79
795.991	2878.93
796.179	2205.15
796.368	2325.98
796.556	2801.11
796.744	2328.03
796.932	2252.25
797.121	2164.19
797.309	2538.97
797.497	2774.49
797.685	2381.28
797.874	2244.06
798.062	2440.67
798.25	2858.45
798.438	2162.14
798.626	2307.55
798.814	2678.23
799.002	3132.88
799.19	2491.87
799.378	2438.62
799.566	2891.22
799.755	2903.51
799.943	2448.86
800.131	2336.22
800.318	2708.95
800.506	2688.47
800.694	2328.03
800.882	2475.48
801.07	2899.41
801.258	2514.39
801.446	2387.42
801.634	2342.36
801.822	2684.38
802.01	2620.89
802.197	2448.86
802.385	2504.15
802.573	2577.88
802.761	2473.43
802.949	2346.46
803.136	2096.61
803.324	2989.52
803.512	2682.33
803.699	2467.29
803.887	2268.64
804.075	2858.45
804.262	2399.71
804.45	2264.54
804.638	2506.2
804.825	2547.16
805.013	2491.87
805.201	2538.97
805.388	2256.35
805.576	2624.98
805.763	3206.61
805.951	2426.33
806.138	2606.55
806.326	3106.26
806.513	2903.51
806.701	2563.54
806.888	2465.24
807.075	2891.22
807.263	3188.18
807.45	2348.51
807.638	2690.52
807.825	3220.94
808.012	2985.43
808.2	2526.68
808.387	2956.75
808.574	2856.4
808.761	3132.88
808.949	2487.77
809.136	2590.17
809.323	2762.2
809.51	2708.95
809.698	2876.88
809.885	2653.66
810.072	2919.89
810.259	2999.76
810.446	2700.76
810.633	2524.63
810.82	3067.35
811.008	3218.89
811.195	2751.96
811.382	2584.02
811.569	3007.95
811.756	2631.13
811.943	2581.98
812.13	2584.02
812.317	2772.44
812.504	2768.34
812.691	2600.41
812.878	2786.77
813.064	3202.51
813.251	2950.61
813.438	2604.5
813.625	2878.93
813.812	2813.4
813.999	2878.93
814.186	2686.42
814.372	2694.61
814.559	3075.54
814.746	3202.51
814.933	2727.38
815.12	2915.8
815.306	2657.75
815.493	2643.42
815.68	2629.08
815.866	2760.15
816.053	3216.85
816.24	3380.68
816.426	2809.3
816.613	2532.83
816.799	3040.72
816.986	3235.28
817.173	2686.42
817.359	2686.42
817.546	3010
817.732	2592.22
817.919	2299.36
818.105	2868.69
818.292	2885.08
818.478	2903.51
818.665	2674.14
818.851	2655.7
819.037	3435.98
819.224	2977.23
819.41	2651.61
819.597	2711
819.783	3374.54
819.969	3030.48
820.156	2737.62
820.342	2622.94
820.528	3702.22
820.714	2971.09
820.901	2895.32
821.087	2803.16
821.273	3306.96
821.459	2971.09
821.646	2655.7
821.832	2588.12
822.018	2948.56
822.204	2903.51
822.39	2643.42
822.576	2538.97
822.762	3229.13
822.948	3038.67
823.134	3014.1
823.32	2715.09
823.507	2911.7
823.693	3059.15
823.879	3190.22
824.065	2637.27
824.25	2991.57
824.436	2858.45
824.622	2756.05
824.808	2553.31
824.994	2790.87
825.18	2725.33
825.366	2565.59
825.552	2637.27
825.738	2954.71
825.923	3276.24
826.109	2921.94
826.295	2715.09
826.481	2938.32
826.667	3059.15
826.852	2907.6
827.038	2477.53
827.224	3212.75
827.409	3331.53
827.595	2594.26
827.781	2825.68
827.966	3100.11
828.152	3288.53
828.338	2846.16
828.523	2608.6
828.709	2788.82
828.894	3296.72
829.08	2686.42
829.266	2590.17
829.451	2741.72
829.637	3196.37
829.822	2858.45
830.008	2661.85
830.193	3091.92
830.378	3366.35
830.564	2766.29
830.749	2536.92
830.935	3145.17
831.12	3055.06
831.305	2581.98
831.491	2858.45
831.676	2790.87
831.861	3100.11
832.047	2809.3
832.232	2571.74
832.417	3124.69
832.602	3100.11
832.788	2741.72
832.973	2604.5
833.158	2876.88
833.343	3059.15
833.528	2915.8
833.714	2868.69
833.899	3089.87
834.084	3599.82
834.269	2958.8
834.454	2721.24
834.639	3182.03
834.824	2856.4
835.009	2964.95
835.194	2876.88
835.379	3210.7
835.564	3368.4
835.749	2835.92
835.934	2541.02
836.119	2981.33
836.304	3136.98
836.489	2661.85
836.674	2842.07
836.859	2782.68
837.044	3337.68
837.228	2842.07
837.413	2604.5
837.598	3055.06
837.783	3280.33
837.968	2676.18
838.152	2489.82
838.337	2493.91
838.522	3227.09
838.707	3100.11
838.891	2962.9
839.076	2940.37
839.261	3190.22
839.445	2860.5
839.63	2754.01
839.815	3417.55
839.999	2909.65
840.184	2708.95
840.368	2848.21
840.553	3179.98
840.737	3202.51
840.922	2749.91
841.106	2604.5
841.291	2766.29
841.475	3153.36
841.66	2624.98
841.844	2721.24
842.029	3620.3
842.213	2758.1
842.397	2618.84
842.582	2610.65
842.766	3276.24
842.951	3245.52
843.135	2534.87
843.319	2715.09
843.504	3071.44
843.688	3208.66
843.872	2446.81
844.056	2594.26
844.241	3087.82
844.425	2938.32
844.609	2866.64
844.793	2405.85
844.977	3188.18
845.161	3042.77
845.346	2563.54
845.53	2727.38
845.714	3024.34
845.898	3132.88
846.082	2547.16
846.266	2833.88
846.45	2928.08
846.634	2969.04
846.818	2770.39
847.002	2751.96
847.186	3169.74
847.37	2592.22
847.554	2512.35
847.738	2604.5
847.922	3061.2
848.106	2956.75
848.29	2526.68
848.473	2766.29
848.657	3059.15
848.841	2786.77
849.025	2776.53
849.209	2436.57
849.392	3063.25
849.576	2932.18
849.76	2432.47
849.944	2860.5
850.127	3333.58
850.311	2649.56
850.495	2528.73
850.678	2581.98
850.862	3218.89
851.046	3227.09
851.229	2964.95
851.413	2680.28
851.596	2919.89
851.78	2932.18
851.964	2835.92
852.147	2692.57
852.331	3657.16
852.514	3235.28
852.698	2706.9
852.881	2508.25
853.065	3100.11
853.248	2942.42
853.431	2940.37
853.615	2733.53
853.798	3481.03
853.982	3040.72
854.165	2805.21
854.348	2612.7
854.532	2696.66
854.715	2721.24
854.898	2665.94
855.081	2766.29
855.265	3253.71
855.448	3309.01
855.631	2674.14
855.814	2659.8
855.997	3153.36
856.181	2815.45
856.364	2682.33
856.547	2395.61
856.73	2954.71
856.913	2903.51
857.096	2518.49
857.279	2532.83
857.462	2749.91
857.645	3106.26
857.828	2702.81
858.011	2784.73
858.194	2661.85
858.377	3108.3
858.56	2467.29
858.743	2604.5
858.926	2688.47
859.109	2962.9
859.292	2538.97
859.475	2463.19
859.658	3024.34
859.841	2942.42
860.023	2401.76
860.206	2491.87
860.389	2891.22
860.572	3370.44
860.755	2600.41
860.937	2391.52
861.12	2874.84
861.303	2887.12
861.486	2659.8
861.668	2463.19
861.851	3112.4
862.034	3069.39
862.216	2713.05
862.399	2358.75
862.581	2991.57
862.764	3233.23
862.947	2465.24
863.129	2522.59
863.312	2645.46
863.494	3194.32
863.677	2891.22
863.859	2391.52
864.042	2897.36
864.224	3186.13
864.406	2653.66
864.589	2352.6
864.771	2829.78
864.954	2747.86
865.136	2483.67
865.318	2309.6
865.501	3108.3
865.683	2295.26
865.865	2536.92
866.048	2420.19
866.23	2885.08
866.412	2835.92
866.594	2360.8
866.777	2563.54
866.959	3091.92
867.141	2682.33
867.323	2770.39
867.505	2612.7
867.687	2868.69
867.869	2831.83
868.052	2573.78
868.234	2428.38
868.416	2751.96
868.598	2887.12
868.78	2473.43
868.962	2428.38
869.144	2928.08
869.326	3022.29
869.508	2387.42
869.69	2330.08
869.872	2557.4
870.054	2934.23
870.236	2350.56
870.417	2309.6
870.599	2719.19
870.781	3114.45
870.963	2567.64
871.145	2346.46
871.327	2438.62
871.508	2948.56
871.69	2563.54
871.872	2444.76
872.054	2764.25
872.235	2966.99
872.417	2653.66
872.599	2272.73
872.78	3143.12
872.962	2876.88
873.144	2268.64
873.325	2416.09
873.507	3175.89
873.689	2932.18
873.87	2418.14
874.052	2706.9
874.233	2829.78
874.415	3030.48
874.596	2665.94
874.778	2469.34
874.959	2868.69
875.141	3022.29
875.322	2567.64
875.503	2450.91
875.685	2811.35
875.866	2438.62
876.048	2440.67
876.229	2549.21
876.41	2733.53
876.592	2856.4
876.773	2487.77
876.954	2409.95
877.136	3220.94
877.317	2739.67
877.498	2428.38
877.679	2706.9
877.86	3055.06
878.042	2713.05
878.223	2649.56
878.404	2883.03
878.585	3122.64
878.766	3298.77
878.947	3057.11
879.128	2887.12
879.309	3079.63
879.49	3122.64
879.672	2788.82
879.853	2715.09
880.034	2776.53
880.215	2840.02
880.396	2719.19
880.576	2690.52
880.757	2659.8
880.938	3349.96
881.119	2610.65
881.3	2553.31
881.481	2874.84
881.662	3845.57
881.843	2602.46
882.023	2670.04
882.204	3034.58
882.385	2979.28
882.566	2754.01
882.747	2749.91
882.927	2895.32
883.108	3130.83
883.289	2627.03
883.469	2940.37
883.65	2905.56
883.831	3057.11
884.011	2964.95
884.192	2856.4
884.373	3247.57
884.553	3179.98
884.734	2905.56
884.914	3063.25
885.095	3773.89
885.275	3499.47
885.456	3055.06
885.636	2737.62
885.817	3016.15
885.997	3126.74
886.178	2690.52
886.358	2776.53
886.538	3208.66
886.719	4103.62
886.899	2768.34
887.08	2926.04
887.26	3327.44
887.44	3016.15
887.621	2833.88
887.801	3042.77
887.981	3769.8
888.161	3370.44
888.342	3091.92
888.522	2901.46
888.702	3374.54
888.882	3382.73
889.062	2958.8
889.242	2729.43
889.423	3509.71
889.603	3098.06
889.783	3050.96
889.963	3067.35
890.143	3276.24
890.323	3526.09
890.503	2899.41
890.683	2923.99
890.863	3345.87
891.043	3145.17
891.223	2983.38
891.403	3104.21
891.583	3274.19
891.763	3372.49
891.943	3046.87
892.122	2891.22
892.302	3241.42
892.482	3225.04
892.662	3333.58
892.842	3112.4
893.022	3497.42
893.201	3157.46
893.381	3134.93
893.561	2930.13
893.741	3573.19
893.92	3474.89
894.1	3053.01
894.28	3089.87
894.459	3542.47
894.639	3517.9
894.819	3034.58
894.998	3042.77
895.178	3423.69
895.357	3286.48
895.537	2991.57
895.716	2837.97
895.896	3202.51
896.075	3515.85
896.255	3083.73
896.434	2893.27
896.614	3478.99
896.793	3685.83
896.973	3272.14
897.152	3284.43
897.331	3315.15
897.511	3612.1
897.69	2782.68
897.87	3079.63
898.049	3489.23
898.228	3431.88
898.407	3231.18
898.587	3286.48
898.766	3014.1
898.945	3413.45
899.124	3149.26
899.304	3130.83
899.483	3466.7
899.662	3620.3
899.841	3012.05
900.02	3218.89
900.199	3620.3
900.378	3411.4
900.557	3048.91
900.737	2809.3
900.916	3333.58
901.095	3571.15
901.274	3272.14
901.453	2993.62
901.632	3204.56
901.811	3116.5
901.989	3014.1
902.168	3055.06
902.347	3423.69
902.526	3218.89
902.705	3061.2
902.884	3050.96
903.063	3528.14
903.242	3694.02
903.42	2948.56
903.599	3136.98
903.778	3466.7
903.957	3548.62
904.135	3159.5
904.314	3014.1
904.493	3286.48
904.672	3364.3
904.85	3026.39
905.029	2977.23
905.207	3405.26
905.386	4003.27
905.565	2885.08
905.743	3034.58
905.922	3182.03
906.1	3503.56
906.279	2837.97
906.457	2883.03
906.636	3104.21
906.814	3073.49
906.993	3005.91
907.171	2833.88
907.35	3261.9
907.528	3372.49
907.707	3182.03
907.885	3001.81
908.063	3546.57
908.242	3010
908.42	2895.32
908.598	2823.64
908.777	3392.97
908.955	3112.4
909.133	3184.08
909.311	2850.26
909.49	3153.36
909.668	3159.5
909.846	2866.64
910.024	2661.85
910.202	3071.44
910.38	3378.64
910.559	2692.57
910.737	2776.53
910.915	3186.13
911.093	3136.98
911.271	2880.98
911.449	2923.99
911.627	3427.79
911.805	3687.88
911.983	2788.82
912.161	2653.66
912.339	3253.71
912.517	3227.09
912.695	2977.23
912.872	2903.51
913.05	2835.92
913.228	3106.26
913.406	2784.73
913.584	2717.14
913.762	3216.85
913.939	3024.34
914.117	2592.22
914.295	2708.95
914.473	3296.72
914.65	3102.16
914.828	2801.11
915.006	2590.17
915.184	2725.33
915.361	3089.87
915.539	2983.38
915.716	3065.3
915.894	3249.61
916.072	3165.65
916.249	3106.26
916.427	3046.87
916.604	2831.83
916.782	3096.02
916.959	2751.96
917.137	2860.5
917.314	2985.43
917.492	3106.26
917.669	2840.02
917.847	2747.86
918.024	3194.32
918.201	2815.45
918.379	2696.66
918.556	2797.01
918.733	3210.7
918.911	2958.8
919.088	2997.71
919.265	2631.13
919.442	3012.05
919.62	2942.42
919.797	2567.64
919.974	2524.63
920.151	2948.56
920.328	2856.4
920.506	2653.66
920.683	2895.32
920.86	2780.63
921.037	2676.18
921.214	2792.92
921.391	2483.67
921.568	3081.68
921.745	2749.91
921.922	2725.33
922.099	2516.44
922.276	3108.3
922.453	3032.53
922.63	2516.44
922.807	2885.08
922.984	2923.99
923.161	2739.67
923.338	2661.85
923.514	2459.1
923.691	2823.64
923.868	3014.1
924.045	2508.25
924.222	2358.75
924.399	2711
924.575	2938.32
924.752	2551.26
924.929	2653.66
925.105	2786.77
925.282	2502.11
925.459	2473.43
925.635	2491.87
925.812	2727.38
925.989	2467.29
926.165	2489.82
926.342	2350.56
926.518	2444.76
926.695	2665.94
926.871	2358.75
927.048	2239.97
927.224	2778.58
927.401	2596.31
927.577	2457.05
927.754	2340.32
927.93	2780.63
928.107	2690.52
928.283	2346.46
928.459	2473.43
928.636	2708.95
928.812	2524.63
928.988	2323.93
929.165	2211.29
929.341	2508.25
929.517	2532.83
929.693	2676.18
929.87	2035.17
930.046	2524.63
930.222	2233.82
930.398	2231.77
930.574	2381.28
930.751	2643.42
930.927	2315.74
931.103	2285.02
931.279	2221.53
931.455	2242.01
931.631	2485.72
931.807	1998.31
931.983	1932.77
932.159	2090.46
932.335	2412
932.511	2147.81
932.687	2139.62
932.863	2276.83
933.039	2401.76
933.215	2012.64
933.391	1818.08
933.566	2350.56
933.742	2342.36
933.918	2078.18
934.094	1891.81
934.27	2244.06
934.445	2295.26
934.621	2024.93
934.797	1910.24
934.973	2362.84
935.148	2244.06
935.324	1779.17
935.5	1637.86
935.675	2397.66
935.851	2123.23
936.027	1783.27
936.202	1893.86
936.378	2061.79
936.553	1861.09
936.729	2076.13
936.904	1809.89
937.08	1617.38
937.255	1785.32
937.431	1592.81
937.606	1543.66
937.782	1756.65
937.957	1852.9
938.133	1684.97
938.308	1410.54
938.483	1674.73
938.659	1521.13
938.834	1447.4
939.009	1431.02
939.185	1541.61
939.36	1451.5
939.535	990.7
939.71	1510.89
939.886	1730.02
940.061	1678.82
940.236	1504.75
940.411	1367.53
940.586	1621.48
940.761	1687.01
940.937	1306.09
941.112	1154.54
941.287	1517.03
941.462	1486.31
941.637	1095.15
941.812	1187.31
941.987	1471.98
942.162	1312.24
942.337	1189.36
942.512	1170.93
942.687	1529.32
942.862	1547.75
943.037	957.94
943.212	806.39
943.386	1299.95
943.561	1404.39
943.736	1201.65
943.911	1392.11
944.086	1447.4
944.26	1363.44
944.435	1058.29
944.61	1136.11
944.785	1519.08
944.959	1695.21
945.134	1084.91
945.309	970.23
945.483	1060.34
945.658	1668.58
945.833	785.91
946.007	916.98
946.182	1676.77
946.357	1011.18
946.531	976.37
946.706	1023.47
946.88	925.17
947.055	1252.84
947.229	982.51
947.404	1035.76
947.578	1537.51
947.752	1287.66
947.927	933.36
948.101	908.79
948.276	1222.13
948.45	1297.9
948.624	1213.93
948.799	1050.1
948.973	1342.96
949.147	970.23
949.321	1111.54
949.496	1011.18
949.67	1551.85
949.844	1261.04
950.018	1146.35
950.193	941.55
950.367	1848.8
950.541	1170.93
950.715	1103.34
950.889	1246.7
951.063	1234.41
951.237	1519.08
951.411	906.74
951.585	886.26
951.759	1469.93
951.933	1277.42
952.107	992.75
952.281	1138.16
952.455	1656.29
952.629	1416.68
952.803	1029.62
952.977	976.37
953.151	1433.07
953.325	1353.2
953.499	1211.89
953.672	855.54
953.846	1195.5
954.02	1097.2
954.194	925.17
954.368	906.74
954.541	1347.05
954.715	1211.89
954.889	1142.25
955.062	845.3
955.236	1183.21
955.41	1150.45
955.583	1097.2
955.757	781.81
955.93	1293.8
956.104	951.79
956.278	1027.57
956.451	925.17
956.625	1408.49
956.798	1627.62
956.972	1336.81
957.145	814.58
957.319	1293.8
957.492	1201.65
957.665	1142.25
957.839	900.59
958.012	1447.4
958.185	1138.16
958.359	951.79
958.532	1193.45
958.705	1330.67
958.879	1226.22
959.052	1170.93
959.225	796.15
959.398	1166.83
959.572	1279.47
959.745	943.6
959.918	994.8
960.091	1209.84
960.264	1441.26
960.438	880.11
960.611	826.87
960.784	1379.82
960.957	1107.44
961.13	1537.51
961.303	966.13
961.476	1283.56
961.649	1351.15
961.822	802.29
961.995	1072.62
962.168	1330.67
962.341	1334.76
962.514	1027.57
962.686	976.37
962.859	1164.78
963.032	1351.15
963.205	916.98
963.378	796.15
963.551	1310.19
963.723	1248.75
963.896	1025.52
964.069	1033.71
964.242	1218.03
964.414	1400.3
964.587	1064.43
964.76	1099.25
964.932	1195.5
965.105	1224.17
965.278	896.5
965.45	947.7
965.623	1103.34
965.795	1379.82
965.968	957.94
966.14	941.55
966.313	1070.58
966.485	1154.54
966.658	931.31
966.83	886.26
967.003	1469.93
967.175	1318.38
967.348	876.02
967.52	1064.43
967.692	1445.35
967.865	1361.39
968.037	982.51
968.209	1287.66
968.382	1209.84
968.554	1406.44
968.726	1029.62
968.898	845.3
969.071	1275.37
969.243	1281.52
969.415	1080.82
969.587	1025.52
969.759	1725.93
969.932	1334.76
970.104	996.85
970.276	691.7
970.448	1039.86
970.62	1048.05
970.792	1002.99
970.964	974.32
971.136	1646.05
971.308	1302
971.48	925.17
971.652	888.31
971.824	1492.46
971.996	1048.05
972.168	1031.66
972.339	1009.14
972.511	1504.75
972.683	1097.2
972.855	1084.91
973.027	1052.14
973.199	1140.21
973.37	1353.2
973.542	1025.52
973.714	1091.06
973.886	1154.54
974.057	1367.53
974.229	947.7
974.401	1025.52
974.572	925.17
974.744	730.61
974.915	921.07
975.087	796.15
975.259	1412.59
975.43	978.42
975.602	865.78
975.773	751.09
975.945	976.37
976.116	1533.42
976.288	867.83
976.459	1189.36
976.63	1091.06
976.802	1246.7
976.973	878.07
977.145	1031.66
977.316	1551.85
977.487	1433.07
977.659	1000.94
977.83	972.27
978.001	1588.71
978.172	1199.6
978.344	796.15
978.515	839.16
978.686	1066.48
978.857	1416.68
979.028	906.74
979.2	839.16
979.371	1304.04
979.542	1138.16
979.713	970.23
979.884	505.34
980.055	892.4
980.226	1060.34
980.397	900.59
980.568	749.04
980.739	1351.15
980.91	982.51
981.081	1060.34
981.252	884.21
981.423	1240.56
981.594	1308.14
981.765	714.23
981.936	892.4
982.106	939.51
982.277	1345
982.448	765.43
982.619	1060.34
982.79	927.22
982.96	1269.23
983.131	982.51
983.302	769.52
983.472	923.12
983.643	1195.5
983.814	947.7
983.984	654.84
984.155	1015.28
984.326	1299.95
984.496	966.13
984.667	796.15
984.837	851.44
985.008	1375.72
985.178	1066.48
985.349	939.51
985.519	1043.95
985.69	857.59
985.86	808.44
986.031	757.24
986.201	1113.58
986.371	1129.97
986.542	695.8
986.712	531.96
986.882	1187.31
987.053	1134.06
987.223	689.65
987.393	876.02
987.563	814.58
987.734	1215.98
987.904	1123.82
988.074	878.07
988.244	1015.28
988.414	863.73
988.585	628.21
988.755	919.03
988.925	966.13
989.095	1353.2
989.265	663.03
989.435	820.72
989.605	1138.16
989.775	1183.21
989.945	1043.95
990.115	632.31
990.285	1002.99
990.455	1107.44
990.625	835.06
990.795	658.93
990.965	1261.04
991.134	812.53
991.304	671.22
991.474	638.45
991.644	1072.62
991.814	1320.43
991.984	589.3
992.153	677.37
992.323	912.88
992.493	974.32
992.662	513.53
992.832	835.06
993.002	947.7
993.171	1017.33
993.341	589.3
993.511	826.87
993.68	861.68
993.85	1101.3
994.019	591.35
994.189	605.69
994.358	951.79
994.528	843.25
994.697	355.83
994.867	552.44
995.036	1107.44
995.206	820.72
995.375	515.58
995.544	882.16
995.714	1029.62
995.883	843.25
996.052	894.45
996.222	474.62
996.391	1353.2
996.56	972.27
996.73	572.92
996.899	460.28
997.068	1230.32
997.237	951.79
997.406	519.67
997.576	572.92
997.745	888.31
997.914	968.18
998.083	470.52
998.252	497.14
998.421	906.74
998.59	708.09
998.759	478.71
998.928	345.59
999.097	1154.54
999.266	1009.14
999.435	712.18
999.604	294.4
999.773	1336.81
999.942	818.68
1000.111	386.55
1000.28	347.64
1000.448	622.07
1000.617	663.03
1000.786	701.94
1000.955	413.18
1001.124	951.79
1001.292	1519.08
1001.461	505.34
1001.63	554.49
1001.798	1177.07
1001.967	1054.19
1002.136	437.75
1002.304	409.08
1002.473	859.63
1002.642	843.25
1002.81	595.45
1002.979	400.89
1003.147	966.13
1003.316	1379.82
1003.484	595.45
1003.653	429.56
1003.821	1113.58
1003.99	765.43
1004.158	652.79
1004.327	536.06
1004.495	953.84
1004.663	587.26
1004.832	525.82
1005	486.9
1005.168	919.03
1005.337	800.24
1005.505	361.98
1005.673	642.55
1005.842	955.89
1006.01	888.31
1006.178	361.98
1006.346	540.15
1006.514	880.11
1006.683	1158.64
1006.851	433.66
1007.019	314.88
1007.187	474.62
1007.355	253.44
1007.523	183.81
1007.691	284.16
1007.859	411.13
1008.027	998.9
1008.195	382.46
1008.363	273.92
1008.531	921.07
1008.699	617.97
1008.867	263.68
1009.035	411.13
1009.203	1011.18
1009.37	691.7
1009.538	398.84
1009.706	925.17
1009.874	843.25
1010.042	658.93
1010.209	204.28
1010.377	232.96
1010.545	835.06
1010.713	699.89
1010.88	417.27
1011.048	491
1011.216	605.69
1011.383	1005.04
1011.551	349.69
1011.718	321.02
1011.886	964.08
1012.054	638.45
1012.221	327.16
1012.389	321.02
1012.556	718.33
1012.724	1187.31
1012.891	456.19
1013.058	171.52
1013.226	765.43
1013.393	900.59
1013.561	142.85
1013.728	247.29
1013.895	808.44
1014.063	749.04
1014.23	163.33
1014.397	273.92
1014.565	871.92
1014.732	550.39
1014.899	269.82
1015.066	132.61
1015.233	687.61
1015.401	847.35
1015.568	425.47
1015.735	507.38
1015.902	656.89
1016.069	730.61
1016.236	325.12
1016.403	239.1
1016.57	368.12
1016.737	900.59
1016.904	376.31
1017.071	181.76
1017.238	433.66
1017.405	792.05
1017.572	216.57
1017.739	531.96
1017.906	812.53
1018.073	785.91
1018.24	200.19
1018.407	298.49
1018.573	916.98
1018.74	540.15
1018.907	314.88
1019.074	97.79
1019.241	794.1
1019.407	632.31
1019.574	269.82
1019.741	146.94
1019.907	716.28
1020.074	747
1020.241	32.26
1020.407	204.28
1020.574	671.22
1020.74	689.65
1020.907	210.43
1021.073	169.47
1021.24	1070.58
1021.406	947.7
1021.573	81.41
1021.739	232.96
1021.906	876.02
1022.072	685.56
1022.239	230.91
1022.405	300.54
1022.571	599.54
1022.738	353.79
1022.904	235
1023.07	300.54
1023.237	646.65
1023.403	787.96
1023.569	171.52
1023.735	198.14
1023.902	648.69
1024.068	697.85
1024.234	126.46
1024.4	110.08
1024.566	634.36
1024.732	757.24
1024.898	214.52
1025.065	79.36
1025.231	740.85
1025.397	507.38
1025.563	196.09
1025.729	132.61
1025.895	151.04
1026.061	335.35
1026.227	3.58
1026.392	198.14
1026.558	818.68
1026.724	710.13
1026.89	157.18
1027.056	187.9
1027.222	663.03
1027.388	421.37
1027.553	118.27
1027.719	24.06
1027.885	959.99
1028.051	617.97
1028.216	-27.14
1028.382	204.28
1028.548	634.36
1028.713	421.37
1028.879	-53.76
1029.045	296.44
1029.21	886.26
1029.376	730.61
1029.541	169.47
1029.707	103.93
1029.873	701.94
1030.038	663.03
1030.204	97.79
1030.369	146.94
1030.534	785.91
1030.7	482.81
1030.865	130.56
1031.031	83.45
1031.196	497.14
1031.361	509.43
1031.527	91.65
1031.692	56.83
1031.857	208.38
1032.023	613.88
1032.188	28.16
1032.353	138.75
1032.518	904.69
1032.684	603.64
1032.849	-88.57
1033.014	142.85
1033.179	624.12
1033.344	703.99
1033.509	187.9
1033.674	108.03
1033.839	663.03
1034.004	630.26
1034.17	103.93
1034.335	83.45
1034.5	400.89
1034.664	323.07
1034.829	22.02
1034.994	77.31
1035.159	517.62
1035.324	648.69
1035.489	48.64
1035.654	58.88
1035.819	808.44
1035.984	581.11
1036.148	157.18
1036.313	73.21
1036.478	757.24
1036.643	476.66
1036.807	165.37
1036.972	-104.96
1037.137	736.76
1037.301	427.51
1037.466	-92.67
1037.631	167.42
1037.795	761.33
1037.96	525.82
1038.124	224.76
1038.289	-16.9
1038.454	710.13
1038.618	562.68
1038.783	122.37
1038.947	155.13
1039.111	431.61
1039.276	349.69
1039.44	36.35
1039.605	497.14
1039.769	355.83
1039.933	388.6
1040.098	153.09
1040.262	230.91
1040.426	691.7
1040.591	587.26
1040.755	30.21
1040.919	65.02
1041.083	570.87
1041.248	386.55
1041.412	-147.97
1041.576	24.06
1041.74	386.55
1041.904	615.93
1042.068	-6.66
1042.232	75.26
1042.397	644.6
1042.561	482.81
1042.725	-195.07
1042.889	206.33
1043.053	644.6
1043.217	515.58
1043.381	138.75
1043.544	-98.81
1043.708	646.65
1043.872	286.2
1044.036	-197.12
1044.2	-90.62
1044.364	714.23
1044.528	753.14
1044.691	3392.97
1044.855	-55.81
1045.019	566.78
1045.183	581.11
1045.346	60.93
1045.51	-102.91
1045.674	560.63
1045.837	460.28
1046.001	24.06
1046.165	11.78
1046.328	996.85
1046.492	474.62
1046.655	187.9
1046.819	169.47
1046.983	214.52
1047.146	536.06
1047.31	93.69
1047.473	-213.5
1047.636	413.18
1047.8	298.49
1047.963	52.74
1048.127	-86.53
1048.29	204.28
