Data from Ink_Intensity_USB4F045381__105__00105.txt Node

Date: Mon Jul 17 11:06:54 EDT 2023
User: mmckonesweet
Spectrometer: USB4F04538
Trigger mode: 4
Integration Time (sec): 9.000000E-1
Scans to average: 1
Electric dark correction enabled: true
Nonlinearity correction enabled: false
Boxcar width: 0
XAxis mode: Wavelengths
Number of Pixels in Spectrum: 3648
>>>>>Begin Spectral Data<<<<<
345.52	-1001.63
345.736	-1001.63
345.952	-1001.63
346.168	-1071.26
346.384	-936.09
346.6	-149.67
346.816	-231.59
347.032	-186.54
347.248	272.21
347.464	-116.9
347.68	-180.39
347.896	130.9
348.112	390.99
348.328	-125.1
348.544	-123.05
348.76	87.89
348.975	231.25
349.191	-227.5
349.407	-172.2
349.623	55.12
349.839	-12.46
350.055	-178.34
350.27	116.56
350.486	231.25
350.702	259.92
350.918	243.54
351.133	-112.81
351.349	151.38
351.565	483.15
351.781	-223.4
351.996	48.98
352.212	313.17
352.428	-145.58
352.644	-280.74
352.859	-186.54
353.075	323.41
353.291	71.51
353.506	-71.85
353.722	-319.65
353.938	-14.51
354.153	413.52
354.369	65.36
354.584	-121
354.8	124.76
355.016	-293.03
355.231	-200.87
355.447	-135.34
355.662	159.57
355.878	825.16
356.093	-266.41
356.309	-92.33
356.524	-215.21
356.74	259.92
356.955	-260.26
357.171	-65.71
357.386	126.8
357.602	-293.03
357.817	-59.56
358.033	-211.11
358.248	284.5
358.464	130.9
358.679	-166.06
358.895	-309.41
359.11	38.74
359.325	276.31
359.541	-24.75
359.756	-4.27
359.972	-254.12
360.187	141.14
360.402	-172.2
360.618	-182.44
360.833	945.99
361.048	100.18
361.264	-241.83
361.479	-67.75
361.694	1.88
361.909	180.05
362.125	-182.44
362.34	-98.47
362.555	257.87
362.77	-84.14
362.986	-317.61
363.201	-202.92
363.416	210.77
363.631	-37.03
363.847	-229.54
364.062	-219.3
364.277	141.14
364.492	143.19
364.707	-192.68
364.922	-352.42
365.138	237.39
365.353	288.59
365.568	-311.46
365.783	-137.38
365.998	114.52
366.213	579.4
366.428	-272.55
366.643	44.88
366.858	257.87
367.073	214.87
367.288	-204.97
367.503	-274.6
367.718	24.4
367.933	259.92
368.148	-301.22
368.363	-110.76
368.578	-14.51
368.793	409.42
369.008	-90.28
369.223	-270.5
369.438	259.92
369.653	442.19
369.868	-284.84
370.083	-247.97
370.298	8.02
370.513	456.53
370.728	30.55
370.943	-211.11
371.157	-202.92
371.372	563.02
371.587	-264.36
371.802	-329.89
372.017	65.36
372.232	458.57
372.446	-49.32
372.661	-264.36
372.876	204.63
373.091	178
373.306	-69.8
373.52	-221.35
373.735	-229.54
373.95	450.38
374.165	-131.24
374.379	-157.86
374.594	-77.99
374.809	153.43
375.023	36.69
375.238	-262.31
375.453	268.11
375.667	-217.26
375.882	-129.19
376.097	-223.4
376.311	24.4
376.526	-2.22
376.741	-276.65
376.955	96.08
377.17	567.12
377.384	528.21
377.599	-123.05
377.813	-305.32
378.028	599.88
378.242	139.09
378.457	-53.42
378.672	-383.14
378.886	83.8
379.101	-18.6
379.315	-354.47
379.53	-194.73
379.744	214.87
379.958	280.4
380.173	-82.09
380.387	-196.78
380.602	106.32
380.816	-153.77
381.031	-153.77
381.245	-186.54
381.459	243.54
381.674	1636.16
381.888	-215.21
382.103	46.93
382.317	-235.69
382.531	470.86
382.746	-168.1
382.96	-198.82
383.174	-98.47
383.388	380.75
383.603	81.75
383.817	-307.37
384.031	114.52
384.246	360.27
384.46	36.69
384.674	399.18
384.888	-98.47
385.103	132.95
385.317	-247.97
385.531	-41.13
385.745	345.94
385.959	272.21
386.174	-297.13
386.388	-260.26
386.602	38.74
386.816	-174.25
387.03	-121
387.244	-155.82
387.458	75.6
387.672	345.94
387.887	-280.74
388.101	-288.93
388.315	345.94
388.529	153.43
388.743	-176.3
388.957	-247.97
389.171	362.32
389.385	-196.78
389.599	-108.71
389.813	63.32
390.027	241.49
390.241	630.6
390.455	-139.43
390.669	-264.36
390.883	-39.08
391.097	454.48
391.311	79.7
391.525	-266.41
391.738	337.74
391.952	178
392.166	-98.47
392.38	-200.87
392.594	227.15
392.808	319.31
393.022	-133.29
393.236	-102.57
393.449	157.52
393.663	266.07
393.877	-317.61
394.091	-106.67
394.305	-41.13
394.518	-116.9
394.732	-319.65
394.946	-82.09
395.16	450.38
395.373	51.03
395.587	-243.88
395.801	-153.77
396.015	276.31
396.228	182.1
396.442	-239.78
396.656	-286.89
396.869	323.41
397.083	483.15
397.297	-151.72
397.51	-104.62
397.724	329.55
397.938	149.33
398.151	-313.51
398.365	-288.93
398.578	161.62
398.792	405.33
399.005	-67.75
399.219	-94.38
399.433	184.15
399.646	153.43
399.86	34.64
400.073	51.03
400.287	251.73
400.5	-57.51
400.714	-37.03
400.927	-41.13
401.141	210.77
401.354	1015.62
401.567	178
401.781	-286.89
401.994	270.16
402.208	612.17
402.421	-92.33
402.635	-86.19
402.848	-34.99
403.061	317.26
403.275	-92.33
403.488	-247.97
403.701	440.14
403.915	210.77
404.128	5.97
404.341	-145.58
404.555	145.24
404.768	96.08
404.981	-65.71
405.195	-190.63
405.408	487.25
405.621	266.07
405.834	-10.41
406.048	-204.97
406.261	399.18
406.474	487.25
406.687	-174.25
406.9	-71.85
407.114	67.41
407.327	137.04
407.54	-303.27
407.753	-299.17
407.966	-75.95
408.179	137.04
408.392	-207.02
408.605	-344.23
408.819	237.39
409.032	196.43
409.245	-200.87
409.458	94.04
409.671	163.67
409.884	245.59
410.097	-321.7
410.31	5.97
410.523	139.09
410.736	-2.22
410.949	-211.11
411.162	-174.25
411.375	386.9
411.588	358.22
411.801	-43.18
412.014	-245.93
412.227	28.5
412.44	18.26
412.653	-153.77
412.865	30.55
413.078	288.59
413.291	196.43
413.504	-112.81
413.717	-217.26
413.93	251.73
414.143	-231.59
414.356	-170.15
414.568	-358.57
414.781	300.88
414.994	196.43
415.207	-14.51
415.42	-125.1
415.632	278.35
415.845	481.1
416.058	-280.74
416.271	-272.55
416.483	18.26
416.696	536.4
416.909	-96.43
417.121	-280.74
417.334	167.76
417.547	509.77
417.759	-219.3
417.972	-215.21
418.185	-88.23
418.397	239.44
418.61	-149.67
418.823	-284.84
419.035	489.29
419.248	30.55
419.46	-98.47
419.673	-157.86
419.885	206.67
420.098	65.36
420.311	-75.95
420.523	-315.56
420.736	370.51
420.948	73.56
421.161	-135.34
421.373	-336.04
421.586	259.92
421.798	-84.14
422.01	-309.41
422.223	5.97
422.435	-37.03
422.648	208.72
422.86	-268.45
423.073	-215.21
423.285	323.41
423.497	-198.82
423.71	-213.16
423.922	-149.67
424.134	139.09
424.347	366.42
424.559	118.61
424.771	278.35
424.984	-22.7
425.196	147.28
425.408	-305.32
425.621	-272.55
425.833	268.11
426.045	378.7
426.257	-252.07
426.47	-237.74
426.682	128.85
426.894	149.33
427.106	-108.71
427.318	-67.75
427.531	-41.13
427.743	253.78
427.955	-188.58
428.167	251.73
428.379	214.87
428.591	-34.99
428.804	-18.6
429.016	-247.97
429.228	-49.32
429.44	200.53
429.652	5.97
429.864	-239.78
430.076	36.69
430.288	-96.43
430.5	-139.43
430.712	-24.75
430.924	304.98
431.136	143.19
431.348	-286.89
431.56	-139.43
431.772	36.69
431.984	83.8
432.196	-190.63
432.408	-192.68
432.62	-10.41
432.832	202.58
433.044	104.28
433.256	-92.33
433.468	231.25
433.679	-247.97
433.891	-229.54
434.103	55.12
434.315	364.37
434.527	231.25
434.739	-51.37
434.95	-170.15
435.162	294.74
435.374	-86.19
435.586	-80.04
435.798	-166.06
436.009	-174.25
436.221	53.08
436.433	-131.24
436.645	-133.29
436.856	91.99
437.068	261.97
437.28	-221.35
437.491	155.47
437.703	153.43
437.915	190.29
438.126	-90.28
438.338	178
438.55	73.56
438.761	212.82
438.973	-63.66
439.184	-55.47
439.396	91.99
439.608	231.25
439.819	-145.58
440.031	-67.75
440.242	266.07
440.454	343.89
440.665	-159.91
440.877	-77.99
441.088	257.87
441.3	-18.6
441.511	-321.7
441.723	-145.58
441.934	221.01
442.146	106.32
442.357	83.8
442.569	114.52
442.78	120.66
442.991	489.29
443.203	202.58
443.414	-264.36
443.626	431.95
443.837	-96.43
444.048	-227.5
444.26	-231.59
444.471	178
444.682	370.51
444.894	-305.32
445.105	-182.44
445.316	386.9
445.528	194.39
445.739	10.07
445.95	-22.7
446.161	145.24
446.373	333.65
446.584	-137.38
446.795	-57.51
447.006	323.41
447.217	477.01
447.429	-245.93
447.64	-245.93
447.851	462.67
448.062	124.76
448.273	-309.41
448.484	-188.58
448.695	298.83
448.907	71.51
449.118	-28.84
449.329	137.04
449.54	28.5
449.751	-92.33
449.962	-37.03
450.173	-110.76
450.384	319.31
450.595	460.62
450.806	-143.53
451.017	1.88
451.228	460.62
451.439	354.13
451.65	-137.38
451.861	-311.46
452.072	-157.86
452.283	96.08
452.494	71.51
452.705	-217.26
452.915	583.5
453.126	319.31
453.337	-92.33
453.548	-90.28
453.759	501.58
453.97	638.8
454.181	153.43
454.391	-53.42
454.602	284.5
454.813	282.45
455.024	-51.37
455.235	-71.85
455.445	214.87
455.656	243.54
455.867	79.7
456.078	-131.24
456.288	51.03
456.499	229.2
456.71	-41.13
456.921	124.76
457.131	288.59
457.342	180.05
457.553	-10.41
457.763	-92.33
457.974	358.22
458.184	210.77
458.395	-186.54
458.606	-145.58
458.816	423.76
459.027	511.82
459.237	116.56
459.448	-227.5
459.659	472.91
459.869	708.43
460.08	-219.3
460.29	61.27
460.501	669.52
460.711	1.88
460.922	-204.97
461.132	-59.56
461.343	876.36
461.553	-123.05
461.764	-145.58
461.974	-59.56
462.184	423.76
462.395	304.98
462.605	57.17
462.816	-166.06
463.026	368.46
463.236	524.11
463.447	-121
463.657	-47.27
463.867	378.7
464.078	221.01
464.288	59.22
464.498	-100.52
464.709	128.85
464.919	280.4
465.129	112.47
465.339	-149.67
465.55	313.17
465.76	423.76
465.97	30.55
466.18	-90.28
466.391	458.57
466.601	384.85
466.811	96.08
467.021	-127.14
467.231	343.89
467.441	546.64
467.651	61.27
467.862	-262.31
468.072	354.13
468.282	597.84
468.492	71.51
468.702	63.32
468.912	237.39
469.122	853.83
469.332	304.98
469.542	-34.99
469.752	462.67
469.962	436.05
470.172	14.17
470.382	-10.41
470.592	417.61
470.802	603.98
471.012	202.58
471.222	73.56
471.432	565.07
471.642	563.02
471.852	231.25
472.062	48.98
472.272	300.88
472.482	104.28
472.691	53.08
472.901	-67.75
473.111	409.42
473.321	851.78
473.531	26.45
473.741	190.29
473.95	614.22
474.16	526.16
474.37	302.93
474.58	26.45
474.79	868.17
474.999	569.16
475.209	122.71
475.419	73.56
475.628	364.37
475.838	677.71
476.048	259.92
476.258	100.18
476.467	685.9
476.677	239.44
476.886	436.05
477.096	329.55
477.306	284.5
477.515	763.72
477.725	298.83
477.935	151.38
478.144	851.78
478.354	280.4
478.563	323.41
478.773	210.77
478.982	812.87
479.192	786.25
479.401	358.22
479.611	169.81
479.82	382.8
480.03	548.68
480.239	294.74
480.449	167.76
480.658	882.5
480.868	464.72
481.077	393.04
481.287	257.87
481.496	708.43
481.705	982.85
481.915	579.4
482.124	624.46
482.333	714.57
482.543	964.42
482.752	474.96
482.961	304.98
483.171	798.54
483.38	489.29
483.589	382.8
483.799	415.57
484.008	653.13
484.217	831.3
484.426	538.45
484.636	347.98
484.845	706.38
485.054	474.96
485.263	884.55
485.472	460.62
485.682	1189.7
485.891	878.41
486.1	362.32
486.309	509.77
486.518	898.89
486.727	1042.25
486.936	417.61
487.146	563.02
487.355	1050.44
487.564	546.64
487.773	532.3
487.982	483.15
488.191	737.1
488.4	739.15
488.609	579.4
488.818	618.32
489.027	1341.25
489.236	1226.56
489.445	599.88
489.654	556.88
489.863	1025.86
490.072	943.94
490.281	1013.57
490.49	608.08
490.698	1238.85
490.907	1273.67
491.116	671.56
491.325	501.58
491.534	1210.18
491.743	950.09
491.952	730.95
492.16	685.9
492.369	1052.49
492.578	1201.99
492.787	780.11
492.996	685.9
493.204	837.45
493.413	1482.56
493.622	495.44
493.831	563.02
494.039	1363.78
494.248	814.92
494.457	677.71
494.665	636.75
494.874	1179.46
495.083	1613.63
495.291	810.82
495.5	794.44
495.709	1310.53
495.917	1046.34
496.126	1005.38
496.335	751.43
496.543	1005.38
496.752	1079.11
496.96	1134.4
497.169	739.15
497.377	1103.68
497.586	1308.48
497.794	900.94
498.003	577.36
498.211	1130.31
498.42	1494.85
498.628	950.09
498.837	737.1
499.045	1161.03
499.254	1253.19
499.462	939.85
499.671	933.7
499.879	1668.92
500.087	1361.73
500.296	964.42
500.504	921.42
500.713	1333.06
500.921	1795.9
501.129	933.7
501.338	1042.25
501.546	1345.34
501.754	1224.51
501.962	1056.58
502.171	989
502.379	1382.21
502.587	1824.57
502.795	1077.06
503.004	1144.64
503.212	1322.82
503.42	1664.83
503.628	1054.53
503.837	1132.36
504.045	1556.29
504.253	1812.28
504.461	997.19
504.669	935.75
504.877	1584.96
505.085	1767.23
505.294	980.81
505.502	1339.2
505.71	1423.17
505.918	1627.96
506.126	1013.57
506.334	1091.4
506.542	1292.1
506.75	1636.16
506.958	1300.29
507.166	1187.65
507.374	1361.73
507.582	1994.55
507.79	1300.29
507.998	1150.79
508.206	1660.73
508.414	1566.53
508.622	1193.8
508.83	1222.47
509.037	1865.53
509.245	1392.45
509.453	1275.71
509.661	1158.98
509.869	1734.46
510.077	1519.42
510.285	1433.41
510.492	849.74
510.7	2164.53
510.908	1462.08
511.116	1402.69
511.324	1271.62
511.531	1662.78
511.739	1656.64
511.947	1515.33
512.155	1703.74
512.362	1617.72
512.57	1279.81
512.778	1304.39
512.985	1095.49
513.193	1814.33
513.401	1939.26
513.608	1414.98
513.816	1406.78
514.024	1873.72
514.231	2012.98
514.439	1353.54
514.646	1441.6
514.854	1935.16
515.061	1980.22
515.269	1572.67
515.477	1460.03
515.684	1468.22
515.892	1982.26
516.099	1380.16
516.307	1371.97
516.514	1988.41
516.722	2244.4
516.929	1488.7
517.136	1435.46
517.344	2254.64
517.551	1918.78
517.759	1515.33
517.966	1646.4
518.173	1785.66
518.381	1834.81
518.588	1632.06
518.796	1472.32
519.003	2021.17
519.21	1982.26
519.418	1568.57
519.625	1883.96
519.832	1984.31
520.039	2029.37
520.247	1439.55
520.454	1650.49
520.661	2209.59
520.868	2092.85
521.076	1736.51
521.283	1728.31
521.49	2563.89
521.697	2111.29
521.904	1804.09
522.112	1808.19
522.319	2203.44
522.526	2103.09
522.733	1797.95
522.94	1668.92
523.147	2000.69
523.354	2172.72
523.561	1697.6
523.768	1869.62
523.975	2410.29
524.183	1992.5
524.39	2039.61
524.597	1640.25
524.804	2105.14
525.011	2094.9
525.218	1799.99
525.425	1922.87
525.632	2561.84
525.838	2055.99
526.045	1875.77
526.252	1830.71
526.459	3368.74
526.666	3184.42
526.873	1996.6
527.08	1920.82
527.287	2610.99
527.494	2572.08
527.701	1799.99
527.907	1978.17
528.114	2375.47
528.321	2166.58
528.528	2148.15
528.735	1988.41
528.941	2139.96
529.148	2137.91
529.355	2164.53
529.562	1974.07
529.768	2686.76
529.975	2326.32
530.182	2117.43
530.388	2055.99
530.595	2623.28
530.802	2076.47
531.008	2246.45
531.215	2099
531.422	2737.96
531.628	3241.76
531.835	2287.41
532.042	2178.87
532.248	2426.67
532.455	2469.68
532.661	2283.31
532.868	2234.16
533.074	2762.54
533.281	2740.01
533.487	2391.86
533.694	2217.78
533.9	2402.1
534.107	2701.1
534.313	2185.01
534.52	2246.45
534.726	2703.15
534.933	3086.12
535.139	2127.67
535.345	2037.56
535.552	2656.04
535.758	2656.04
535.965	2459.44
536.171	2393.9
536.377	2729.77
536.584	3188.52
536.79	2301.75
536.996	2555.69
537.203	2760.49
537.409	2928.42
537.615	2545.45
537.821	2635.57
538.028	2903.85
538.234	2864.94
538.44	2524.97
538.646	2643.76
538.853	2981.67
539.059	2922.28
539.265	2950.95
539.471	2377.52
539.677	3016.49
539.883	2932.52
540.09	2453.3
540.296	3157.8
540.502	2981.67
540.708	2701.1
540.914	2885.42
541.12	2662.19
541.326	3061.54
541.532	2971.43
541.738	2811.69
541.944	2836.27
542.15	3274.53
542.356	2924.33
542.562	2588.46
542.768	2875.18
542.974	3571.49
543.18	3643.17
543.386	2803.5
543.592	2637.61
543.798	3391.27
544.004	3477.28
544.21	2733.87
544.415	2963.24
544.621	3198.76
544.827	3333.92
545.033	2909.99
545.239	3135.27
545.445	3004.2
545.651	3254.05
545.856	2830.12
546.062	2877.23
546.268	3020.58
546.474	3161.89
546.679	3045.16
546.885	3055.4
547.091	3096.36
547.297	3708.7
547.502	3106.6
547.708	2883.37
547.914	3079.97
548.119	3462.94
548.325	2873.13
548.531	2914.09
548.736	3716.89
548.942	3098.41
549.147	3127.08
549.353	3241.76
549.559	3643.17
549.764	3559.2
549.97	3051.3
550.175	3032.87
550.381	3579.68
550.586	3192.61
550.792	3276.58
550.997	3249.96
551.203	3520.29
551.408	3577.63
551.614	3161.89
551.819	3202.85
552.025	4038.42
552.23	4065.05
552.435	3239.72
552.641	3387.17
552.846	3522.34
553.052	3944.22
553.257	3393.31
553.462	3317.54
553.668	3538.72
553.873	3915.55
554.078	3442.46
554.283	3499.81
554.489	3780.38
554.694	3802.91
554.899	3307.3
555.105	3561.25
555.31	3907.35
555.515	3950.36
555.72	3503.9
555.925	3413.79
556.131	4161.3
556.336	3657.5
556.541	3497.76
556.746	3450.66
556.951	4208.41
557.156	4146.97
557.361	3643.17
557.567	3725.08
557.772	4257.56
557.977	3966.74
558.182	3680.03
558.387	3618.59
558.592	3688.22
558.797	4204.31
559.002	3618.59
559.207	3804.96
559.412	3919.64
559.617	4253.46
559.822	3657.5
560.027	3581.73
560.232	4095.77
560.437	4290.32
560.642	3665.69
560.847	3538.72
561.051	4063
561.256	4089.62
561.461	3737.37
561.666	3680.03
561.871	4202.26
562.076	4224.79
562.281	3835.67
562.485	3751.71
562.69	4286.23
562.895	4306.71
563.1	3909.4
563.305	3696.41
563.509	4556.56
563.714	4828.94
563.919	3876.63
564.123	3874.59
564.328	4296.47
564.533	4681.49
564.737	3948.31
564.942	3954.46
565.147	4810.51
565.351	4800.27
565.556	3925.79
565.761	4175.64
565.965	4441.87
566.17	4011.8
566.374	4065.05
566.579	3833.63
566.784	4339.48
566.988	4222.74
567.193	3979.03
567.397	3972.89
567.602	4249.36
567.806	4445.97
568.011	4304.66
568.215	4310.8
568.42	4417.3
568.624	4429.59
568.828	4232.98
569.033	4388.63
569.237	4710.16
569.442	4775.69
569.646	3997.46
569.85	4372.24
570.055	4527.89
570.259	4679.44
570.463	4589.33
570.668	4431.63
570.872	4587.28
571.076	4683.53
571.281	4646.67
571.485	4579.09
571.689	4769.55
571.893	4994.83
572.098	4587.28
572.302	4503.31
572.506	4867.85
572.71	4683.53
572.914	4615.95
573.119	4427.54
573.323	5146.37
573.527	5293.83
573.731	4396.82
573.935	4511.5
574.139	4919.05
574.343	4671.25
574.547	4638.48
574.751	4579.09
574.955	5211.91
575.159	5185.29
575.364	4620.05
575.568	4556.56
575.772	4919.05
575.976	5279.49
576.18	4640.53
576.383	4536.08
576.587	5338.88
576.791	5197.57
576.995	4531.98
577.199	4521.74
577.403	5232.39
577.607	5279.49
577.811	4806.41
578.015	4708.11
578.219	5144.33
578.422	5324.55
578.626	5023.5
578.83	4943.63
579.034	5437.19
579.238	5275.4
579.442	4790.03
579.645	5267.2
579.849	5175.05
580.053	5117.7
580.257	5052.17
580.46	4990.73
580.664	5295.88
580.868	5506.82
581.071	5011.21
581.275	5070.6
581.479	5011.21
581.682	5482.24
581.886	4919.05
582.09	5099.27
582.293	5578.5
582.497	5553.92
582.7	5246.73
582.904	5039.88
583.107	5330.69
583.311	5306.12
583.515	5353.22
583.718	5068.55
583.922	5441.28
584.125	5891.84
584.329	5039.88
584.532	5158.66
584.735	5934.84
584.939	5748.48
585.142	5093.13
585.346	5097.22
585.549	5748.48
585.753	5541.63
585.956	5388.04
586.159	5650.18
586.363	6035.19
586.566	5873.4
586.769	5248.77
586.973	5322.5
587.176	5850.88
587.379	5953.27
587.582	5914.36
587.786	5617.41
587.989	5797.63
588.192	6428.4
588.395	5420.8
588.599	5897.98
588.802	6067.96
589.005	5828.35
589.208	5635.84
589.411	5566.21
589.615	6020.86
589.818	6311.67
590.021	5871.36
590.224	5750.53
590.427	6342.39
590.63	6256.37
590.833	5363.46
591.036	5627.65
591.239	5979.9
591.442	5998.33
591.645	5768.96
591.848	5775.1
592.051	6074.1
592.254	6405.88
592.457	5824.25
592.66	5799.68
592.863	6043.39
593.066	6192.89
593.269	5916.41
593.472	5977.85
593.675	6004.47
593.878	6323.96
594.081	5990.14
594.284	6006.52
594.486	6477.55
594.689	6465.27
594.892	6123.26
595.095	6211.32
595.298	6395.64
595.5	6485.75
595.703	6332.15
595.906	6268.66
596.109	6768.37
596.311	6842.09
596.514	5789.44
596.717	6455.03
596.92	6807.28
597.122	6649.58
597.325	6024.95
597.528	6192.89
597.73	6848.24
597.933	6524.66
598.136	6313.72
598.338	6158.07
598.541	6846.19
598.743	6917.87
598.946	6201.08
599.148	6338.29
599.351	6792.94
599.554	6944.49
599.756	6442.74
599.959	6412.02
600.161	7022.31
600.363	7352.04
600.566	6678.26
600.768	6522.61
600.971	7075.56
601.173	7018.22
601.376	6385.4
601.578	6526.71
601.78	6973.16
601.983	7429.86
602.185	6661.87
602.388	6784.75
602.59	6878.96
602.792	6678.26
602.995	6854.38
603.197	6455.03
603.399	7298.79
603.601	7057.13
603.804	6745.84
604.006	6575.86
604.208	6860.52
604.41	6649.58
604.613	6745.84
604.815	6762.22
605.017	7653.09
605.219	6676.21
605.421	7038.7
605.623	6661.87
605.826	7220.97
606.028	7358.18
606.23	6876.91
606.432	6774.51
606.634	7511.78
606.836	7476.96
607.038	6797.04
607.24	7059.18
607.442	7161.58
607.644	7319.27
607.846	7067.37
608.048	6827.76
608.25	7405.28
608.452	7177.96
608.654	7096.04
608.856	6784.75
609.058	7239.4
609.26	7608.03
609.462	7130.86
609.664	7081.71
609.866	7620.32
610.067	7726.82
610.269	7229.16
610.471	7206.63
610.673	7141.1
610.875	7587.55
611.077	7022.31
611.278	7249.64
611.48	7519.97
611.682	8011.48
611.884	7464.68
612.085	7196.39
612.287	7259.88
612.489	7605.99
612.69	7059.18
612.892	7333.61
613.094	7773.92
613.295	7653.09
613.497	7202.54
613.699	7495.39
613.9	7866.08
614.102	7757.53
614.304	7382.76
614.505	7155.43
614.707	7767.77
614.908	7411.43
615.11	7202.54
615.311	7583.46
615.513	7712.48
615.714	7999.2
615.916	7233.25
616.117	7509.73
616.319	7661.28
616.52	7931.61
616.722	7376.61
616.923	7403.24
617.124	7960.28
617.326	7839.45
617.527	7636.7
617.729	7845.6
617.93	7847.65
618.131	7870.17
618.333	7524.07
618.534	7421.67
618.735	7628.51
618.937	8142.55
619.138	7513.83
619.339	7534.31
619.54	8027.87
619.742	7874.27
619.943	7872.22
620.144	7556.83
620.345	8101.59
620.546	7966.43
620.748	7634.66
620.949	7706.34
621.15	7941.85
621.351	8011.48
621.552	7732.96
621.753	7614.18
621.954	7708.38
622.155	8572.63
622.356	7952.09
622.558	7911.13
622.759	8156.89
622.96	8394.45
623.161	7868.13
623.362	7747.3
623.563	8279.77
623.764	8036.06
623.965	7763.68
624.166	7964.38
624.366	8081.11
624.567	8292.05
624.768	7677.66
624.969	7759.58
625.17	8165.08
625.371	8494.8
625.572	8179.42
625.773	7671.52
625.973	8697.55
626.174	8509.14
626.375	8126.17
626.576	8208.09
626.777	8371.93
626.977	8847.05
627.178	8124.12
627.379	8238.81
627.58	8513.24
627.78	8427.22
627.981	7988.96
628.182	8349.4
628.382	8619.73
628.583	8310.49
628.784	8038.11
628.984	8302.29
629.185	8691.41
629.386	8429.27
629.586	8292.05
629.787	8163.03
629.987	8730.32
630.188	8595.15
630.388	8349.4
630.589	8341.21
630.79	9156.3
630.99	8771.28
631.191	8470.23
631.391	8646.35
631.591	8892.11
631.792	8922.83
631.992	8726.22
632.193	8634.07
632.393	8935.12
632.594	8617.68
632.794	8304.34
632.994	8652.5
633.195	8591.06
633.395	8842.96
633.595	8290.01
633.796	8795.86
633.996	8537.81
634.196	8867.53
634.397	8429.27
634.597	8662.74
634.797	8773.33
634.997	9277.13
635.198	8847.05
635.398	8371.93
635.598	8748.75
635.798	9307.85
635.998	9066.19
636.199	8636.11
636.399	8871.63
636.599	8687.31
636.799	8892.11
636.999	8830.67
637.199	9027.28
637.399	9150.15
637.599	8746.7
637.799	8885.97
637.999	8763.09
638.199	9623.23
638.399	8718.03
638.599	8634.07
638.799	9045.71
638.999	9690.82
639.199	8935.12
639.399	8904.4
639.599	9445.06
639.799	8963.79
639.999	8943.31
640.199	8978.12
640.399	9295.56
640.599	9309.9
640.799	8974.03
640.998	9180.87
641.198	9553.6
641.398	9350.85
641.598	9201.35
641.798	9174.73
641.997	10266.3
642.197	9256.65
642.397	9254.6
642.597	9283.27
642.796	9574.08
642.996	9709.25
643.196	9309.9
643.395	9080.52
643.595	9615.04
643.795	9092.81
643.994	9270.98
644.194	9483.97
644.394	9690.82
644.593	9608.9
644.793	9189.07
644.992	9627.33
645.192	9721.54
645.392	9105.1
645.591	9643.71
645.791	9391.81
645.99	9684.67
646.19	9326.28
646.389	9520.84
646.589	9643.71
646.788	9678.53
646.987	9686.72
647.187	9723.58
647.386	9596.61
647.586	9641.67
647.785	9793.22
647.984	9592.51
648.184	9533.12
648.383	9678.53
648.582	9746.11
648.782	9438.92
648.981	9676.48
649.18	9518.79
649.38	9868.99
649.579	9692.87
649.778	9649.86
649.977	9950.91
650.177	9877.18
650.376	9549.51
650.575	9432.77
650.774	10419.89
650.973	9860.8
651.173	9447.11
651.372	9739.97
651.571	10030.78
651.77	9946.81
651.969	9496.26
652.168	9825.98
652.367	9770.69
652.566	10340.02
652.765	9690.82
652.964	10239.67
653.163	10520.24
653.362	10157.75
653.561	9930.43
653.76	9977.53
653.959	9819.84
654.158	10499.77
654.357	10155.71
654.556	10075.84
654.755	10368.7
654.954	10389.17
655.153	9860.8
655.352	10006.2
655.551	10661.55
655.749	10071.74
655.948	9985.72
656.147	10327.74
656.346	10313.4
656.545	10446.52
656.743	10086.08
656.942	10254.01
657.141	10276.54
657.34	10247.86
657.538	10221.24
657.737	10110.65
657.936	10307.26
658.135	10655.41
658.333	10204.86
658.532	10325.69
658.731	11093.68
658.929	10528.44
659.128	10581.68
659.326	10254.01
659.525	11026.09
659.724	10489.53
659.922	10067.64
660.121	10114.75
660.319	10473.14
660.518	10395.32
660.716	10116.79
660.915	10329.78
661.113	10886.83
661.312	10358.46
661.51	10514.1
661.709	10110.65
661.907	10741.43
662.105	11062.96
662.304	10483.38
662.502	10368.7
662.701	10892.98
662.899	10501.81
663.097	10778.29
663.296	10327.74
663.494	11108.01
663.692	11005.61
663.891	10264.25
664.089	10231.48
664.287	11024.05
664.485	10952.37
664.684	10593.97
664.882	10819.25
665.08	10831.54
665.278	10763.95
665.476	10548.92
665.675	10802.86
665.873	11187.88
666.071	11249.32
666.269	10569.4
666.467	10915.5
666.665	10917.55
666.863	10645.17
667.061	10731.19
667.259	10577.59
667.457	10948.27
667.655	11007.66
667.853	10714.8
668.051	11015.85
668.249	10852.02
668.447	11120.3
668.645	10667.7
668.843	10999.47
669.041	11234.99
669.239	11073.2
669.437	10753.71
669.635	11048.62
669.833	10985.13
670.031	11392.68
670.229	10938.03
670.426	10819.25
670.624	11069.1
670.822	10892.98
671.02	10766
671.218	11105.96
671.415	10856.11
671.613	11232.94
671.811	11062.96
672.009	10995.37
672.206	11382.44
672.404	11318.95
672.602	11220.65
672.799	11130.54
672.997	11273.9
673.195	11517.61
673.392	11226.79
673.59	10952.37
673.788	11316.9
673.985	10708.66
674.183	10911.41
674.38	11151.02
674.578	11425.45
674.775	11062.96
674.973	10921.65
675.17	11136.68
675.368	11835.04
675.565	11402.92
675.763	10913.45
675.96	11130.54
676.158	11609.76
676.355	11189.93
676.553	11040.43
676.75	10995.37
676.947	11351.72
677.145	11105.96
677.342	11214.51
677.539	11353.77
677.737	11284.14
677.934	11912.86
678.131	11325.1
678.329	10946.22
678.526	11554.47
678.723	11474.6
678.92	11249.32
679.118	11058.86
679.315	10862.26
679.512	11892.38
679.709	11036.33
679.906	10938.03
680.104	11566.76
680.301	11390.63
680.498	10923.69
680.695	11116.2
680.892	10995.37
681.089	11482.79
681.286	11165.35
681.483	10704.56
681.68	11386.54
681.877	11554.47
682.075	11349.67
682.272	11296.42
682.469	11613.86
682.665	11439.78
682.862	11017.9
683.059	11011.76
683.256	11445.93
683.453	11316.9
683.65	11447.97
683.847	11189.93
684.044	11525.8
684.241	11364.01
684.438	11421.35
684.635	11134.64
684.831	11933.34
685.028	11734.69
685.225	11165.35
685.422	11404.97
685.619	11390.63
685.815	11302.57
686.012	11208.36
686.209	11413.16
686.405	11146.92
686.602	11904.67
686.799	11077.29
686.996	11187.88
687.192	11097.77
687.389	12041.89
687.586	11263.66
687.782	11251.37
687.979	11789.99
688.175	11663.01
688.372	11204.27
688.568	11202.22
688.765	11253.42
688.962	11761.31
689.158	11374.25
689.355	11249.32
689.551	11796.13
689.748	11101.87
689.944	11368.1
690.14	11179.69
690.337	11550.37
690.533	11554.47
690.73	11472.55
690.926	11593.38
691.123	11595.43
691.319	11644.58
691.515	11409.06
691.712	11220.65
691.908	11615.91
692.104	11787.94
692.301	11441.83
692.497	11335.34
692.693	11673.25
692.889	11822.75
693.086	11564.71
693.282	11271.85
693.478	11701.92
693.674	11861.66
693.87	11302.57
694.067	11175.59
694.263	11673.25
694.459	11499.17
694.655	11617.96
694.851	11464.36
695.047	11808.42
695.243	11699.87
695.439	11527.85
695.635	11247.27
695.831	11906.72
696.027	11667.11
696.224	11228.84
696.42	11945.63
696.615	12156.57
696.811	11863.71
697.007	11374.25
697.203	11355.82
697.399	11755.17
697.595	12011.17
697.791	11341.48
697.987	11497.13
698.183	11404.97
698.379	11447.97
698.575	11376.3
698.77	11568.8
698.966	11779.75
699.162	12062.37
699.358	11335.34
699.554	11603.62
699.749	11806.37
699.945	11871.9
700.141	11523.75
700.337	11433.64
700.532	11337.38
700.728	11427.49
700.924	11490.98
701.119	11331.24
701.315	11798.18
701.511	11501.22
701.706	11568.8
701.902	11312.81
702.097	11560.61
702.293	11884.19
702.489	11536.04
702.684	11435.69
702.88	11617.96
703.075	11663.01
703.271	11495.08
703.466	11468.45
703.662	11771.55
703.857	11978.4
704.053	11646.63
704.248	11445.93
704.443	12148.38
704.639	11923.1
704.834	11443.88
705.03	11536.04
705.225	11798.18
705.42	12023.45
705.616	11581.09
705.811	11364.01
706.006	11658.92
706.202	11767.46
706.397	11509.41
706.592	11366.06
706.787	11925.15
706.983	11755.17
707.178	12060.32
707.373	11728.55
707.568	12117.66
707.763	12062.37
707.959	11759.27
708.154	11470.5
708.349	11681.44
708.544	11986.59
708.739	11794.08
708.934	11425.45
709.129	11837.09
709.324	12287.64
709.519	11560.61
709.714	11546.28
709.909	12039.84
710.104	11980.45
710.299	11609.76
710.494	11646.63
710.689	11929.25
710.884	11812.51
711.079	11648.68
711.274	11773.6
711.469	12031.65
711.664	11863.71
711.859	11402.92
712.054	11800.23
712.249	11947.68
712.443	11916.96
712.638	11470.5
712.833	11560.61
713.028	11894.43
713.223	11919.01
713.417	11615.91
713.612	11583.14
713.807	12041.89
714.002	12850.83
714.196	11730.59
714.391	11626.15
714.586	12258.97
714.78	11773.6
714.975	11589.28
715.17	11536.04
715.364	11701.92
715.559	11941.54
715.754	11327.14
715.948	11419.3
716.143	12539.54
716.337	11865.76
716.532	11830.94
716.726	11560.61
716.921	11986.59
717.115	12465.82
717.31	11357.86
717.504	12248.73
717.699	11830.94
717.893	12068.51
718.088	11425.45
718.282	11785.89
718.476	11761.31
718.671	11759.27
718.865	11353.77
719.059	11570.85
719.254	11740.83
719.448	12177.05
719.642	12926.61
719.837	11259.56
720.031	11818.66
720.225	12068.51
720.419	11677.35
720.614	11454.12
720.808	11908.77
721.002	11620
721.196	11523.75
721.39	11552.42
721.585	12043.93
721.779	11896.48
721.973	11650.72
722.167	11159.21
722.361	11894.43
722.555	11962.01
722.749	11564.71
722.943	11490.98
723.137	11570.85
723.331	11900.58
723.525	11292.33
723.719	11538.09
723.913	12123.8
724.107	11916.96
724.301	11556.52
724.495	11699.87
724.689	12191.39
724.883	12144.28
725.077	11474.6
725.271	11613.86
725.465	12043.93
725.659	12002.97
725.853	11650.72
726.046	11376.3
726.24	11421.35
726.434	12107.42
726.628	11763.36
726.822	11607.72
727.015	12099.23
727.209	12312.22
727.403	11609.76
727.596	11421.35
727.79	11972.25
727.984	12211.87
728.177	11673.25
728.371	11669.16
728.565	12271.26
728.758	11417.26
728.952	11527.85
729.146	11695.78
729.339	12154.52
729.533	12041.89
729.726	11671.2
729.92	11740.83
730.113	12453.53
730.307	11927.2
730.5	11636.39
730.694	11648.68
730.887	11695.78
731.081	12146.33
731.274	11636.39
731.468	11556.52
731.661	11968.16
731.854	11796.13
732.048	11697.83
732.241	11527.85
732.435	11931.3
732.628	11839.14
732.821	11843.23
733.014	11687.59
733.208	11495.08
733.401	12168.86
733.594	11552.42
733.788	11699.87
733.981	12312.22
734.174	11931.3
734.367	11775.65
734.56	11941.54
734.754	12048.03
734.947	12043.93
735.14	11591.33
735.333	11949.73
735.526	12295.83
735.719	11931.3
735.912	11581.09
736.105	11892.38
736.298	12183.2
736.491	11892.38
736.684	11849.38
736.877	11560.61
737.07	12074.65
737.263	12295.83
737.456	11876
737.649	11560.61
737.842	11994.78
738.035	12095.13
738.228	11880.1
738.421	11812.51
738.614	12609.17
738.807	12170.91
739	11712.16
739.192	11409.06
739.385	12224.15
739.578	12199.58
739.771	12068.51
739.964	11761.31
740.156	12091.04
740.349	12007.07
740.542	12234.39
740.735	11599.52
740.927	11802.27
741.12	12025.5
741.313	11753.12
741.505	12123.8
741.698	12261.02
741.891	12101.28
742.083	11992.73
742.276	11912.86
742.468	12088.99
742.661	12205.72
742.854	11769.51
743.046	11900.58
743.239	12498.58
743.431	12277.4
743.624	11593.38
743.816	11558.56
744.009	12005.02
744.201	12218.01
744.393	11962.01
744.586	11753.12
744.778	12523.16
744.971	12181.15
745.163	11832.99
745.355	11904.67
745.548	12195.48
745.74	11933.34
745.932	12023.45
746.125	11859.62
746.317	12979.86
746.509	12179.1
746.702	11994.78
746.894	11925.15
747.086	12318.36
747.278	12461.72
747.471	12056.22
747.663	12129.95
747.855	12246.68
748.047	12498.58
748.239	11826.85
748.431	11716.26
748.623	12338.84
748.815	12496.53
749.008	11894.43
749.2	11669.16
749.392	12209.82
749.584	12115.61
749.776	12125.85
749.968	12043.93
750.16	12598.93
750.352	12039.84
750.544	12029.6
750.736	11634.34
750.928	12404.38
751.12	12005.02
751.311	12111.52
751.503	11949.73
751.695	12310.17
751.887	11994.78
752.079	11638.44
752.271	11732.64
752.463	12992.14
752.654	12142.24
752.846	11849.38
753.038	11732.64
753.23	11955.87
753.421	12308.12
753.613	11722.4
753.805	12111.52
753.997	12191.39
754.188	12277.4
754.38	11974.3
754.572	11765.41
754.763	12177.05
754.955	12062.37
755.146	11689.63
755.338	11798.18
755.53	12011.17
755.721	11873.95
755.913	11605.67
756.104	11654.82
756.296	12000.93
756.487	12281.5
756.679	11519.65
756.87	11603.62
757.062	11882.14
757.253	12134.04
757.445	11722.4
757.636	11568.8
757.827	11949.73
758.019	12680.85
758.21	11550.37
758.401	11675.3
758.593	12623.51
758.784	12093.08
758.975	11480.74
759.167	11572.9
759.358	12136.09
759.549	12236.44
759.74	11669.16
759.932	11638.44
760.123	12222.11
760.314	11599.52
760.505	11669.16
760.696	11595.43
760.888	12420.76
761.079	11816.61
761.27	11533.99
761.461	11544.23
761.652	12224.15
761.843	11884.19
762.034	11792.03
762.225	11964.06
762.416	11804.32
762.607	11706.02
762.798	11826.85
762.989	11720.35
763.18	12811.92
763.371	11667.11
763.562	11677.35
763.753	11484.84
763.944	11910.82
764.135	11732.64
764.326	11593.38
764.517	11527.85
764.708	11728.55
764.899	11769.51
765.089	11568.8
765.28	11450.02
765.471	11755.17
765.662	11867.81
765.853	11490.98
766.043	11220.65
766.234	11892.38
766.425	11746.98
766.615	11511.46
766.806	11353.77
766.997	12019.36
767.187	11697.83
767.378	11146.92
767.569	11259.56
767.759	11779.75
767.95	11701.92
768.141	11374.25
768.331	11284.14
768.522	11529.89
768.712	11994.78
768.903	11249.32
769.093	11294.38
769.284	12088.99
769.474	11890.34
769.665	11069.1
769.855	11040.43
770.046	11867.81
770.236	11417.26
770.426	11638.44
770.617	11212.46
770.807	11726.5
770.998	11409.06
771.188	11370.15
771.378	11335.34
771.569	11855.52
771.759	11476.65
771.949	11007.66
772.139	10989.23
772.33	11386.54
772.52	11880.1
772.71	11122.35
772.9	11052.72
773.09	11798.18
773.281	11841.18
773.471	11042.48
773.661	11032.24
773.851	11566.76
774.041	11191.98
774.231	11384.49
774.421	11196.07
774.611	11783.84
774.802	11286.19
774.992	11089.58
775.182	11108.01
775.372	11400.87
775.562	11615.91
775.752	11056.81
775.942	11155.12
776.131	11685.54
776.321	11595.43
776.511	11015.85
776.701	10962.61
776.891	11378.34
777.081	11030.19
777.271	11218.6
777.461	11024.05
777.651	11468.45
777.84	11591.33
778.03	11083.44
778.22	10983.09
778.41	11579.04
778.599	10933.93
778.789	10876.59
778.979	10903.21
779.169	11140.78
779.358	11177.64
779.548	11413.16
779.738	10809.01
779.927	11302.57
780.117	10903.21
780.307	10981.04
780.496	10442.42
780.686	11286.19
780.875	11708.07
781.065	10591.92
781.254	10786.48
781.444	10991.28
781.633	11222.7
781.823	10835.63
782.012	10993.33
782.202	10868.4
782.391	10989.23
782.581	10591.92
782.77	10720.95
782.96	11146.92
783.149	10653.36
783.338	10591.92
783.528	10475.19
783.717	11329.19
783.906	11196.07
784.096	10731.19
784.285	10743.47
784.474	10856.11
784.663	10702.51
784.853	10708.66
785.042	10700.47
785.231	11085.48
785.42	11183.79
785.61	10796.72
785.799	10555.06
785.988	10978.99
786.177	10983.09
786.366	10725.04
786.555	10983.09
786.744	10987.18
786.933	11024.05
787.122	10598.07
787.312	10596.02
787.501	10837.68
787.69	11028.14
787.879	10774.19
788.068	10505.91
788.257	10485.43
788.445	10768.05
788.634	10567.35
788.823	10452.66
789.012	11560.61
789.201	11222.7
789.39	10761.91
789.579	10397.37
789.768	10704.56
789.957	11003.57
790.145	10462.9
790.334	10305.21
790.523	10888.88
790.712	10735.28
790.9	10581.68
791.089	10247.86
791.278	11026.09
791.467	10856.11
791.655	10837.68
791.844	11019.95
792.033	10712.75
792.221	10706.61
792.41	10659.51
792.599	10061.5
792.787	10954.41
792.976	11124.4
793.164	10235.58
793.353	10471.09
793.541	10790.58
793.73	10852.02
793.918	10585.78
794.107	10321.59
794.295	10442.42
794.484	10706.61
794.672	10395.32
794.861	10292.92
795.049	11081.39
795.238	10929.84
795.426	10370.74
795.614	10299.06
795.803	10892.98
795.991	10981.04
796.179	10256.06
796.368	10145.47
796.556	10919.6
796.744	10254.01
796.932	10211
797.121	10202.81
797.309	10401.46
797.497	10692.27
797.685	10159.8
797.874	10319.54
798.062	10487.48
798.25	10919.6
798.438	10383.03
798.626	10356.41
798.814	10718.9
799.002	10950.32
799.19	10737.33
799.378	10354.36
799.566	10935.98
799.755	10954.41
799.943	10503.86
800.131	10292.92
800.318	10800.82
800.506	10845.87
800.694	10358.46
800.882	10464.95
801.07	10688.18
801.258	10663.6
801.446	10423.99
801.634	10467
801.822	10700.47
802.01	10350.26
802.197	10501.81
802.385	10684.08
802.573	10794.67
802.761	10673.84
802.949	10622.64
803.136	10395.32
803.324	10985.13
803.512	10794.67
803.699	10761.91
803.887	10518.2
804.075	11060.91
804.262	10667.7
804.45	10319.54
804.638	10778.29
804.825	10538.68
805.013	10610.36
805.201	10704.56
805.388	10532.53
805.576	10800.82
805.763	11560.61
805.951	10534.58
806.138	10798.77
806.326	11277.99
806.513	11026.09
806.701	10741.43
806.888	10634.93
807.075	11226.79
807.263	11310.76
807.45	10544.82
807.638	10954.41
807.825	11531.94
808.012	10737.33
808.2	10577.59
808.387	11044.52
808.574	11306.66
808.761	11349.67
808.949	10796.72
809.136	10743.47
809.323	11077.29
809.51	11054.76
809.698	11005.61
809.885	10880.69
810.072	11359.91
810.259	11286.19
810.446	10919.6
810.633	10704.56
810.82	11411.11
811.008	11329.19
811.195	11052.72
811.382	10974.89
811.569	11374.25
811.756	10651.31
811.943	11009.71
812.13	10854.06
812.317	10948.27
812.504	11067.05
812.691	11112.11
812.878	11093.68
813.064	11521.7
813.251	11292.33
813.438	10596.02
813.625	11191.98
813.812	11116.2
813.999	11292.33
814.186	10839.73
814.372	11124.4
814.559	11292.33
814.746	11441.83
814.933	10815.15
815.12	11112.11
815.306	11261.61
815.493	11124.4
815.68	10815.15
815.866	11030.19
816.053	11660.96
816.24	11761.31
816.426	11116.2
816.613	10747.57
816.799	11296.42
816.986	11820.7
817.173	10786.48
817.359	11050.67
817.546	11294.38
817.732	10835.63
817.919	10811.06
818.105	10950.32
818.292	11169.45
818.478	11280.04
818.665	11335.34
818.851	11089.58
819.037	11658.92
819.224	11093.68
819.41	10688.18
819.597	10831.54
819.783	11988.64
819.969	11228.84
820.156	10788.53
820.342	10849.97
820.528	11900.58
820.714	11003.57
820.901	11103.92
821.087	10905.26
821.273	11749.03
821.459	11101.87
821.646	10815.15
821.832	10860.21
822.018	11329.19
822.204	11210.41
822.39	10800.82
822.576	10817.2
822.762	11339.43
822.948	11253.42
823.134	11108.01
823.32	10645.17
823.507	11073.2
823.693	11204.27
823.879	11298.47
824.065	10634.93
824.25	11122.35
824.436	10864.3
824.622	10956.46
824.808	10854.06
824.994	10976.94
825.18	10860.21
825.366	10706.61
825.552	10616.5
825.738	10841.78
825.923	11374.25
826.109	10929.84
826.295	10745.52
826.481	10833.58
826.667	11163.31
826.852	10628.79
827.038	10682.03
827.224	11214.51
827.409	11476.65
827.595	10393.27
827.781	10729.14
827.966	11413.16
828.152	11048.62
828.338	10616.5
828.523	10389.17
828.709	10766
828.894	11181.74
829.08	10548.92
829.266	10518.2
829.451	10745.52
829.637	10927.79
829.822	10651.31
830.008	10309.3
830.193	11327.14
830.378	11282.09
830.564	10411.7
830.749	10360.5
830.935	10923.69
831.12	10864.3
831.305	10526.39
831.491	10626.74
831.676	10612.4
831.861	10860.21
832.047	10628.79
832.232	10313.4
832.417	10966.7
832.602	10696.37
832.788	10276.54
832.973	10227.39
833.158	10591.92
833.343	10569.4
833.528	10473.14
833.714	10346.17
833.899	10690.23
834.084	11054.76
834.269	10518.2
834.454	10278.58
834.639	10698.42
834.824	10536.63
835.009	10305.21
835.194	10546.87
835.379	10819.25
835.564	10874.54
835.749	10720.95
835.934	10016.44
836.119	10671.79
836.304	10598.07
836.489	10172.09
836.674	10446.52
836.859	10337.98
837.044	10696.37
837.228	10321.59
837.413	10131.13
837.598	10608.31
837.783	10720.95
837.968	10202.81
838.152	10159.8
838.337	10172.09
838.522	10901.17
838.707	10602.16
838.891	10483.38
839.076	10624.69
839.261	10553.01
839.445	10100.41
839.63	10075.84
839.815	10825.39
839.999	10260.15
840.184	10088.12
840.368	10237.63
840.553	10352.31
840.737	10585.78
840.922	9873.09
841.106	10180.28
841.291	9926.33
841.475	10321.59
841.66	10061.5
841.844	10053.31
842.029	10927.79
842.213	9944.77
842.397	9959.1
842.582	9918.14
842.766	10423.99
842.951	10497.72
843.135	9877.18
843.319	10077.88
843.504	10270.39
843.688	10456.76
843.872	9916.09
844.056	9926.33
844.241	10366.65
844.425	10122.94
844.609	10032.83
844.793	9547.46
844.977	10391.22
845.161	10118.84
845.346	9647.81
845.53	9926.33
845.714	10114.75
845.898	10389.17
846.082	9631.43
846.266	9715.39
846.45	9912
846.634	10053.31
846.818	9862.85
847.002	9973.44
847.186	10143.42
847.37	9754.3
847.554	9668.29
847.738	9766.59
847.922	9967.29
848.106	10122.94
848.29	9651.91
848.473	9662.15
848.657	10157.75
848.841	9942.72
849.025	9819.84
849.209	9459.4
849.392	10155.71
849.576	9924.29
849.76	9416.39
849.944	9739.97
850.127	10077.88
850.311	9533.12
850.495	9475.78
850.678	9504.45
850.862	10180.28
851.046	10430.13
851.229	9823.94
851.413	9383.62
851.596	9690.82
851.78	9680.58
851.964	9782.98
852.147	9598.66
852.331	10479.29
852.514	10102.46
852.698	9459.4
852.881	9318.09
853.065	9912
853.248	9713.35
853.431	9563.84
853.615	9692.87
853.798	10323.64
853.982	9529.03
854.165	9436.87
854.348	9275.08
854.532	9416.39
854.715	9440.97
854.898	9404.1
855.081	9502.4
855.265	9748.16
855.448	9952.96
855.631	9250.5
855.814	9144.01
855.997	9823.94
856.181	9684.67
856.364	9293.51
856.547	9182.92
856.73	9529.03
856.913	9481.92
857.096	9098.95
857.279	9387.72
857.462	9234.12
857.645	9684.67
857.828	9463.49
858.011	9467.59
858.194	9305.8
858.377	9684.67
858.56	9236.17
858.743	9307.85
858.926	9318.09
859.109	9584.32
859.292	9217.74
859.475	8949.45
859.658	9799.36
859.841	9598.66
860.023	8883.92
860.206	8920.78
860.389	9244.36
860.572	9725.63
860.755	9096.91
860.937	9086.67
861.12	9121.48
861.303	9141.96
861.486	9045.71
861.668	8980.17
861.851	9451.21
862.034	9193.16
862.216	9236.17
862.399	8617.68
862.581	9352.9
862.764	9510.6
862.947	8971.98
863.129	8783.57
863.312	8830.67
863.494	9586.37
863.677	8842.96
863.859	8722.13
864.042	9201.35
864.224	9342.66
864.406	8892.11
864.589	8498.9
864.771	9092.81
864.954	8871.63
865.136	8664.79
865.318	8361.69
865.501	8984.27
865.683	8619.73
865.865	8756.94
866.048	8625.87
866.23	8883.92
866.412	8863.44
866.594	8605.39
866.777	8896.21
866.959	9090.76
867.141	8640.21
867.323	8908.49
867.505	8877.77
867.687	8857.29
867.869	8953.55
868.052	8533.72
868.234	8443.6
868.416	8804.05
868.598	9148.11
868.78	8500.95
868.962	8558.29
869.144	8984.27
869.326	9068.23
869.508	8564.43
869.69	8527.57
869.872	8738.51
870.054	9019.08
870.236	8457.94
870.417	8404.69
870.599	8722.13
870.781	9187.02
870.963	8517.33
871.145	8464.08
871.327	8574.67
871.508	9000.65
871.69	8605.39
871.872	8500.95
872.054	8877.77
872.235	8918.73
872.417	8687.31
872.599	8429.27
872.78	9322.18
872.962	8953.55
873.144	8300.25
873.325	8525.52
873.507	8984.27
873.689	8775.38
873.87	8447.7
874.052	8398.55
874.233	8783.57
874.415	9103.05
874.596	8736.46
874.778	8402.65
874.959	8896.21
875.141	8947.4
875.322	8623.83
875.503	8384.21
875.685	9074.38
875.866	8533.72
876.048	8492.76
876.229	8193.75
876.41	8802
876.592	8961.74
876.773	8595.15
876.954	8300.25
877.136	9107.15
877.317	8566.48
877.498	8611.54
877.679	8519.38
877.86	9078.47
878.042	8904.4
878.223	8691.41
878.404	8840.91
878.585	8820.43
878.766	9373.38
878.947	8943.31
879.128	8931.02
879.309	9045.71
879.49	9569.99
879.672	8814.29
879.853	8775.38
880.034	8668.88
880.215	9025.23
880.396	8941.26
880.576	8767.18
880.757	8832.72
880.938	9139.91
881.119	8720.08
881.3	8771.28
881.481	9064.14
881.662	9797.31
881.843	8672.98
882.023	8787.66
882.204	9199.3
882.385	9400.01
882.566	8918.73
882.747	8892.11
882.927	9066.19
883.108	9348.81
883.289	8672.98
883.469	9291.46
883.65	9254.6
883.831	9393.86
884.011	9242.31
884.192	8988.36
884.373	9381.57
884.553	9359.05
884.734	9266.89
884.914	9385.67
885.095	10002.11
885.275	9623.23
885.456	9455.3
885.636	9004.75
885.817	9273.03
885.997	9365.19
886.178	9207.5
886.358	9172.68
886.538	9561.8
886.719	10307.26
886.899	9053.9
887.08	9299.66
887.26	9830.08
887.44	9273.03
887.621	9195.21
887.801	9434.82
887.981	10112.7
888.161	9713.35
888.342	9535.17
888.522	9203.4
888.702	9885.37
888.882	9739.97
889.062	9332.42
889.242	9113.29
889.423	10118.84
889.603	9721.54
889.783	9592.51
889.963	9244.36
890.143	9912
890.323	10069.69
890.503	9318.09
890.683	9264.84
890.863	9768.64
891.043	9959.1
891.223	9612.99
891.403	9653.95
891.583	9584.32
891.763	9844.42
891.943	9762.5
892.122	9457.35
892.302	9647.81
892.482	9670.34
892.662	9520.84
892.842	9443.01
893.022	9764.54
893.201	9699.01
893.381	9621.19
893.561	9475.78
893.741	9760.45
893.92	9793.22
894.1	9615.04
894.28	9678.53
894.459	9926.33
894.639	10002.11
894.819	9400.01
894.998	9629.38
895.178	10100.41
895.357	9850.56
895.537	9475.78
895.716	9453.25
895.896	9684.67
896.075	10020.54
896.255	9793.22
896.434	9227.98
896.614	10004.16
896.793	10235.58
896.973	9557.7
897.152	9475.78
897.331	9897.66
897.511	10002.11
897.69	9346.76
897.87	9500.36
898.049	9889.47
898.228	9969.34
898.407	9459.4
898.587	9533.12
898.766	9682.63
898.945	9795.26
899.124	9643.71
899.304	9492.16
899.483	9797.31
899.662	10110.65
899.841	9510.6
900.02	9283.27
900.199	9926.33
900.378	9637.57
900.557	9227.98
900.737	9162.44
900.916	9430.73
901.095	9840.32
901.274	9639.62
901.453	9328.33
901.632	9430.73
901.811	9406.15
901.989	9469.64
902.168	9436.87
902.347	9746.11
902.526	9436.87
902.705	9287.37
902.884	9242.31
903.063	9807.55
903.242	9860.8
903.42	9283.27
903.599	9453.25
903.778	9731.78
903.957	10016.44
904.135	9393.86
904.314	9406.15
904.493	9633.47
904.672	9594.56
904.85	9283.27
905.029	9160.39
905.207	9594.56
905.386	9946.81
905.565	8816.33
905.743	9103.05
905.922	9086.67
906.1	9359.05
906.279	8863.44
906.457	9039.56
906.636	9252.55
906.814	9170.63
906.993	8898.25
907.171	8955.6
907.35	9500.36
907.528	9426.63
907.707	9350.85
907.885	9025.23
908.063	9354.95
908.242	9037.52
908.42	8834.77
908.598	8773.33
908.777	9266.89
908.955	9017.04
909.133	8935.12
909.311	8537.81
909.49	8935.12
909.668	8982.22
909.846	8818.38
910.024	8793.81
910.202	9270.98
910.38	9055.95
910.559	8529.62
910.737	8576.72
910.915	9062.09
911.093	9019.08
911.271	8521.43
911.449	8894.16
911.627	9152.2
911.805	9381.57
911.983	8591.06
912.161	8496.85
912.339	8947.4
912.517	9068.23
912.695	8503
912.872	8521.43
913.05	8615.63
913.228	8873.68
913.406	8550.1
913.584	8365.78
913.762	9060.04
913.939	8486.61
914.117	8312.53
914.295	8150.74
914.473	8670.93
914.65	8787.66
914.828	8189.66
915.006	8304.34
915.184	8335.06
915.361	8724.18
915.539	8376.02
915.716	8109.79
915.894	8464.08
916.072	8558.29
916.249	8459.99
916.427	8122.07
916.604	8179.42
916.782	8472.28
916.959	8136.41
917.137	8113.88
917.314	8365.78
917.492	8412.88
917.669	8132.31
917.847	8347.35
918.024	8400.6
918.201	7980.76
918.379	8050.39
918.556	7966.43
918.733	8443.6
918.911	7952.09
919.088	8138.46
919.265	7894.75
919.442	8173.27
919.62	7831.26
919.797	7792.35
919.974	7714.53
920.151	7991
920.328	7991
920.506	7814.88
920.683	8034.01
920.86	7775.97
921.037	7857.89
921.214	7720.67
921.391	7673.57
921.568	8169.18
921.745	7714.53
921.922	7403.24
922.099	7464.68
922.276	8111.83
922.453	7917.28
922.63	7511.78
922.807	7648.99
922.984	7628.51
923.161	7554.79
923.338	7489.25
923.514	7255.78
923.691	7685.86
923.868	7913.18
924.045	7225.06
924.222	7046.89
924.399	7554.79
924.575	7620.32
924.752	7235.3
924.929	7243.49
925.105	7532.26
925.282	7194.34
925.459	7192.3
925.635	7110.38
925.812	7231.21
925.989	7026.41
926.165	7118.57
926.342	6874.86
926.518	6772.46
926.695	7145.19
926.871	6917.87
927.048	6883.05
927.224	7366.37
927.401	6913.77
927.577	6862.57
927.754	6592.24
927.93	7470.82
928.107	7231.21
928.283	6633.2
928.459	6690.54
928.636	7235.3
928.812	7010.03
928.988	6467.31
929.165	6489.84
929.341	6754.03
929.517	6825.71
929.693	6956.78
929.87	6231.8
930.046	6735.6
930.222	6655.73
930.398	6149.88
930.574	6387.44
930.751	6760.17
930.927	6557.43
931.103	6385.4
931.279	6315.76
931.455	6301.43
931.631	6479.6
931.807	6076.15
931.983	5983.99
932.159	6043.39
932.335	6272.76
932.511	5994.23
932.687	5986.04
932.863	6405.88
933.039	6108.92
933.215	5779.2
933.391	5859.07
933.566	5994.23
933.742	6053.62
933.918	5605.12
934.094	5580.54
934.27	5859.07
934.445	6010.62
934.621	5687.04
934.797	5410.56
934.973	5867.26
935.148	5742.33
935.324	5207.81
935.5	5086.98
935.675	5805.82
935.851	5592.83
936.027	5267.2
936.202	5150.47
936.378	5414.66
936.553	5101.32
936.729	5316.36
936.904	4685.58
937.08	4802.32
937.255	4939.53
937.431	4589.33
937.606	4382.48
937.782	4577.04
937.957	4626.19
938.133	4292.37
938.308	4093.72
938.483	4306.71
938.659	4159.25
938.834	4153.11
939.009	4019.99
939.185	4202.26
939.36	4085.53
939.535	3696.41
939.71	3872.54
939.886	4181.78
940.061	4099.86
940.236	3911.45
940.411	3723.04
940.586	3948.31
940.761	3952.41
940.937	3516.19
941.112	3462.94
941.287	3649.31
941.462	3626.78
941.637	3184.42
941.812	3438.37
941.987	3538.72
942.162	3415.84
942.337	3335.97
942.512	3309.35
942.687	3639.07
942.862	3491.62
943.037	3071.78
943.212	2811.69
943.386	3327.78
943.561	3409.7
943.736	3303.2
943.911	3598.11
944.086	3516.19
944.26	3424.03
944.435	3155.75
944.61	3104.55
944.785	3448.61
944.959	3708.7
945.134	3153.7
945.309	2905.9
945.483	3014.44
945.658	3403.55
945.833	2715.44
946.007	2903.85
946.182	3594.01
946.357	3028.78
946.531	2985.77
946.706	2817.83
946.88	2819.88
947.055	3344.16
947.229	2856.75
947.404	2875.18
947.578	3432.22
947.752	3047.21
947.927	2928.42
948.101	2871.08
948.276	3233.57
948.45	3122.98
948.624	3241.76
948.799	2854.7
948.973	3358.5
949.147	2828.07
949.321	3059.49
949.496	2860.84
949.67	3565.34
949.844	3163.94
950.018	3030.82
950.193	2973.48
950.367	3657.5
950.541	3092.26
950.715	3116.84
950.889	3176.23
951.063	3200.8
951.237	3385.12
951.411	2912.04
951.585	2799.4
951.759	3299.11
951.933	3057.45
952.107	3131.17
952.281	3088.17
952.455	3692.32
952.629	3286.82
952.803	2930.47
952.977	2893.61
953.151	3491.62
953.325	3362.59
953.499	3215.14
953.672	2938.66
953.846	2961.19
954.02	3159.85
954.194	2938.66
954.368	2942.76
954.541	3260.2
954.715	3098.41
954.889	3069.73
955.062	2914.09
955.236	3303.2
955.41	3165.99
955.583	3243.81
955.757	2697
955.93	3075.88
956.104	2862.89
956.278	2907.94
956.451	2924.33
956.625	3276.58
956.798	3591.97
956.972	3211.04
957.145	2803.5
957.319	3170.08
957.492	3059.49
957.665	3075.88
957.839	2744.11
958.012	3348.26
958.185	3147.56
958.359	2963.24
958.532	3172.13
958.705	3325.73
958.879	3249.96
959.052	2959.14
959.225	2717.48
959.398	3180.32
959.572	3147.56
959.745	2869.03
959.918	2787.11
960.091	3094.31
960.264	3262.24
960.438	2662.19
960.611	2656.04
960.784	3381.03
960.957	2889.51
961.13	3276.58
961.303	2780.97
961.476	2955.05
961.649	3219.24
961.822	2742.06
961.995	2848.55
962.168	3172.13
962.341	3051.3
962.514	2879.27
962.686	2832.17
962.859	2979.62
963.032	3194.66
963.205	2787.11
963.378	2715.44
963.551	3045.16
963.723	2938.66
963.896	2871.08
964.069	3104.55
964.242	2893.61
964.414	3168.04
964.587	2832.17
964.76	2850.6
964.932	3092.26
965.105	3122.98
965.278	2768.68
965.45	2692.91
965.623	2944.81
965.795	3159.85
965.968	2889.51
966.14	2758.44
966.313	2953
966.485	3049.25
966.658	2713.39
966.83	2772.78
967.003	3188.52
967.175	3217.19
967.348	2766.64
967.52	2688.81
967.692	3381.03
967.865	2918.18
968.037	2821.93
968.209	3059.49
968.382	2916.14
968.554	3090.21
968.726	2719.53
968.898	2862.89
969.071	3045.16
969.243	3004.2
969.415	2774.83
969.587	2832.17
969.759	3434.27
969.932	3090.21
970.104	2690.86
970.276	2471.73
970.448	2742.06
970.62	2764.59
970.792	2860.84
970.964	2729.77
971.136	3360.55
971.308	2946.86
971.48	2488.11
971.652	2471.73
971.824	3161.89
971.996	2705.2
972.168	2680.62
972.339	2697
972.511	2991.91
972.683	2651.95
972.855	2789.16
973.027	2641.71
973.199	2842.41
973.37	3028.78
973.542	2502.45
973.714	2674.48
973.886	2844.46
974.057	3016.49
974.229	2383.66
974.401	2410.29
974.572	2615.09
974.744	2256.69
974.915	2420.53
975.087	2533.17
975.259	2946.86
975.43	2598.7
975.602	2416.43
975.773	2400.05
975.945	2510.64
976.116	2916.14
976.288	2305.84
976.459	2735.92
976.63	2621.23
976.802	2707.24
976.973	2350.9
977.145	2598.7
977.316	3094.31
977.487	3039.01
977.659	2617.13
977.83	2520.88
978.001	3084.07
978.172	2662.19
978.344	2459.44
978.515	2455.34
978.686	2666.28
978.857	2987.82
979.028	2375.47
979.2	2326.32
979.371	2826.03
979.542	2660.14
979.713	2561.84
979.884	1931.06
980.055	2400.05
980.226	2520.88
980.397	2309.94
980.568	2279.22
980.739	2699.05
980.91	2590.51
981.081	2455.34
981.252	2215.73
981.423	2754.35
981.594	2864.94
981.765	2209.59
981.936	2406.19
982.106	2508.59
982.277	2864.94
982.448	2189.11
982.619	2475.82
982.79	2406.19
982.96	2752.3
983.131	2336.56
983.302	2033.46
983.472	2412.34
983.643	2567.98
983.814	2260.79
983.984	2215.73
984.155	2451.25
984.326	2608.94
984.496	2391.86
984.667	2199.35
984.837	2346.8
985.008	2821.93
985.178	2221.88
985.349	2176.82
985.519	2381.62
985.69	2291.51
985.86	2205.49
986.031	2088.76
986.201	2408.24
986.371	2422.58
986.542	2012.98
986.712	2002.74
986.882	2580.27
987.053	2590.51
987.223	2037.56
987.393	2318.13
987.563	2096.95
987.734	2479.92
987.904	2557.74
988.074	2082.61
988.244	2375.47
988.414	2193.2
988.585	2008.89
988.755	2193.2
988.925	2287.41
989.095	2803.5
989.265	2049.85
989.435	2094.9
989.605	2447.15
989.775	2524.97
989.945	2477.87
990.115	1861.43
990.285	2250.55
990.455	2340.66
990.625	2139.96
990.795	1892.15
990.965	2721.58
991.134	2088.76
991.304	2031.41
991.474	2006.84
991.644	2422.58
991.814	2465.58
991.984	1939.26
992.153	1955.64
992.323	2164.53
992.493	2199.35
992.662	1826.62
992.832	2111.29
993.002	2328.37
993.171	2381.62
993.341	1826.62
993.511	2062.13
993.68	1908.54
993.85	2445.1
994.019	1578.81
994.189	1857.34
994.358	2246.45
994.528	1963.83
994.697	1730.36
994.867	1816.38
995.036	2281.27
995.206	2144.05
995.375	1818.43
995.544	1920.82
995.714	2246.45
995.883	1939.26
996.052	2049.85
996.222	1662.78
996.391	2670.38
996.56	2055.99
996.73	1744.7
996.899	1713.98
997.068	2309.94
997.237	2021.17
997.406	1693.5
997.576	1554.24
997.745	2111.29
997.914	2193.2
998.083	1455.94
998.252	1697.6
998.421	1978.17
998.59	1906.49
998.759	1685.31
998.928	1490.75
999.097	2295.6
999.266	2170.68
999.435	2027.32
999.604	1519.42
999.773	2492.21
999.942	1933.11
1000.111	1529.66
1000.28	1476.41
1000.448	1689.4
1000.617	1660.73
1000.786	1799.99
1000.955	1554.24
1001.124	2047.8
1001.292	2586.41
1001.461	1552.19
1001.63	1533.76
1001.798	2197.3
1001.967	2191.16
1002.136	1316.67
1002.304	1486.65
1002.473	1976.12
1002.642	1900.34
1002.81	1457.98
1002.979	1476.41
1003.147	1924.92
1003.316	2332.47
1003.484	1550.14
1003.653	1406.78
1003.821	2180.92
1003.99	1853.24
1004.158	1652.54
1004.327	1599.29
1004.495	1937.21
1004.663	1664.83
1004.832	1627.96
1005	1259.33
1005.168	1877.82
1005.337	1840.95
1005.505	1304.39
1005.673	1619.77
1005.842	1912.63
1006.01	1791.8
1006.178	1353.54
1006.346	1310.53
1006.514	1871.67
1006.683	2039.61
1006.851	1414.98
1007.019	1216.32
1007.187	1509.18
1007.355	1316.67
1007.523	1189.7
1007.691	1378.11
1007.859	1406.78
1008.027	1888.06
1008.195	1351.49
1008.363	1072.96
1008.531	1939.26
1008.699	1490.75
1008.867	1140.55
1009.035	1419.07
1009.203	1976.12
1009.37	1734.46
1009.538	1314.63
1009.706	1793.85
1009.874	1582.91
1010.042	1525.57
1010.209	1177.41
1010.377	1222.47
1010.545	1857.34
1010.713	1607.48
1010.88	1236.8
1011.048	1296.19
1011.216	1474.37
1011.383	2010.93
1011.551	1251.14
1011.718	1181.51
1011.886	1713.98
1012.054	1472.32
1012.221	1171.27
1012.389	1173.32
1012.556	1531.71
1012.724	1937.21
1012.891	1324.87
1013.058	1058.63
1013.226	1695.55
1013.393	1822.52
1013.561	997.19
1013.728	968.52
1013.895	1582.91
1014.063	1791.8
1014.23	1122.12
1014.397	1095.49
1014.565	1742.65
1014.732	1417.02
1014.899	1060.68
1015.066	1048.39
1015.233	1556.29
1015.401	1595.2
1015.568	1036.1
1015.735	1222.47
1015.902	1476.41
1016.069	1449.79
1016.236	1163.08
1016.403	1068.87
1016.57	1197.89
1016.737	1652.54
1016.904	1111.88
1017.071	999.24
1017.238	1296.19
1017.405	1593.15
1017.572	1087.3
1017.739	1236.8
1017.906	1658.68
1018.073	1523.52
1018.24	794.44
1018.407	1120.07
1018.573	1650.49
1018.74	1390.4
1018.907	1075.01
1019.074	905.03
1019.241	1576.77
1019.407	1367.87
1019.574	909.13
1019.741	751.43
1019.907	1408.83
1020.074	1443.65
1020.241	661.32
1020.407	874.31
1020.574	1466.17
1020.74	1394.5
1020.907	880.46
1021.073	859.98
1021.24	1812.28
1021.406	1627.96
1021.573	853.83
1021.739	911.18
1021.906	1537.85
1022.072	1220.42
1022.239	911.18
1022.405	853.83
1022.571	1267.52
1022.738	1038.15
1022.904	776.01
1023.07	911.18
1023.237	1244.99
1023.403	1496.89
1023.569	966.47
1023.735	927.56
1023.902	1392.45
1024.068	1277.76
1024.234	800.59
1024.4	769.87
1024.566	1312.58
1024.732	1378.11
1024.898	685.9
1025.065	712.52
1025.231	1253.19
1025.397	1087.3
1025.563	786.25
1025.729	735.05
1025.895	788.3
1026.061	905.03
1026.227	563.02
1026.392	765.77
1026.558	1398.59
1026.724	1271.62
1026.89	792.39
1027.056	923.46
1027.222	1150.79
1027.388	989
1027.553	737.1
1027.719	665.42
1027.885	1535.81
1028.051	1226.56
1028.216	597.84
1028.382	665.42
1028.548	1216.32
1028.713	974.66
1028.879	603.98
1029.045	804.68
1029.21	1363.78
1029.376	1378.11
1029.541	808.78
1029.707	696.14
1029.873	1226.56
1030.038	1316.67
1030.204	698.19
1030.369	681.8
1030.534	1265.47
1030.7	878.41
1030.865	792.39
1031.031	614.22
1031.196	1177.41
1031.361	1027.91
1031.527	706.38
1031.692	487.25
1031.857	589.64
1032.023	1185.6
1032.188	507.73
1032.353	714.57
1032.518	1392.45
1032.684	986.95
1032.849	481.1
1033.014	628.56
1033.179	1140.55
1033.344	1083.2
1033.509	685.9
1033.674	591.69
1033.839	1226.56
1034.004	1103.68
1034.17	511.82
1034.335	452.43
1034.5	960.33
1034.664	788.3
1034.829	517.97
1034.994	628.56
1035.159	989
1035.324	1027.91
1035.489	597.84
1035.654	628.56
1035.819	1201.99
1035.984	1005.38
1036.148	530.25
1036.313	628.56
1036.478	1105.73
1036.643	919.37
1036.807	534.35
1036.972	456.53
1037.137	1197.89
1037.301	948.04
1037.466	317.26
1037.631	741.19
1037.795	1226.56
1037.96	935.75
1038.124	761.67
1038.289	307.02
1038.454	1015.62
1038.618	1013.57
1038.783	468.81
1038.947	649.04
1039.111	845.64
1039.276	780.11
1039.44	481.1
1039.605	919.37
1039.769	894.79
1039.933	788.3
1040.098	509.77
1040.262	677.71
1040.426	1058.63
1040.591	1029.96
1040.755	452.43
1040.919	431.95
1041.083	943.94
1041.248	751.43
1041.412	300.88
1041.576	503.63
1041.74	786.25
1041.904	1011.53
1042.068	446.29
1042.232	526.16
1042.397	1099.59
1042.561	982.85
1042.725	243.54
1042.889	575.31
1043.053	931.66
1043.217	964.42
1043.381	401.23
1043.544	218.96
1043.708	1040.2
1043.872	630.6
1044.036	249.68
1044.2	352.08
1044.364	1038.15
1044.528	1036.1
1044.691	3499.81
1044.855	233.3
1045.019	978.76
1045.183	755.53
1045.346	360.27
1045.51	364.37
1045.674	911.18
1045.837	939.85
1046.001	407.38
1046.165	378.7
1046.328	1316.67
1046.492	966.47
1046.655	624.46
1046.819	442.19
1046.983	581.45
1047.146	839.5
1047.31	409.42
1047.473	300.88
1047.636	655.18
1047.8	454.48
1047.963	300.88
1048.127	245.59
1048.29	563.02
