Data from Ink_Intensity_USB4F045381__36__00036.txt Node

Date: Mon Jul 17 09:50:39 EDT 2023
User: mmckonesweet
Spectrometer: USB4F04538
Trigger mode: 4
Integration Time (sec): 9.000000E-1
Scans to average: 1
Electric dark correction enabled: true
Nonlinearity correction enabled: false
Boxcar width: 0
XAxis mode: Wavelengths
Number of Pixels in Spectrum: 3648
>>>>>Begin Spectral Data<<<<<
345.52	-978.93
345.736	-978.93
345.952	-978.93
346.168	-993.26
346.384	-935.92
346.6	-96.25
346.816	-204.8
347.032	-233.47
347.248	309.24
347.464	-212.99
347.68	-83.97
347.896	32.77
348.112	354.3
348.328	-20.48
348.544	-65.54
348.76	-55.3
348.975	276.48
349.191	-196.61
349.407	-186.37
349.623	-65.54
349.839	-141.31
350.055	-206.84
350.27	69.63
350.486	49.15
350.702	344.06
350.918	77.82
351.133	-122.88
351.349	69.63
351.565	362.49
351.781	-176.13
351.996	61.44
352.212	313.34
352.428	-139.26
352.644	-210.94
352.859	-247.8
353.075	270.33
353.291	-26.62
353.506	-210.94
353.722	-206.84
353.938	-75.77
354.153	362.49
354.369	79.87
354.584	-165.89
354.8	325.63
355.016	-360.44
355.231	-227.32
355.447	-55.3
355.662	83.97
355.878	808.95
356.093	-360.44
356.309	14.34
356.524	-223.23
356.74	184.32
356.955	-190.46
357.171	-145.41
357.386	129.02
357.602	-309.24
357.817	-69.63
358.033	-215.04
358.248	307.2
358.464	100.35
358.679	-133.12
358.895	-364.54
359.11	-61.44
359.325	296.96
359.541	200.7
359.756	-49.15
359.972	-309.24
360.187	77.82
360.402	-133.12
360.618	-186.37
360.833	911.35
361.048	122.88
361.264	-233.47
361.479	-45.06
361.694	-45.06
361.909	118.78
362.125	-233.47
362.34	-155.65
362.555	188.41
362.77	18.43
362.986	-290.81
363.201	-219.13
363.416	167.93
363.631	-24.58
363.847	-215.04
364.062	-223.23
364.277	112.64
364.492	38.91
364.707	-167.93
364.922	-391.16
365.138	194.56
365.353	253.95
365.568	-245.76
365.783	-131.07
365.998	-2.05
366.213	466.94
366.428	-272.38
366.643	67.58
366.858	186.37
367.073	157.69
367.288	-188.41
367.503	-233.47
367.718	-24.58
367.933	278.52
368.148	-260.09
368.363	-83.97
368.578	-120.83
368.793	397.31
369.008	-190.46
369.223	-227.32
369.438	145.41
369.653	399.35
369.868	-247.8
370.083	-270.33
370.298	22.53
370.513	374.78
370.728	24.58
370.943	-190.46
371.157	-241.66
371.372	458.74
371.587	-335.87
371.802	-266.24
372.017	-32.77
372.232	348.15
372.446	-55.3
372.661	-237.56
372.876	167.93
373.091	110.59
373.306	-114.69
373.52	-296.96
373.735	-198.65
373.95	352.25
374.165	-190.46
374.379	-155.65
374.594	-151.55
374.809	110.59
375.023	6.14
375.238	-241.66
375.453	124.93
375.667	-307.2
375.882	-124.93
376.097	-188.41
376.311	4.1
376.526	-83.97
376.741	-274.43
376.955	55.3
377.17	548.86
377.384	501.75
377.599	-143.36
377.813	-280.57
378.028	575.48
378.242	110.59
378.457	-63.49
378.672	-415.74
378.886	149.5
379.101	-55.3
379.315	-376.83
379.53	-186.37
379.744	172.03
379.958	163.84
380.173	-141.31
380.387	-249.85
380.602	118.78
380.816	-147.45
381.031	-169.98
381.245	-180.22
381.459	237.56
381.674	2504.67
381.888	-208.89
382.103	30.72
382.317	-223.23
382.531	438.27
382.746	-77.82
382.96	-219.13
383.174	-182.27
383.388	305.15
383.603	14.34
383.817	-405.5
384.031	149.5
384.246	411.64
384.46	2.05
384.674	235.52
384.888	-65.54
385.103	-40.96
385.317	-215.04
385.531	-77.82
385.745	241.66
385.959	344.06
386.174	-186.37
386.388	-229.37
386.602	-75.77
386.816	-169.98
387.03	-192.51
387.244	-151.55
387.458	4.1
387.672	331.77
387.887	-284.67
388.101	-331.77
388.315	387.07
388.529	45.06
388.743	-182.27
388.957	-253.95
389.171	227.32
389.385	-188.41
389.599	-57.34
389.813	71.68
390.027	174.08
390.241	575.48
390.455	-153.6
390.669	-96.25
390.883	-75.77
391.097	333.82
391.311	8.19
391.525	-266.24
391.738	98.3
391.952	94.21
392.166	-22.53
392.38	-219.13
392.594	245.76
392.808	335.87
393.022	-133.12
393.236	-88.06
393.449	182.27
393.663	143.36
393.877	-200.7
394.091	-198.65
394.305	-6.14
394.518	-251.9
394.732	-301.05
394.946	-129.02
395.16	399.35
395.373	63.49
395.587	-229.37
395.801	-239.61
396.015	219.13
396.228	208.89
396.442	-202.75
396.656	-425.98
396.869	321.53
397.083	432.12
397.297	-79.87
397.51	-149.5
397.724	294.91
397.938	131.07
398.151	-344.06
398.365	-333.82
398.578	126.97
398.792	321.53
399.005	-4.1
399.219	-206.84
399.433	38.91
399.646	116.73
399.86	30.72
400.073	-77.82
400.287	194.56
400.5	-81.92
400.714	-83.97
400.927	-49.15
401.141	126.97
401.354	993.26
401.567	180.22
401.781	-280.57
401.994	202.75
402.208	524.28
402.421	-184.32
402.635	-122.88
402.848	-38.91
403.061	249.85
403.275	-69.63
403.488	-243.71
403.701	409.59
403.915	290.81
404.128	-26.62
404.341	-122.88
404.555	53.25
404.768	24.58
404.981	-22.53
405.195	-219.13
405.408	473.08
405.621	178.17
405.834	22.53
406.048	-241.66
406.261	333.82
406.474	432.12
406.687	-266.24
406.9	12.29
407.114	45.06
407.327	24.58
407.54	-292.86
407.753	-239.61
407.966	-253.95
408.179	231.42
408.392	-241.66
408.605	-317.44
408.819	126.97
409.032	145.41
409.245	-137.21
409.458	18.43
409.671	169.98
409.884	219.13
410.097	-296.96
410.31	-49.15
410.523	112.64
410.736	-36.86
410.949	-157.69
411.162	-88.06
411.375	442.36
411.588	327.67
411.801	24.58
412.014	-225.28
412.227	-57.34
412.44	-129.02
412.653	-229.37
412.865	-51.2
413.078	190.46
413.291	108.54
413.504	-145.41
413.717	-235.52
413.93	239.61
414.143	-194.56
414.356	-110.59
414.568	-385.02
414.781	149.5
414.994	10.24
415.207	-49.15
415.42	-114.69
415.632	264.19
415.845	387.07
416.058	-352.25
416.271	-284.67
416.483	2.05
416.696	462.84
416.909	-147.45
417.121	-223.23
417.334	157.69
417.547	487.42
417.759	-206.84
417.972	-208.89
418.185	-106.49
418.397	200.7
418.61	-227.32
418.823	-159.74
419.035	342.01
419.248	-47.1
419.46	-34.82
419.673	-102.4
419.885	202.75
420.098	12.29
420.311	-172.03
420.523	-409.59
420.736	102.4
420.948	-16.38
421.161	-204.8
421.373	-374.78
421.586	98.3
421.798	-126.97
422.01	-385.02
422.223	-79.87
422.435	-98.3
422.648	116.73
422.86	-63.49
423.073	-165.89
423.285	372.73
423.497	-288.76
423.71	-210.94
423.922	-284.67
424.134	47.1
424.347	317.44
424.559	34.82
424.771	145.41
424.984	-114.69
425.196	67.58
425.408	-346.11
425.621	-198.65
425.833	200.7
426.045	296.96
426.257	-280.57
426.47	-223.23
426.682	141.31
426.894	149.5
427.106	-163.84
427.318	-167.93
427.531	-161.79
427.743	131.07
427.955	-182.27
428.167	196.61
428.379	147.45
428.591	-65.54
428.804	-79.87
429.016	-286.72
429.228	-94.21
429.44	186.37
429.652	18.43
429.864	-366.59
430.076	-30.72
430.288	-126.97
430.5	-55.3
430.712	-194.56
430.924	202.75
431.136	65.53
431.348	-405.5
431.56	-253.95
431.772	-104.45
431.984	-98.3
432.196	-245.76
432.408	-186.37
432.62	-135.17
432.832	45.06
433.044	69.63
433.256	-129.02
433.468	116.73
433.679	-329.72
433.891	-311.29
434.103	28.67
434.315	274.43
434.527	73.73
434.739	-114.69
434.95	-231.42
435.162	249.85
435.374	-122.88
435.586	-137.21
435.798	-219.13
436.009	-294.91
436.221	26.62
436.433	-229.37
436.645	-139.26
436.856	-141.31
437.068	288.76
437.28	-233.47
437.491	34.82
437.703	126.97
437.915	98.3
438.126	-116.73
438.338	143.36
438.55	-36.86
438.761	159.74
438.973	-149.5
439.184	-133.12
439.396	63.49
439.608	184.32
439.819	-258.04
440.031	-135.17
440.242	210.94
440.454	194.56
440.665	-100.35
440.877	-116.73
441.088	79.87
441.3	-34.82
441.511	-288.76
441.723	-221.18
441.934	53.25
442.146	18.43
442.357	-55.3
442.569	102.4
442.78	20.48
442.991	430.07
443.203	63.49
443.414	-272.38
443.626	335.87
443.837	-159.74
444.048	-212.99
444.26	-407.55
444.471	22.53
444.682	237.56
444.894	-317.44
445.105	-389.11
445.316	241.66
445.528	81.92
445.739	-83.97
445.95	-202.75
446.161	57.34
446.373	200.7
446.584	-188.41
446.795	-204.8
447.006	67.58
447.217	509.94
447.429	-321.53
447.64	-309.24
447.851	204.8
448.062	26.62
448.273	-376.83
448.484	-264.19
448.695	77.82
448.907	-88.06
449.118	-114.69
449.329	-18.43
449.54	-67.58
449.751	-260.09
449.962	-196.61
450.173	-225.28
450.384	288.76
450.595	339.96
450.806	-212.99
451.017	-239.61
451.228	280.57
451.439	167.93
451.65	-92.16
451.861	-376.83
452.072	-245.76
452.283	86.01
452.494	-61.44
452.705	-151.55
452.915	315.39
453.126	18.43
453.337	-190.46
453.548	-303.1
453.759	137.21
453.97	421.88
454.181	-34.82
454.391	-227.32
454.602	-18.43
454.813	159.74
455.024	-110.59
455.235	-219.13
455.445	-32.77
455.656	36.86
455.867	-8.19
456.078	-219.13
456.288	-32.77
456.499	-16.38
456.71	-296.96
456.921	-14.34
457.131	61.44
457.342	55.3
457.553	-112.64
457.763	-233.47
457.974	98.3
458.184	90.11
458.395	-282.62
458.606	-401.4
458.816	321.53
459.027	395.26
459.237	-81.92
459.448	-385.02
459.659	305.15
459.869	430.07
460.08	-346.11
460.29	-67.58
460.501	495.61
460.711	-149.5
460.922	-395.26
461.132	-208.89
461.343	653.3
461.553	-241.66
461.764	-301.05
461.974	-159.74
462.184	73.73
462.395	20.48
462.605	-235.52
462.816	-272.38
463.026	67.58
463.236	235.52
463.447	-237.56
463.657	-311.29
463.867	145.41
464.078	-73.73
464.288	-194.56
464.498	-247.8
464.709	-34.82
464.919	-106.49
465.129	-98.3
465.339	-329.72
465.55	90.11
465.76	192.51
465.97	-251.9
466.18	-233.47
466.391	141.31
466.601	53.25
466.811	-61.44
467.021	-301.05
467.231	22.53
467.441	317.44
467.651	-231.42
467.862	-413.69
468.072	-63.49
468.282	245.76
468.492	-270.33
468.702	-227.32
468.912	0
469.122	411.64
469.332	122.88
469.542	-256
469.752	157.69
469.962	47.1
470.172	-282.62
470.382	-286.72
470.592	71.68
470.802	321.53
471.012	-104.45
471.222	-278.52
471.432	239.61
471.642	165.89
471.852	-176.13
472.062	-237.56
472.272	-137.21
472.482	-249.85
472.691	-305.15
472.901	-387.07
473.111	65.53
473.321	563.19
473.531	-368.63
473.741	-71.68
473.95	26.62
474.16	129.02
474.37	-180.22
474.58	-421.88
474.79	468.98
474.999	241.66
475.209	-319.48
475.419	-196.61
475.628	-73.73
475.838	169.98
476.048	-159.74
476.258	-403.45
476.467	202.75
476.677	-167.93
476.886	49.15
477.096	-118.78
477.306	-231.42
477.515	333.82
477.725	-133.12
477.935	-63.49
478.144	376.83
478.354	-108.54
478.563	-225.28
478.773	-280.57
478.982	122.88
479.192	346.11
479.401	-167.93
479.611	-264.19
479.82	-190.46
480.03	108.54
480.239	-292.86
480.449	-342.01
480.658	415.74
480.868	-79.87
481.077	-122.88
481.287	-153.6
481.496	124.93
481.705	266.24
481.915	20.48
482.124	28.67
482.333	143.36
482.543	284.67
482.752	-124.93
482.961	-245.76
483.171	182.27
483.38	-59.39
483.589	-32.77
483.799	-311.29
484.008	-36.86
484.217	245.76
484.426	-172.03
484.636	-321.53
484.845	43.01
485.054	-327.68
485.263	14.34
485.472	-215.04
485.682	403.45
485.891	47.1
486.1	-436.22
486.309	-344.06
486.518	131.07
486.727	350.2
486.936	-233.47
487.146	-151.55
487.355	323.58
487.564	-169.98
487.773	-227.32
487.982	-135.17
488.191	-65.54
488.4	73.73
488.609	-299
488.818	-225.28
489.027	520.18
489.236	299
489.445	-174.08
489.654	-350.2
489.863	178.17
490.072	-8.19
490.281	51.2
490.49	-219.13
490.698	325.63
490.907	313.34
491.116	-114.69
491.325	-309.24
491.534	358.39
491.743	38.91
491.952	-151.55
492.16	-106.49
492.369	79.87
492.578	288.76
492.787	-86.01
492.996	-79.87
493.204	-83.97
493.413	411.64
493.622	-356.35
493.831	-434.17
494.039	344.06
494.248	-227.32
494.457	-215.04
494.665	-321.53
494.874	108.54
495.083	516.09
495.291	-172.03
495.5	-245.76
495.709	178.17
495.917	75.77
496.126	-126.97
496.335	-247.8
496.543	38.91
496.752	149.5
496.96	-14.34
497.169	-387.07
497.377	-2.05
497.586	215.04
497.794	-135.17
498.003	-440.31
498.211	-6.14
498.42	423.93
498.628	-141.31
498.837	-284.67
499.045	98.3
499.254	57.34
499.462	-245.76
499.671	-245.76
499.879	309.24
500.087	227.32
500.296	-266.24
500.504	-262.14
500.713	69.63
500.921	575.48
501.129	-239.61
501.338	-210.94
501.546	34.82
501.754	16.38
501.962	-245.76
502.171	-309.24
502.379	12.29
502.587	460.79
502.795	-153.6
503.004	-155.65
503.212	75.77
503.42	270.33
503.628	-182.27
503.837	-102.4
504.045	284.67
504.253	430.07
504.461	-174.08
504.669	-321.53
504.877	151.55
505.085	374.78
505.294	-288.76
505.502	-120.83
505.71	83.97
505.918	182.27
506.126	-321.53
506.334	-202.75
506.542	-22.53
506.75	102.4
506.958	-47.1
507.166	-202.75
507.374	-79.87
507.582	462.84
507.79	-137.21
507.998	-264.19
508.206	92.16
508.414	149.5
508.622	-114.69
508.83	-149.5
509.037	376.83
509.245	-34.82
509.453	-266.24
509.661	-301.05
509.869	272.38
510.077	-57.34
510.285	-75.77
510.492	-444.41
510.7	557.05
510.908	-135.17
511.116	-247.8
511.324	-192.51
511.531	-124.93
511.739	61.44
511.947	-51.2
512.155	30.72
512.362	59.39
512.57	-251.9
512.778	-178.17
512.985	-372.73
513.193	294.91
513.401	344.06
513.608	-102.4
513.816	-190.46
514.024	98.3
514.231	309.24
514.439	-206.84
514.646	-157.69
514.854	245.76
515.061	290.81
515.269	-223.23
515.477	-299
515.684	-141.31
515.892	221.18
516.099	-358.39
516.307	-311.29
516.514	229.37
516.722	311.29
516.929	-251.9
517.136	-325.63
517.344	376.83
517.551	53.25
517.759	-223.23
517.966	-151.55
518.173	-110.59
518.381	86.01
518.588	-169.98
518.796	-278.52
519.003	210.94
519.21	61.44
519.418	-258.04
519.625	57.34
519.832	79.87
520.039	139.26
520.247	-311.29
520.454	-270.33
520.661	270.33
520.868	98.3
521.076	-202.75
521.283	-122.88
521.49	686.07
521.697	69.63
521.904	-153.6
522.112	-137.21
522.319	247.8
522.526	108.54
522.733	-227.32
522.94	-276.48
523.147	-20.48
523.354	194.56
523.561	-329.72
523.768	-137.21
523.975	305.15
524.183	55.3
524.39	-202.75
524.597	-286.72
524.804	88.06
525.011	-108.54
525.218	-223.23
525.425	-186.37
525.632	354.3
525.838	-129.02
526.045	-210.94
526.252	-299
526.459	1081.33
526.666	735.22
526.873	-243.71
527.08	-172.03
527.287	325.63
527.494	241.66
527.701	-299
527.907	-251.9
528.114	169.98
528.321	65.53
528.528	-188.41
528.735	-223.23
528.941	-122.88
529.148	-4.1
529.355	-106.49
529.562	-223.23
529.768	399.35
529.975	-110.59
530.182	-157.69
530.388	-288.76
530.595	276.48
530.802	-167.93
531.008	-49.15
531.215	-133.12
531.422	702.45
531.628	804.85
531.835	-135.17
532.042	-122.88
532.248	-22.53
532.455	129.02
532.661	-114.69
532.868	-225.28
533.074	165.89
533.281	233.47
533.487	-32.77
533.694	-215.04
533.9	-223.23
534.107	305.15
534.313	-176.13
534.52	-194.56
534.726	317.44
534.933	477.18
535.139	-258.04
535.345	-264.19
535.552	30.72
535.758	108.54
535.965	-169.98
536.171	-256
536.377	184.32
536.584	327.67
536.79	-165.89
536.996	-200.7
537.203	104.45
537.409	137.21
537.615	-202.75
537.821	55.3
538.028	307.2
538.234	241.66
538.44	-165.89
538.646	-110.59
538.853	176.13
539.059	12.29
539.265	227.32
539.471	-417.79
539.677	301.05
539.883	-137.21
540.09	-196.61
540.296	219.13
540.502	-12.29
540.708	-69.63
540.914	-38.91
541.12	-258.04
541.326	299
541.532	14.34
541.738	-38.91
541.944	-86.01
542.15	282.62
542.356	-53.25
542.562	-245.76
542.768	-30.72
542.974	733.17
543.18	460.79
543.386	-75.77
543.592	-313.34
543.798	362.49
544.004	325.63
544.21	-258.04
544.415	-129.02
544.621	6.14
544.827	251.9
545.033	-239.61
545.239	-40.96
545.445	-133.12
545.651	137.21
545.856	-169.98
546.062	-196.61
546.268	-69.63
546.474	120.83
546.679	-141.31
546.885	-98.3
547.091	-81.92
547.297	620.53
547.502	-92.16
547.708	-278.52
547.914	-114.69
548.119	184.32
548.325	-272.38
548.531	-251.9
548.736	444.41
548.942	-16.38
549.147	-159.74
549.353	28.67
549.559	393.21
549.764	135.17
549.97	-143.36
550.175	-167.93
550.381	272.38
550.586	-22.53
550.792	-135.17
550.997	-43.01
551.203	253.95
551.408	227.32
551.614	-194.56
551.819	-151.55
552.025	354.3
552.23	546.81
552.435	-249.85
552.641	-18.43
552.846	-133.12
553.052	366.59
553.257	-133.12
553.462	-96.25
553.668	-169.98
553.873	296.96
554.078	-180.22
554.283	-204.8
554.489	108.54
554.694	32.77
554.899	-243.71
555.105	-28.67
555.31	161.79
555.515	350.2
555.72	-147.45
555.925	-288.76
556.131	186.37
556.336	-86.01
556.541	-219.13
556.746	-294.91
556.951	342.01
557.156	548.86
557.361	-57.34
557.567	-55.3
557.772	583.67
557.977	264.19
558.182	-153.6
558.387	-161.79
558.592	-34.82
558.797	479.22
559.002	-65.54
559.207	-30.72
559.412	55.3
559.617	622.58
559.822	-153.6
560.027	-102.4
560.232	178.17
560.437	266.24
560.642	-331.77
560.847	-147.45
561.051	43.01
561.256	116.73
561.461	-114.69
561.666	-219.13
561.871	190.46
562.076	253.95
562.281	-221.18
562.485	-217.08
562.69	147.45
562.895	329.72
563.1	-143.36
563.305	-200.7
563.509	417.79
563.714	696.31
563.919	-200.7
564.123	-194.56
564.328	88.06
564.533	370.68
564.737	-51.2
564.942	-131.07
565.147	524.28
565.351	552.95
565.556	30.72
565.761	-18.43
565.965	256
566.17	-65.54
566.374	-122.88
566.579	-243.71
566.784	169.98
566.988	4.1
567.193	-313.34
567.397	-227.32
567.602	-260.09
567.806	69.63
568.011	-83.97
568.215	-110.59
568.42	67.58
568.624	120.83
568.828	-137.21
569.033	30.72
569.237	192.51
569.442	176.13
569.646	-327.68
569.85	-116.73
570.055	61.44
570.259	266.24
570.463	51.2
570.668	-59.39
570.872	6.14
571.076	92.16
571.281	-16.38
571.485	-10.24
571.689	194.56
571.893	342.01
572.098	34.82
572.302	-98.3
572.506	200.7
572.71	112.64
572.914	-61.44
573.119	-149.5
573.323	403.45
573.527	393.21
573.731	-18.43
573.935	-122.88
574.139	157.69
574.343	38.91
574.547	-137.21
574.751	-28.67
574.955	411.64
575.159	518.14
575.364	-133.12
575.568	-169.98
575.772	110.59
575.976	393.21
576.18	-149.5
576.383	-217.08
576.587	313.34
576.791	258.04
576.995	-231.42
577.199	-319.48
577.403	321.53
577.607	444.41
577.811	-143.36
578.015	-12.29
578.219	174.08
578.422	260.09
578.626	-4.1
578.83	75.77
579.034	276.48
579.238	229.37
579.442	-137.21
579.645	253.95
579.849	131.07
580.053	149.5
580.257	-28.67
580.46	2.05
580.664	329.72
580.868	294.91
581.071	143.36
581.275	14.34
581.479	-118.78
581.682	362.49
581.886	-174.08
582.09	6.14
582.293	253.95
582.497	282.62
582.7	88.06
582.904	-184.32
583.107	118.78
583.311	59.39
583.515	-34.82
583.718	49.15
583.922	323.58
584.125	608.25
584.329	-180.22
584.532	83.97
584.735	440.31
584.939	290.81
585.142	-219.13
585.346	-139.26
585.549	350.2
585.753	26.62
585.956	14.34
586.159	2.05
586.363	540.66
586.566	296.96
586.769	-182.27
586.973	-137.21
587.176	309.24
587.379	419.83
587.582	243.71
587.786	88.06
587.989	92.16
588.192	710.65
588.395	-4.1
588.599	186.37
588.802	280.57
589.005	301.05
589.208	-131.07
589.411	34.82
589.615	417.79
589.818	518.14
590.021	212.99
590.224	59.39
590.427	325.63
590.63	364.54
590.833	-258.04
591.036	-157.69
591.239	92.16
591.442	100.35
591.645	143.36
591.848	-2.05
592.051	239.61
592.254	425.98
592.457	-45.06
592.66	47.1
592.863	104.45
593.066	262.14
593.269	-34.82
593.472	40.96
593.675	-51.2
593.878	452.6
594.081	75.77
594.284	-124.93
594.486	370.68
594.689	165.89
594.892	118.78
595.095	30.72
595.298	301.05
595.5	212.99
595.703	43.01
595.906	90.11
596.109	528.38
596.311	432.12
596.514	-270.33
596.717	18.43
596.92	507.9
597.122	307.2
597.325	-153.6
597.528	-102.4
597.73	446.46
597.933	157.69
598.136	-28.67
598.338	-278.52
598.541	413.69
598.743	475.13
598.946	-49.15
599.148	49.15
599.351	403.45
599.554	346.11
599.756	133.12
599.959	-26.62
600.161	450.55
600.363	741.36
600.566	180.22
600.768	30.72
600.971	598.01
601.173	411.64
601.376	-26.62
601.578	12.29
601.78	358.39
601.983	706.55
602.185	-43.01
602.388	188.41
602.59	378.87
602.792	243.71
602.995	202.75
603.197	-20.48
603.399	518.14
603.601	288.76
603.804	75.77
604.006	-18.43
604.208	139.26
604.41	-116.73
604.613	167.93
604.815	10.24
605.017	735.22
605.219	8.19
605.421	325.63
605.623	-51.2
605.826	536.57
606.028	497.66
606.23	24.58
606.432	8.19
606.634	595.96
606.836	583.67
607.038	-100.35
607.24	276.48
607.442	247.8
607.644	219.13
607.846	118.78
608.048	-6.14
608.25	565.24
608.452	135.17
608.654	-30.72
608.856	-253.95
609.058	229.37
609.26	292.86
609.462	153.6
609.664	55.3
609.866	786.42
610.067	468.98
610.269	198.65
610.471	122.88
610.673	112.64
610.875	450.55
611.077	-153.6
611.278	231.42
611.48	337.91
611.682	690.17
611.884	149.5
612.085	38.91
612.287	28.67
612.489	325.63
612.69	-112.64
612.892	73.73
613.094	462.84
613.295	397.31
613.497	-106.49
613.699	61.44
613.9	579.58
614.102	485.37
614.304	81.92
614.505	-157.69
614.707	305.15
614.908	276.48
615.11	-106.49
615.311	61.44
615.513	477.18
615.714	409.59
615.916	-96.25
616.117	145.41
616.319	258.04
616.52	374.78
616.722	0
616.923	8.19
617.124	557.05
617.326	299
617.527	92.16
617.729	296.96
617.93	428.03
618.131	464.89
618.333	-14.34
618.534	186.37
618.735	149.5
618.937	587.77
619.138	-86.01
619.339	-10.24
619.54	346.11
619.742	174.08
619.943	239.61
620.144	137.21
620.345	471.03
620.546	528.38
620.748	0
620.949	45.06
621.15	344.06
621.351	311.29
621.552	67.58
621.753	-102.4
621.954	-34.82
622.155	757.75
622.356	83.97
622.558	325.63
622.759	348.15
622.96	757.75
623.161	90.11
623.362	4.1
623.563	354.3
623.764	362.49
623.965	118.78
624.166	286.72
624.366	325.63
624.567	319.48
624.768	-258.04
624.969	65.53
625.17	200.7
625.371	481.27
625.572	122.88
625.773	18.43
625.973	514.04
626.174	509.94
626.375	147.45
626.576	190.46
626.777	526.33
626.977	790.52
627.178	69.63
627.379	188.41
627.58	315.39
627.78	272.38
627.981	198.65
628.182	210.94
628.382	610.29
628.583	24.58
628.784	-104.45
628.984	231.42
629.185	509.94
629.386	440.31
629.586	96.25
629.787	-83.97
629.987	497.66
630.188	272.38
630.388	147.45
630.589	106.49
630.79	929.78
630.99	282.62
631.191	167.93
631.391	190.46
631.591	550.9
631.792	772.08
631.992	256
632.193	153.6
632.393	794.61
632.594	301.05
632.794	92.16
632.994	286.72
633.195	313.34
633.395	370.68
633.595	59.39
633.796	364.54
633.996	233.47
634.196	636.92
634.397	-24.58
634.597	235.52
634.797	163.84
634.997	614.39
635.198	405.5
635.398	-22.53
635.598	362.49
635.798	679.93
635.998	534.52
636.199	18.43
636.399	96.25
636.599	172.03
636.799	157.69
636.999	327.67
637.199	442.36
637.399	526.33
637.599	100.35
637.799	253.95
637.999	184.32
638.199	657.4
638.399	118.78
638.599	92.16
638.799	501.75
638.999	813.04
639.199	243.71
639.399	223.23
639.599	667.64
639.799	133.12
639.999	104.45
640.199	43.01
640.399	446.46
640.599	423.93
640.799	225.28
640.998	399.35
641.198	649.21
641.398	376.83
641.598	329.72
641.798	137.21
641.997	1198.06
642.197	307.2
642.397	223.23
642.597	94.21
642.796	552.95
642.996	743.41
643.196	385.02
643.395	92.16
643.595	552.95
643.795	-20.48
643.994	180.22
644.194	174.08
644.394	559.1
644.593	544.76
644.793	24.58
644.992	282.62
645.192	497.66
645.392	86.01
645.591	282.62
645.791	208.89
645.99	520.18
646.19	382.97
646.389	239.61
646.589	202.75
646.788	544.76
646.987	507.9
647.187	370.68
647.386	333.82
647.586	405.5
647.785	604.15
647.984	176.13
648.184	208.89
648.383	290.81
648.582	327.67
648.782	280.57
648.981	307.2
649.18	249.85
649.38	417.79
649.579	196.61
649.778	153.6
649.977	446.46
650.177	460.79
650.376	135.17
650.575	208.89
650.774	757.75
650.973	198.65
651.173	-10.24
651.372	221.18
651.571	438.27
651.77	622.58
651.969	69.63
652.168	290.81
652.367	174.08
652.566	370.68
652.765	135.17
652.964	423.93
653.163	870.39
653.362	403.45
653.561	249.85
653.76	241.66
653.959	360.44
654.158	612.34
654.357	385.02
654.556	245.76
654.755	514.04
654.954	622.58
655.153	276.48
655.352	249.85
655.551	759.8
655.749	354.3
655.948	307.2
656.147	260.09
656.346	600.05
656.545	395.26
656.743	403.45
656.942	223.23
657.141	413.69
657.34	210.94
657.538	296.96
657.737	188.41
657.936	348.15
658.135	614.39
658.333	219.13
658.532	397.31
658.731	884.72
658.929	608.25
659.128	624.63
659.326	180.22
659.525	737.27
659.724	446.46
659.922	-32.77
660.121	124.93
660.319	575.48
660.518	391.16
660.716	178.17
660.915	188.41
661.113	780.28
661.312	141.31
661.51	354.3
661.709	143.36
661.907	575.48
662.105	786.42
662.304	245.76
662.502	301.05
662.701	815.09
662.899	303.1
663.097	569.34
663.296	67.58
663.494	698.36
663.692	821.24
663.891	141.31
664.089	190.46
664.287	524.28
664.485	796.66
664.684	174.08
664.882	309.24
665.08	438.27
665.278	425.98
665.476	112.64
665.675	552.95
665.873	899.06
666.071	686.07
666.269	243.71
666.467	511.99
666.665	458.74
666.863	407.55
667.061	524.28
667.259	167.93
667.457	485.37
667.655	536.57
667.853	159.74
668.051	374.78
668.249	329.72
668.447	585.72
668.645	153.6
668.843	495.61
669.041	561.14
669.239	428.03
669.437	356.35
669.635	409.59
669.833	370.68
670.031	636.92
670.229	339.96
670.426	337.91
670.624	364.54
670.822	333.82
671.02	198.65
671.218	368.63
671.415	333.82
671.613	565.24
671.811	438.27
672.009	325.63
672.206	587.77
672.404	485.37
672.602	407.55
672.799	468.98
672.997	565.24
673.195	813.04
673.392	407.55
673.59	194.56
673.788	667.64
673.985	112.64
674.183	425.98
674.38	309.24
674.578	692.21
674.775	382.97
674.973	200.7
675.17	241.66
675.368	923.63
675.565	710.65
675.763	333.82
675.96	262.14
676.158	643.06
676.355	454.65
676.553	323.58
676.75	282.62
676.947	509.94
677.145	411.64
677.342	399.35
677.539	366.59
677.737	462.84
677.934	1071.09
678.131	518.14
678.329	339.96
678.526	847.86
678.723	712.69
678.92	335.87
679.118	270.33
679.315	366.59
679.512	767.99
679.709	286.72
679.906	374.78
680.104	741.36
680.301	630.77
680.498	247.8
680.695	178.17
680.892	307.2
681.089	356.35
681.286	405.5
681.483	182.27
681.68	679.93
681.877	681.97
682.075	309.24
682.272	507.9
682.469	604.15
682.665	403.45
682.862	212.99
683.059	59.39
683.256	526.33
683.453	552.95
683.65	477.18
683.847	311.29
684.044	544.76
684.241	180.22
684.438	518.14
684.635	182.27
684.831	878.58
685.028	1066.99
685.225	294.91
685.422	432.12
685.619	524.28
685.815	503.8
686.012	378.87
686.209	409.59
686.405	272.38
686.602	765.94
686.799	258.04
686.996	256
687.192	370.68
687.389	1058.8
687.586	337.91
687.782	382.97
687.979	778.23
688.175	722.93
688.372	423.93
688.568	241.66
688.765	362.49
688.962	796.66
689.158	514.04
689.355	169.98
689.551	718.84
689.748	323.58
689.944	387.07
690.14	178.17
690.337	772.08
690.533	378.87
690.73	555
690.926	395.26
691.123	731.12
691.319	626.68
691.515	210.94
691.712	481.27
691.908	772.08
692.104	542.71
692.301	518.14
692.497	256
692.693	733.17
692.889	792.56
693.086	452.6
693.282	90.11
693.478	583.67
693.674	868.34
693.87	284.67
694.067	190.46
694.263	602.1
694.459	503.8
694.655	425.98
694.851	405.5
695.047	591.86
695.243	641.01
695.439	495.61
695.635	253.95
695.831	749.56
696.027	589.82
696.224	366.59
696.42	632.82
696.615	876.53
696.811	686.07
697.007	253.95
697.203	221.18
697.399	731.12
697.595	866.29
697.791	317.44
697.987	518.14
698.183	264.19
698.379	452.6
698.575	296.96
698.77	354.3
698.966	790.52
699.162	735.22
699.358	468.98
699.554	382.97
699.749	770.04
699.945	811
700.141	425.98
700.337	493.56
700.532	491.51
700.728	313.34
700.924	272.38
701.119	292.86
701.315	677.88
701.511	452.6
701.706	403.45
701.902	194.56
702.097	481.27
702.293	659.45
702.489	362.49
702.684	442.36
702.88	483.32
703.075	509.94
703.271	391.16
703.466	321.53
703.662	546.81
703.857	751.6
704.053	327.67
704.248	374.78
704.443	634.87
704.639	782.32
704.834	491.51
705.03	391.16
705.225	786.42
705.42	784.37
705.616	505.85
705.811	282.62
706.006	448.51
706.202	444.41
706.397	450.55
706.592	247.8
706.787	600.05
706.983	622.58
707.178	681.97
707.373	368.63
707.568	808.95
707.763	821.24
707.959	370.68
708.154	339.96
708.349	669.69
708.544	655.35
708.739	595.96
708.934	307.2
709.129	700.41
709.324	804.85
709.519	296.96
709.714	258.04
709.909	786.42
710.104	618.49
710.299	319.48
710.494	460.79
710.689	745.46
710.884	555
711.079	483.32
711.274	647.16
711.469	708.6
711.664	634.87
711.859	315.39
712.054	511.99
712.249	788.47
712.443	911.35
712.638	186.37
712.833	225.28
713.028	559.1
713.223	546.81
713.417	737.27
713.612	339.96
713.807	688.12
714.002	1214.45
714.196	583.67
714.391	292.86
714.586	813.04
714.78	432.12
714.975	348.15
715.17	352.25
715.364	475.13
715.559	802.8
715.754	200.7
715.948	317.44
716.143	1026.03
716.337	665.59
716.532	600.05
716.726	403.45
716.921	755.7
717.115	1036.27
717.31	268.28
717.504	903.15
717.699	518.14
717.893	765.94
718.088	301.05
718.282	284.67
718.476	608.25
718.671	733.17
718.865	454.65
719.059	317.44
719.254	585.72
719.448	970.74
719.642	1667.05
719.837	208.89
720.031	804.85
720.225	862.19
720.419	485.37
720.614	438.27
720.808	837.62
721.002	540.66
721.196	387.07
721.39	380.92
721.585	952.31
721.779	659.45
721.973	380.92
722.167	194.56
722.361	700.41
722.555	921.59
722.749	350.2
722.943	446.46
723.137	385.02
723.331	677.88
723.525	337.91
723.719	348.15
723.913	798.71
724.107	927.73
724.301	325.63
724.495	514.04
724.689	1019.89
724.883	964.59
725.077	417.79
725.271	356.35
725.465	903.15
725.659	651.25
725.853	505.85
726.046	251.9
726.24	450.55
726.434	835.57
726.628	413.69
726.822	358.39
727.015	868.34
727.209	944.11
727.403	370.68
727.596	221.18
727.79	903.15
727.984	874.48
728.177	364.54
728.371	454.65
728.565	843.76
728.758	401.4
728.952	292.86
729.146	305.15
729.339	866.29
729.533	598.01
729.726	436.22
729.92	278.52
730.113	825.33
730.307	573.43
730.5	430.07
730.694	417.79
730.887	501.75
731.081	716.79
731.274	264.19
731.468	419.83
731.661	600.05
731.854	481.27
732.048	370.68
732.241	329.72
732.435	366.59
732.628	686.07
732.821	503.8
733.014	387.07
733.208	305.15
733.401	720.88
733.594	409.59
733.788	335.87
733.981	958.45
734.174	616.44
734.367	468.98
734.56	503.8
734.754	786.42
734.947	694.26
735.14	350.2
735.333	434.17
735.526	890.87
735.719	444.41
735.912	299
736.105	425.98
736.298	655.35
736.491	485.37
736.684	411.64
736.877	337.91
737.07	718.84
737.263	847.86
737.456	415.74
737.649	317.44
737.842	544.76
738.035	628.73
738.228	405.5
738.421	555
738.614	942.07
738.807	825.33
739	247.8
739.192	292.86
739.385	778.23
739.578	747.51
739.771	655.35
739.964	438.27
740.156	634.87
740.349	540.66
740.542	491.51
740.735	315.39
740.927	325.63
741.12	395.26
741.313	358.39
741.505	518.14
741.698	694.26
741.891	673.78
742.083	585.72
742.276	346.11
742.468	567.29
742.661	571.38
742.854	466.94
743.046	419.83
743.239	1023.98
743.431	466.94
743.624	526.33
743.816	264.19
744.009	550.9
744.201	749.56
744.393	573.43
744.586	315.39
744.778	968.69
744.971	593.91
745.163	475.13
745.355	477.18
745.548	684.02
745.74	522.23
745.932	505.85
746.125	407.55
746.317	1175.53
746.509	731.12
746.702	505.85
746.894	632.82
747.086	798.71
747.278	892.91
747.471	581.62
747.663	436.22
747.855	589.82
748.047	1054.7
748.239	294.91
748.431	354.3
748.623	985.07
748.815	1054.7
749.008	368.63
749.2	249.85
749.392	817.14
749.584	708.6
749.776	532.47
749.968	604.15
750.16	1128.43
750.352	727.03
750.544	505.85
750.736	294.91
750.928	694.26
751.12	634.87
751.311	495.61
751.503	511.99
751.695	819.19
751.887	649.21
752.079	212.99
752.271	358.39
752.463	1374.19
752.654	892.91
752.846	526.33
753.038	372.73
753.23	436.22
753.421	806.9
753.613	413.69
753.805	641.01
753.997	919.54
754.188	792.56
754.38	378.87
754.572	440.31
754.763	602.1
754.955	813.04
755.146	471.03
755.338	548.86
755.53	763.89
755.721	622.58
755.913	292.86
756.104	296.96
756.296	655.35
756.487	714.74
756.679	419.83
756.87	454.65
757.062	555
757.253	774.13
757.445	329.72
757.636	538.62
757.827	507.9
758.019	1216.49
758.21	417.79
758.401	401.4
758.593	1073.14
758.784	987.12
758.975	315.39
759.167	292.86
759.358	681.97
759.549	856.05
759.74	415.74
759.932	380.92
760.123	987.12
760.314	428.03
760.505	612.34
760.696	374.78
760.888	1112.05
761.079	573.43
761.27	382.97
761.461	260.09
761.652	940.02
761.843	569.34
762.034	370.68
762.225	720.88
762.416	534.52
762.607	657.4
762.798	385.02
762.989	366.59
763.18	1361.9
763.371	471.03
763.562	376.83
763.753	495.61
763.944	919.54
764.135	739.32
764.326	456.7
764.517	403.45
764.708	706.55
764.899	784.37
765.089	317.44
765.28	217.08
765.471	684.02
765.662	833.52
765.853	509.94
766.043	284.67
766.234	888.82
766.425	815.09
766.615	544.76
766.806	321.53
766.997	1003.5
767.187	839.67
767.378	411.64
767.569	305.15
767.759	833.52
767.95	694.26
768.141	573.43
768.331	331.77
768.522	565.24
768.712	829.43
768.903	366.59
769.093	317.44
769.284	1040.37
769.474	718.84
769.665	296.96
769.855	188.41
770.046	743.41
770.236	536.57
770.426	600.05
770.617	251.9
770.807	774.13
770.998	436.22
771.188	524.28
771.378	305.15
771.569	792.56
771.759	790.52
771.949	315.39
772.139	260.09
772.33	724.98
772.52	985.07
772.71	348.15
772.9	249.85
773.09	976.88
773.281	858.1
773.471	249.85
773.661	307.2
773.851	825.33
774.041	534.52
774.231	382.97
774.421	448.51
774.611	905.2
774.802	583.67
774.992	493.56
775.182	344.06
775.372	567.29
775.562	854
775.752	331.77
775.942	450.55
776.131	976.88
776.321	772.08
776.511	391.16
776.701	323.58
776.891	804.85
777.081	378.87
777.271	530.42
777.461	389.11
777.651	882.67
777.84	919.54
778.03	536.57
778.22	339.96
778.41	1009.65
778.599	378.87
778.789	444.41
778.979	290.81
779.169	663.54
779.358	591.86
779.548	679.93
779.738	258.04
779.927	759.8
780.117	346.11
780.307	419.83
780.496	100.35
780.686	667.64
780.875	1032.18
781.065	415.74
781.254	303.1
781.444	573.43
781.633	577.53
781.823	339.96
782.012	284.67
782.202	485.37
782.391	598.01
782.581	366.59
782.77	636.92
782.96	722.93
783.149	602.1
783.338	325.63
783.528	155.65
783.717	780.28
783.906	903.15
784.096	526.33
784.285	278.52
784.474	497.66
784.663	514.04
784.853	454.65
785.042	411.64
785.231	487.42
785.42	851.95
785.61	421.88
785.799	305.15
785.988	557.05
786.177	524.28
786.366	444.41
786.555	481.27
786.744	862.19
786.933	581.62
787.122	245.76
787.312	186.37
787.501	399.35
787.69	718.84
787.879	350.2
788.068	288.76
788.257	352.25
788.445	466.94
788.634	460.79
788.823	292.86
789.012	1302.51
789.201	759.8
789.39	462.84
789.579	397.31
789.768	653.3
789.957	616.44
790.145	350.2
790.334	45.06
790.523	495.61
790.712	569.34
790.9	475.13
791.089	194.56
791.278	845.81
791.467	624.63
791.655	606.2
791.844	823.28
792.033	374.78
792.221	616.44
792.41	366.59
792.599	260.09
792.787	811
792.976	735.22
793.164	350.2
793.353	319.48
793.541	765.94
793.73	702.45
793.918	458.74
794.107	481.27
794.295	624.63
794.484	542.71
794.672	417.79
794.861	360.44
795.049	598.01
795.238	962.55
795.426	229.37
795.614	393.21
795.803	714.74
795.991	940.02
796.179	368.63
796.368	409.59
796.556	878.58
796.744	389.11
796.932	323.58
797.121	380.92
797.309	495.61
797.497	731.12
797.685	399.35
797.874	333.82
798.062	454.65
798.25	870.39
798.438	243.71
798.626	323.58
798.814	696.31
799.002	1140.72
799.19	589.82
799.378	499.7
799.566	858.1
799.755	931.83
799.943	548.86
800.131	264.19
800.318	628.73
800.506	741.36
800.694	378.87
800.882	483.32
801.07	864.24
801.258	530.42
801.446	342.01
801.634	466.94
801.822	593.91
802.01	600.05
802.197	313.34
802.385	507.9
802.573	622.58
802.761	405.5
802.949	395.26
803.136	229.37
803.324	813.04
803.512	569.34
803.699	493.56
803.887	151.55
804.075	978.93
804.262	448.51
804.45	182.27
804.638	448.51
804.825	440.31
805.013	444.41
805.201	423.93
805.388	251.9
805.576	585.72
805.763	991.22
805.951	423.93
806.138	591.86
806.326	1005.55
806.513	845.81
806.701	464.89
806.888	292.86
807.075	712.69
807.263	1052.66
807.45	294.91
807.638	466.94
807.825	1015.79
808.012	892.91
808.2	503.8
808.387	714.74
808.574	724.98
808.761	946.16
808.949	342.01
809.136	587.77
809.323	548.86
809.51	458.74
809.698	692.21
809.885	579.58
810.072	677.88
810.259	874.48
810.446	526.33
810.633	382.97
810.82	962.55
811.008	903.15
811.195	468.98
811.382	544.76
811.569	544.76
811.756	251.9
811.943	327.67
812.13	342.01
812.317	497.66
812.504	468.98
812.691	434.17
812.878	518.14
813.064	843.76
813.251	651.25
813.438	358.39
813.625	405.5
813.812	690.17
813.999	569.34
814.186	438.27
814.372	473.08
814.559	612.34
814.746	1019.89
814.933	342.01
815.12	542.71
815.306	501.75
815.493	417.79
815.68	448.51
815.866	538.62
816.053	913.39
816.24	1185.77
816.426	520.18
816.613	350.2
816.799	811
816.986	843.76
817.173	389.11
817.359	378.87
817.546	667.64
817.732	339.96
817.919	221.18
818.105	479.22
818.292	458.74
818.478	763.89
818.665	460.79
818.851	370.68
819.037	1140.72
819.224	643.06
819.41	385.02
819.597	409.59
819.783	972.79
819.969	702.45
820.156	495.61
820.342	313.34
820.528	1239.02
820.714	522.23
820.901	552.95
821.087	430.07
821.273	888.82
821.459	557.05
821.646	256
821.832	366.59
822.018	690.17
822.204	622.58
822.39	438.27
822.576	276.48
822.762	772.08
822.948	694.26
823.134	724.98
823.32	495.61
823.507	362.49
823.693	686.07
823.879	759.8
824.065	274.43
824.25	722.93
824.436	452.6
824.622	413.69
824.808	327.67
824.994	446.46
825.18	380.92
825.366	344.06
825.552	432.12
825.738	526.33
825.923	888.82
826.109	561.14
826.295	313.34
826.481	456.7
826.667	471.03
826.852	548.86
827.038	286.72
827.224	925.68
827.409	1062.9
827.595	337.91
827.781	561.14
827.966	702.45
828.152	874.48
828.338	387.07
828.523	290.81
828.709	417.79
828.894	919.54
829.08	425.98
829.266	444.41
829.451	432.12
829.637	718.84
829.822	509.94
830.008	303.1
830.193	882.67
830.378	991.22
830.564	415.74
830.749	370.68
830.935	720.88
831.12	827.38
831.305	464.89
831.491	464.89
831.676	403.45
831.861	843.76
832.047	438.27
832.232	223.23
832.417	882.67
832.602	622.58
832.788	321.53
832.973	393.21
833.158	550.9
833.343	675.83
833.528	583.67
833.714	505.85
833.899	776.18
834.084	1052.66
834.269	481.27
834.454	452.6
834.639	786.42
834.824	587.77
835.009	528.38
835.194	536.57
835.379	829.43
835.564	1005.55
835.749	462.84
835.934	303.1
836.119	894.96
836.304	659.45
836.489	473.08
836.674	634.87
836.859	342.01
837.044	862.19
837.228	448.51
837.413	268.28
837.598	677.88
837.783	894.96
837.968	399.35
838.152	309.24
838.337	210.94
838.522	897.01
838.707	813.04
838.891	483.32
839.076	712.69
839.261	851.95
839.445	432.12
839.63	477.18
839.815	1062.9
839.999	534.52
840.184	387.07
840.368	303.1
840.553	804.85
840.737	886.77
840.922	294.91
841.106	323.58
841.291	360.44
841.475	649.21
841.66	358.39
841.844	507.9
842.029	1263.6
842.213	395.26
842.397	391.16
842.582	256
842.766	866.29
842.951	864.24
843.135	438.27
843.319	405.5
843.504	632.82
843.688	841.72
843.872	262.14
844.056	280.57
844.241	798.71
844.425	595.96
844.609	657.4
844.793	215.04
844.977	806.9
845.161	733.17
845.346	266.24
845.53	364.54
845.714	477.18
845.898	933.87
846.082	241.66
846.266	362.49
846.45	655.35
846.634	727.03
846.818	360.44
847.002	557.05
847.186	722.93
847.37	333.82
847.554	358.39
847.738	473.08
847.922	669.69
848.106	624.63
848.29	169.98
848.473	331.77
848.657	767.99
848.841	620.53
849.025	387.07
849.209	243.71
849.392	765.94
849.576	563.19
849.76	161.79
849.944	542.71
850.127	860.15
850.311	296.96
850.495	208.89
850.678	233.47
850.862	817.14
851.046	950.26
851.229	686.07
851.413	313.34
851.596	509.94
851.78	610.29
851.964	600.05
852.147	411.64
852.331	1322.99
852.514	798.71
852.698	585.72
852.881	192.51
853.065	878.58
853.248	645.11
853.431	421.88
853.615	364.54
853.798	1073.14
853.982	694.26
854.165	528.38
854.348	342.01
854.532	276.48
854.715	466.94
854.898	325.63
855.081	296.96
855.265	901.11
855.448	968.69
855.631	421.88
855.814	366.59
855.997	829.43
856.181	571.38
856.364	503.8
856.547	364.54
856.73	651.25
856.913	573.43
857.096	227.32
857.279	505.85
857.462	620.53
857.645	847.86
857.828	563.19
858.011	514.04
858.194	528.38
858.377	829.43
858.56	256
858.743	309.24
858.926	360.44
859.109	837.62
859.292	251.9
859.475	274.43
859.658	997.36
859.841	679.93
860.023	235.52
860.206	391.16
860.389	667.64
860.572	929.78
860.755	387.07
860.937	311.29
861.12	595.96
861.303	655.35
861.486	509.94
861.668	391.16
861.851	735.22
862.034	571.38
862.216	555
862.399	311.29
862.581	700.41
862.764	1009.65
862.947	368.63
863.129	356.35
863.312	278.52
863.494	868.34
863.677	581.62
863.859	241.66
864.042	704.5
864.224	1009.65
864.406	514.04
864.589	202.75
864.771	741.36
864.954	423.93
865.136	309.24
865.318	196.61
865.501	718.84
865.683	135.17
865.865	319.48
866.048	323.58
866.23	677.88
866.412	620.53
866.594	251.9
866.777	464.89
866.959	720.88
867.141	446.46
867.323	649.21
867.505	495.61
867.687	645.11
867.869	608.25
868.052	360.44
868.234	325.63
868.416	628.73
868.598	692.21
868.78	491.51
868.962	270.33
869.144	856.05
869.326	856.05
869.508	409.59
869.69	307.2
869.872	376.83
870.054	770.04
870.236	227.32
870.417	294.91
870.599	514.04
870.781	974.83
870.963	489.46
871.145	284.67
871.327	376.83
871.508	829.43
871.69	278.52
871.872	399.35
872.054	579.58
872.235	702.45
872.417	358.39
872.599	309.24
872.78	833.52
872.962	579.58
873.144	200.7
873.325	393.21
873.507	993.26
873.689	743.41
873.87	223.23
874.052	456.7
874.233	495.61
874.415	804.85
874.596	339.96
874.778	233.47
874.959	577.53
875.141	821.24
875.322	378.87
875.503	333.82
875.685	698.36
875.866	200.7
876.048	264.19
876.229	169.98
876.41	526.33
876.592	700.41
876.773	292.86
876.954	145.41
877.136	925.68
877.317	477.18
877.498	239.61
877.679	337.91
877.86	698.36
878.042	522.23
878.223	272.38
878.404	641.01
878.585	786.42
878.766	964.59
878.947	591.86
879.128	534.52
879.309	790.52
879.49	856.05
879.672	354.3
879.853	354.3
880.034	436.22
880.215	403.45
880.396	403.45
880.576	301.05
880.757	378.87
880.938	866.29
881.119	323.58
881.3	172.03
881.481	352.25
881.662	1341.42
881.843	208.89
882.023	163.84
882.204	614.39
882.385	581.62
882.566	389.11
882.747	253.95
882.927	561.14
883.108	643.06
883.289	301.05
883.469	538.62
883.65	485.37
883.831	573.43
884.011	530.42
884.192	307.2
884.373	823.28
884.553	595.96
884.734	460.79
884.914	565.24
885.095	1241.07
885.275	978.93
885.456	602.1
885.636	182.27
885.817	550.9
885.997	544.76
886.178	342.01
886.358	456.7
886.538	612.34
886.719	1472.49
886.899	387.07
887.08	442.36
887.26	806.9
887.44	380.92
887.621	284.67
887.801	581.62
887.981	1105.9
888.161	745.46
888.342	485.37
888.522	374.78
888.702	714.74
888.882	878.58
889.062	540.66
889.242	192.51
889.423	927.73
889.603	759.8
889.783	475.13
889.963	350.2
890.143	802.8
890.323	993.26
890.503	403.45
890.683	372.73
890.863	663.54
891.043	710.65
891.223	413.69
891.403	563.19
891.583	583.67
891.763	665.59
891.943	440.31
892.122	335.87
892.302	542.71
892.482	598.01
892.662	487.42
892.842	362.49
893.022	774.13
893.201	395.26
893.381	589.82
893.561	452.6
893.741	821.24
893.92	718.84
894.1	446.46
894.28	534.52
894.459	831.48
894.639	798.71
894.819	397.31
894.998	481.27
895.178	679.93
895.357	665.59
895.537	362.49
895.716	274.43
895.896	618.49
896.075	864.24
896.255	350.2
896.434	296.96
896.614	835.57
896.793	962.55
896.973	598.01
897.152	497.66
897.331	763.89
897.511	722.93
897.69	311.29
897.87	557.05
898.049	800.76
898.228	591.86
898.407	583.67
898.587	579.58
898.766	548.86
898.945	765.94
899.124	673.78
899.304	501.75
899.483	845.81
899.662	1107.95
899.841	348.15
900.02	348.15
900.199	915.44
900.378	659.45
900.557	333.82
900.737	235.52
900.916	792.56
901.095	845.81
901.274	616.44
901.453	327.67
901.632	440.31
901.811	575.48
901.989	380.92
902.168	399.35
902.347	737.27
902.526	448.51
902.705	485.37
902.884	464.89
903.063	907.25
903.242	890.87
903.42	253.95
903.599	528.38
903.778	909.3
903.957	944.11
904.135	589.82
904.314	552.95
904.493	663.54
904.672	808.95
904.85	491.51
905.029	438.27
905.207	688.12
905.386	1388.52
905.565	407.55
905.743	368.63
905.922	552.95
906.1	897.01
906.279	350.2
906.457	368.63
906.636	563.19
906.814	579.58
906.993	401.4
907.171	393.21
907.35	788.47
907.528	757.75
907.707	573.43
907.885	333.82
908.063	1130.48
908.242	516.09
908.42	446.46
908.598	229.37
908.777	757.75
908.955	483.32
909.133	579.58
909.311	315.39
909.49	485.37
909.668	632.82
909.846	438.27
910.024	284.67
910.202	692.21
910.38	733.17
910.559	301.05
910.737	331.77
910.915	673.78
911.093	720.88
911.271	407.55
911.449	669.69
911.627	825.33
911.805	997.36
911.983	448.51
912.161	321.53
912.339	739.32
912.517	950.26
912.695	559.1
912.872	362.49
913.05	382.97
913.228	739.32
913.406	438.27
913.584	264.19
913.762	808.95
913.939	491.51
914.117	434.17
914.295	303.1
914.473	800.76
914.65	704.5
914.828	354.3
915.006	366.59
915.184	366.59
915.361	681.97
915.539	501.75
915.716	493.56
915.894	702.45
916.072	811
916.249	692.21
916.427	555
916.604	380.92
916.782	684.02
916.959	317.44
917.137	409.59
917.314	665.59
917.492	702.45
917.669	552.95
917.847	530.42
918.024	722.93
918.201	462.84
918.379	399.35
918.556	456.7
918.733	784.37
918.911	555
919.088	647.16
919.265	342.01
919.442	708.6
919.62	542.71
919.797	374.78
919.974	262.14
920.151	610.29
920.328	624.63
920.506	299
920.683	507.9
920.86	356.35
921.037	364.54
921.214	385.02
921.391	262.14
921.568	829.43
921.745	354.3
921.922	419.83
922.099	311.29
922.276	815.09
922.453	722.93
922.63	268.28
922.807	673.78
922.984	565.24
923.161	509.94
923.338	342.01
923.514	317.44
923.691	528.38
923.868	677.88
924.045	311.29
924.222	270.33
924.399	632.82
924.575	794.61
924.752	458.74
924.929	442.36
925.105	718.84
925.282	352.25
925.459	419.83
925.635	430.07
925.812	460.79
925.989	473.08
926.165	442.36
926.342	311.29
926.518	251.9
926.695	522.23
926.871	360.44
927.048	202.75
927.224	763.89
927.401	497.66
927.577	405.5
927.754	245.76
927.93	741.36
928.107	737.27
928.283	249.85
928.459	520.18
928.636	665.59
928.812	407.55
928.988	333.82
929.165	137.21
929.341	442.36
929.517	638.97
929.693	569.34
929.87	202.75
930.046	612.34
930.222	425.98
930.398	237.56
930.574	436.22
930.751	540.66
930.927	446.46
931.103	364.54
931.279	364.54
931.455	284.67
931.631	546.81
931.807	59.39
931.983	190.46
932.159	256
932.335	614.39
932.511	380.92
932.687	331.77
932.863	583.67
933.039	479.22
933.215	159.74
933.391	104.45
933.566	466.94
933.742	526.33
933.918	315.39
934.094	147.45
934.27	555
934.445	565.24
934.621	212.99
934.797	196.61
934.973	737.27
935.148	643.06
935.324	165.89
935.5	10.24
935.675	694.26
935.851	600.05
936.027	135.17
936.202	274.43
936.378	505.85
936.553	475.13
936.729	649.21
936.904	149.5
937.08	172.03
937.255	299
937.431	223.23
937.606	-24.58
937.782	245.76
937.957	333.82
938.133	317.44
938.308	141.31
938.483	413.69
938.659	200.7
938.834	278.52
939.009	75.77
939.185	278.52
939.36	126.97
939.535	-110.59
939.71	247.8
939.886	475.13
940.061	495.61
940.236	266.24
940.411	139.26
940.586	440.31
940.761	473.08
940.937	227.32
941.112	38.91
941.287	350.2
941.462	364.54
941.637	18.43
941.812	67.58
941.987	372.73
942.162	356.35
942.337	221.18
942.512	198.65
942.687	542.71
942.862	579.58
943.037	63.49
943.212	-249.85
943.386	290.81
943.561	358.39
943.736	217.08
943.911	286.72
944.086	407.55
944.26	438.27
944.435	65.53
944.61	174.08
944.785	532.47
944.959	733.17
945.134	122.88
945.309	26.62
945.483	47.1
945.658	536.57
945.833	-190.46
946.007	-6.14
946.182	722.93
946.357	71.68
946.531	-86.01
946.706	-14.34
946.88	-59.39
947.055	251.9
947.229	10.24
947.404	47.1
947.578	509.94
947.752	225.28
947.927	-131.07
948.101	-149.5
948.276	290.81
948.45	323.58
948.624	294.91
948.799	-14.34
948.973	335.87
949.147	51.2
949.321	188.41
949.496	67.58
949.67	536.57
949.844	210.94
950.018	131.07
950.193	83.97
950.367	751.6
950.541	192.51
950.715	94.21
950.889	231.42
951.063	186.37
951.237	452.6
951.411	-184.32
951.585	-34.82
951.759	319.48
951.933	208.89
952.107	-36.86
952.281	172.03
952.455	700.41
952.629	468.98
952.803	-30.72
952.977	-63.49
953.151	399.35
953.325	303.1
953.499	288.76
953.672	-20.48
953.846	-92.16
954.02	215.04
954.194	-71.68
954.368	83.97
954.541	421.88
954.715	147.45
954.889	75.77
955.062	-81.92
955.236	176.13
955.41	104.45
955.583	192.51
955.757	-157.69
955.93	75.77
956.104	57.34
956.278	6.14
956.451	106.49
956.625	372.73
956.798	755.7
956.972	290.81
957.145	-16.38
957.319	329.72
957.492	333.82
957.665	141.31
957.839	18.43
958.012	387.07
958.185	135.17
958.359	-16.38
958.532	282.62
958.705	440.31
958.879	391.16
959.052	131.07
959.225	-90.11
959.398	227.32
959.572	309.24
959.745	-14.34
959.918	133.12
960.091	102.4
960.264	333.82
960.438	-65.54
960.611	-71.68
960.784	425.98
960.957	129.02
961.13	415.74
961.303	83.97
961.476	221.18
961.649	313.34
961.822	-73.73
961.995	69.63
962.168	405.5
962.341	370.68
962.514	90.11
962.686	-12.29
962.859	299
963.032	378.87
963.205	40.96
963.378	-139.26
963.551	247.8
963.723	266.24
963.896	165.89
964.069	131.07
964.242	219.13
964.414	456.7
964.587	16.38
964.76	161.79
964.932	346.11
965.105	165.89
965.278	59.39
965.45	-2.05
965.623	276.48
965.795	415.74
965.968	32.77
966.14	135.17
966.313	147.45
966.485	217.08
966.658	14.34
966.83	4.1
967.003	479.22
967.175	401.4
967.348	20.48
967.52	90.11
967.692	555
967.865	360.44
968.037	43.01
968.209	323.58
968.382	235.52
968.554	382.97
968.726	6.14
968.898	28.67
969.071	333.82
969.243	339.96
969.415	-43.01
969.587	153.6
969.759	868.34
969.932	401.4
970.104	-12.29
970.276	-69.63
970.448	79.87
970.62	143.36
970.792	122.88
970.964	-12.29
971.136	686.07
971.308	401.4
971.48	-20.48
971.652	-51.2
971.824	565.24
971.996	135.17
972.168	61.44
972.339	83.97
972.511	514.04
972.683	49.15
972.855	233.47
973.027	120.83
973.199	315.39
973.37	319.48
973.542	167.93
973.714	133.12
973.886	313.34
974.057	530.42
974.229	-16.38
974.401	20.48
974.572	2.05
974.744	-155.65
974.915	-71.68
975.087	-55.3
975.259	604.15
975.43	63.49
975.602	45.06
975.773	-2.05
975.945	6.14
976.116	346.11
976.288	-22.53
976.459	153.6
976.63	182.27
976.802	309.24
976.973	43.01
977.145	145.41
977.316	659.45
977.487	593.91
977.659	180.22
977.83	79.87
978.001	655.35
978.172	270.33
978.344	-4.1
978.515	77.82
978.686	116.73
978.857	497.66
979.028	90.11
979.2	18.43
979.371	479.22
979.542	243.71
979.713	215.04
979.884	-362.49
980.055	30.72
980.226	235.52
980.397	-4.1
980.568	-96.25
980.739	419.83
980.91	161.79
981.081	139.26
981.252	-59.39
981.423	362.49
981.594	503.8
981.765	-165.89
981.936	139.26
982.106	182.27
982.277	471.03
982.448	-59.39
982.619	184.32
982.79	163.84
982.96	528.38
983.131	57.34
983.302	-108.54
983.472	26.62
983.643	309.24
983.814	118.78
983.984	-75.77
984.155	237.56
984.326	446.46
984.496	94.21
984.667	129.02
984.837	100.35
985.008	477.18
985.178	83.97
985.349	145.41
985.519	229.37
985.69	157.69
985.86	24.58
986.031	67.58
986.201	188.41
986.371	342.01
986.542	-98.3
986.712	-96.25
986.882	266.24
987.053	364.54
987.223	-102.4
987.393	102.4
987.563	81.92
987.734	333.82
987.904	311.29
988.074	-18.43
988.244	327.67
988.414	131.07
988.585	-63.49
988.755	182.27
988.925	133.12
989.095	485.37
989.265	-55.3
989.435	18.43
989.605	344.06
989.775	311.29
989.945	266.24
990.115	-131.07
990.285	198.65
990.455	264.19
990.625	22.53
990.795	16.38
990.965	520.18
991.134	45.06
991.304	-79.87
991.474	-22.53
991.644	268.28
991.814	593.91
991.984	-51.2
992.153	-34.82
992.323	174.08
992.493	102.4
992.662	-227.32
992.832	145.41
993.002	319.48
993.171	260.09
993.341	-174.08
993.511	75.77
993.68	30.72
993.85	303.1
994.019	-122.88
994.189	-145.41
994.358	215.04
994.528	83.97
994.697	-370.68
994.867	-180.22
995.036	352.25
995.206	75.77
995.375	-75.77
995.544	133.12
995.714	98.3
995.883	163.84
996.052	155.65
996.222	-344.06
996.391	651.25
996.56	227.32
996.73	-167.93
996.899	-190.46
997.068	489.46
997.237	110.59
997.406	-90.11
997.576	-233.47
997.745	276.48
997.914	256
998.083	-249.85
998.252	-98.3
998.421	180.22
998.59	14.34
998.759	-239.61
998.928	-235.52
999.097	393.21
999.266	292.86
999.435	67.58
999.604	-288.76
999.773	763.89
999.942	47.1
1000.111	-227.32
1000.28	-266.24
1000.448	-8.19
1000.617	-43.01
1000.786	49.15
1000.955	-247.8
1001.124	219.13
1001.292	778.23
1001.461	-161.79
1001.63	-131.07
1001.798	489.46
1001.967	432.12
1002.136	-225.28
1002.304	-141.31
1002.473	262.14
1002.642	210.94
1002.81	-81.92
1002.979	-174.08
1003.147	282.62
1003.316	587.77
1003.484	-133.12
1003.653	-264.19
1003.821	503.8
1003.99	79.87
1004.158	-10.24
1004.327	40.96
1004.495	282.62
1004.663	34.82
1004.832	22.53
1005	-243.71
1005.168	337.91
1005.337	204.8
1005.505	-301.05
1005.673	-6.14
1005.842	303.1
1006.01	313.34
1006.178	-200.7
1006.346	-282.62
1006.514	317.44
1006.683	393.21
1006.851	-210.94
1007.019	-307.2
1007.187	-108.54
1007.355	-280.57
1007.523	-317.44
1007.691	-360.44
1007.859	-192.51
1008.027	391.16
1008.195	-102.4
1008.363	-251.9
1008.531	235.52
1008.699	-14.34
1008.867	-237.56
1009.035	-149.5
1009.203	438.27
1009.37	202.75
1009.538	-98.3
1009.706	237.56
1009.874	77.82
1010.042	30.72
1010.209	-268.28
1010.377	-190.46
1010.545	423.93
1010.713	180.22
1010.88	-219.13
1011.048	-145.41
1011.216	65.53
1011.383	444.41
1011.551	-161.79
1011.718	-303.1
1011.886	342.01
1012.054	94.21
1012.221	-219.13
1012.389	-190.46
1012.556	43.01
1012.724	546.81
1012.891	-30.72
1013.058	-309.24
1013.226	299
1013.393	352.25
1013.561	-385.02
1013.728	-356.35
1013.895	274.43
1014.063	190.46
1014.23	-294.91
1014.397	-227.32
1014.565	366.59
1014.732	79.87
1014.899	-182.27
1015.066	-202.75
1015.233	141.31
1015.401	329.72
1015.568	-153.6
1015.735	-133.12
1015.902	122.88
1016.069	241.66
1016.236	-96.25
1016.403	-233.47
1016.57	-86.01
1016.737	321.53
1016.904	-143.36
1017.071	-253.95
1017.238	-34.82
1017.405	278.52
1017.572	-210.94
1017.739	53.25
1017.906	241.66
1018.073	360.44
1018.24	-296.96
1018.407	-61.44
1018.573	411.64
1018.74	22.53
1018.907	-145.41
1019.074	-262.14
1019.241	337.91
1019.407	188.41
1019.574	-219.13
1019.741	-303.1
1019.907	212.99
1020.074	272.38
1020.241	-464.89
1020.407	-260.09
1020.574	196.61
1020.74	212.99
1020.907	-169.98
1021.073	-212.99
1021.24	657.4
1021.406	438.27
1021.573	-313.34
1021.739	-157.69
1021.906	307.2
1022.072	51.2
1022.239	-163.84
1022.405	-126.97
1022.571	200.7
1022.738	-24.58
1022.904	-219.13
1023.07	-90.11
1023.237	151.55
1023.403	329.72
1023.569	-233.47
1023.735	-135.17
1023.902	153.6
1024.068	161.79
1024.234	-264.19
1024.4	-235.52
1024.566	262.14
1024.732	309.24
1024.898	-200.7
1025.065	-378.87
1025.231	247.8
1025.397	57.34
1025.563	-165.89
1025.729	-270.33
1025.895	-229.37
1026.061	-63.49
1026.227	-417.79
1026.392	-233.47
1026.558	368.63
1026.724	73.73
1026.89	-348.15
1027.056	-96.25
1027.222	202.75
1027.388	71.68
1027.553	-284.67
1027.719	-290.81
1027.885	462.84
1028.051	264.19
1028.216	-378.87
1028.382	-182.27
1028.548	280.57
1028.713	-10.24
1028.879	-241.66
1029.045	-75.77
1029.21	397.31
1029.376	405.5
1029.541	-186.37
1029.707	-157.69
1029.873	243.71
1030.038	329.72
1030.204	-155.65
1030.369	-55.3
1030.534	331.77
1030.7	53.25
1030.865	-147.45
1031.031	-210.94
1031.196	256
1031.361	237.56
1031.527	-227.32
1031.692	-235.52
1031.857	-188.41
1032.023	235.52
1032.188	-202.75
1032.353	-149.5
1032.518	458.74
1032.684	180.22
1032.849	-364.54
1033.014	-174.08
1033.179	364.54
1033.344	251.9
1033.509	-34.82
1033.674	-169.98
1033.839	428.03
1034.004	333.82
1034.17	-264.19
1034.335	-280.57
1034.5	88.06
1034.664	34.82
1034.829	-270.33
1034.994	-161.79
1035.159	225.28
1035.324	151.55
1035.489	-262.14
1035.654	-280.57
1035.819	356.35
1035.984	221.18
1036.148	-133.12
1036.313	-108.54
1036.478	352.25
1036.643	165.89
1036.807	-151.55
1036.972	-235.52
1037.137	471.03
1037.301	167.93
1037.466	-356.35
1037.631	-100.35
1037.795	419.83
1037.96	161.79
1038.124	-10.24
1038.289	-286.72
1038.454	284.67
1038.618	256
1038.783	-143.36
1038.947	-61.44
1039.111	227.32
1039.276	2.05
1039.44	-245.76
1039.605	194.56
1039.769	28.67
1039.933	108.54
1040.098	-143.36
1040.262	65.53
1040.426	344.06
1040.591	278.52
1040.755	-280.57
1040.919	-208.89
1041.083	223.23
1041.248	118.78
1041.412	-354.3
1041.576	-186.37
1041.74	92.16
1041.904	247.8
1042.068	-260.09
1042.232	-182.27
1042.397	325.63
1042.561	247.8
1042.725	-374.78
1042.889	67.58
1043.053	387.07
1043.217	212.99
1043.381	-67.58
1043.544	-325.63
1043.708	468.98
1043.872	-133.12
1044.036	-471.03
1044.2	-358.39
1044.364	434.17
1044.528	591.86
1044.691	2944.98
1044.855	-378.87
1045.019	329.72
1045.183	198.65
1045.346	-141.31
1045.51	-282.62
1045.674	346.11
1045.837	358.39
1046.001	-147.45
1046.165	-167.93
1046.328	794.61
1046.492	299
1046.655	-71.68
1046.819	-161.79
1046.983	129.02
1047.146	315.39
1047.31	-131.07
1047.473	-337.91
1047.636	202.75
1047.8	-8.19
1047.963	-143.36
1048.127	-172.03
1048.29	-2.05
