Data from Ink_Intensity_USB4F045381__97__00097.txt Node

Date: Mon Jul 17 11:03:36 EDT 2023
User: mmckonesweet
Spectrometer: USB4F04538
Trigger mode: 4
Integration Time (sec): 9.000000E-1
Scans to average: 1
Electric dark correction enabled: true
Nonlinearity correction enabled: false
Boxcar width: 0
XAxis mode: Wavelengths
Number of Pixels in Spectrum: 3648
>>>>>Begin Spectral Data<<<<<
345.52	-1008.28
345.736	-1008.28
345.952	-1008.28
346.168	-1112.73
346.384	-1006.24
346.6	-193.19
346.816	-197.29
347.032	-207.53
347.248	326.99
347.464	-238.25
347.68	-37.55
347.896	124.24
348.112	433.49
348.328	-90.79
348.544	-66.22
348.76	-53.93
348.975	200.02
349.191	-250.53
349.407	-189.1
349.623	83.28
349.839	-37.55
350.055	-156.33
350.27	146.77
350.486	167.25
350.702	331.09
350.918	269.65
351.133	-168.62
351.349	83.28
351.565	441.68
351.781	-213.67
351.996	11.61
352.212	355.66
352.428	-109.22
352.644	-180.9
352.859	-178.86
353.075	273.75
353.291	197.97
353.506	-127.66
353.722	-199.34
353.938	-66.22
354.153	339.28
354.369	73.04
354.584	-197.29
354.8	150.87
355.016	-221.86
355.231	-254.63
355.447	-4.78
355.662	89.43
355.878	773.45
356.093	-402.08
356.309	-25.26
356.524	-258.73
356.74	277.84
356.955	-180.9
357.171	-4.78
357.386	159.06
357.602	-203.43
357.817	-88.75
358.033	-166.57
358.248	286.03
358.464	261.46
358.679	-133.8
358.895	-295.59
359.11	97.62
359.325	351.57
359.541	118.1
359.756	64.85
359.972	-252.58
360.187	187.73
360.402	-230.06
360.618	-139.94
360.833	1019.21
361.048	210.26
361.264	-172.71
361.479	-0.68
361.694	48.47
361.909	214.35
362.125	-221.86
362.34	-103.08
362.555	257.36
362.77	142.68
362.986	-271.01
363.201	-150.18
363.416	261.46
363.631	54.61
363.847	-195.24
364.062	-148.14
364.277	261.46
364.492	32.08
364.707	-119.46
364.922	-365.22
365.138	267.6
365.353	367.95
365.568	-209.58
365.783	-137.9
365.998	23.89
366.213	544.08
366.428	-207.53
366.643	21.85
366.858	247.12
367.073	269.65
367.288	-111.27
367.503	-125.61
367.718	142.68
367.933	300.37
368.148	-252.58
368.363	-96.94
368.578	23.89
368.793	439.63
369.008	-213.67
369.223	-221.86
369.438	183.63
369.653	445.77
369.868	-225.96
370.083	-240.29
370.298	83.28
370.513	398.67
370.728	9.56
370.943	-195.24
371.157	-107.18
371.372	519.5
371.587	-273.06
371.802	-197.29
372.017	7.51
372.232	503.12
372.446	-47.79
372.661	-203.43
372.876	308.56
373.091	140.63
373.306	-107.18
373.52	-174.76
373.735	-209.58
373.95	392.53
374.165	-105.13
374.379	-82.6
374.594	-103.08
374.809	120.15
375.023	50.52
375.238	-172.71
375.453	245.07
375.667	-287.4
375.882	-139.94
376.097	-160.42
376.311	-80.55
376.526	32.08
376.741	-217.77
376.955	105.81
377.17	628.04
377.384	691.53
377.599	-58.03
377.813	-228.01
378.028	591.18
378.242	130.39
378.457	7.51
378.672	-320.17
378.886	95.57
379.101	42.32
379.315	-365.22
379.53	-148.14
379.744	193.87
379.958	193.87
380.173	-107.18
380.387	-127.66
380.602	245.07
380.816	-103.08
381.031	-107.18
381.245	-162.47
381.459	224.59
381.674	2721.07
381.888	-228.01
382.103	105.81
382.317	-129.7
382.531	539.98
382.746	-101.03
382.96	-178.86
383.174	-68.27
383.388	486.73
383.603	36.18
383.817	-254.63
384.031	208.21
384.246	462.16
384.46	7.51
384.674	277.84
384.888	17.75
385.103	136.53
385.317	-293.54
385.531	-23.21
385.745	343.38
385.959	384.34
386.174	-137.9
386.388	-225.96
386.602	50.52
386.816	-10.92
387.03	-10.92
387.244	-103.08
387.458	105.81
387.672	341.33
387.887	-205.48
388.101	-330.41
388.315	435.53
388.529	167.25
388.743	-103.08
388.957	-213.67
389.171	310.61
389.385	-21.16
389.599	-144.04
389.813	136.53
390.027	218.45
390.241	750.92
390.455	-51.88
390.669	-135.85
390.883	-82.6
391.097	396.62
391.311	-4.78
391.525	-185
391.738	204.11
391.952	183.63
392.166	-45.74
392.38	-176.81
392.594	355.66
392.808	318.8
393.022	-55.98
393.236	-135.85
393.449	204.11
393.663	150.87
393.877	-238.25
394.091	-17.07
394.305	-47.79
394.518	-148.14
394.732	-293.54
394.946	-96.94
395.16	531.79
395.373	142.68
395.587	-162.47
395.801	-80.55
396.015	351.57
396.228	202.07
396.442	-271.01
396.656	-348.84
396.869	372.05
397.083	466.25
397.297	11.61
397.51	-127.66
397.724	318.8
397.938	173.39
398.151	-240.29
398.365	-244.39
398.578	263.51
398.792	433.49
399.005	-17.07
399.219	-70.31
399.433	204.11
399.646	224.59
399.86	105.81
400.073	52.56
400.287	208.21
400.5	48.47
400.714	7.51
400.927	3.41
401.141	286.03
401.354	1221.95
401.567	195.92
401.781	-248.49
401.994	341.33
402.208	605.52
402.421	-66.22
402.635	-62.12
402.848	34.13
403.061	339.28
403.275	-29.35
403.488	-209.58
403.701	519.5
403.915	253.27
404.128	109.91
404.341	-41.64
404.555	271.7
404.768	163.15
404.981	71
405.195	-139.94
405.408	537.93
405.621	408.91
405.834	44.37
406.048	-205.48
406.261	494.93
406.474	585.04
406.687	-92.84
406.9	-66.22
407.114	146.77
407.327	331.09
407.54	-238.25
407.753	-154.28
407.966	-92.84
408.179	302.42
408.392	-88.75
408.605	-213.67
408.819	240.98
409.032	138.58
409.245	-158.38
409.458	75.09
409.671	343.38
409.884	372.05
410.097	-203.43
410.31	46.42
410.523	322.9
410.736	101.72
410.949	-35.5
411.162	-49.83
411.375	445.77
411.588	400.72
411.801	116.05
412.014	-174.76
412.227	105.81
412.44	64.85
412.653	-144.04
412.865	77.14
413.078	283.99
413.291	238.93
413.504	44.37
413.717	-133.8
413.93	355.66
414.143	-90.79
414.356	-25.26
414.568	-193.19
414.781	406.86
414.994	218.45
415.207	-68.27
415.42	7.51
415.632	443.73
415.845	589.13
416.058	-174.76
416.271	-146.09
416.483	114
416.696	621.9
416.909	-43.69
417.121	-150.18
417.334	312.66
417.547	609.61
417.759	-72.36
417.972	-70.31
418.185	75.09
418.397	363.86
418.61	-70.31
418.823	-101.03
419.035	488.78
419.248	138.58
419.46	-55.98
419.673	52.56
419.885	310.61
420.098	97.62
420.311	-64.17
420.523	-311.97
420.736	384.34
420.948	179.54
421.161	-66.22
421.373	-266.92
421.586	240.98
421.798	13.65
422.01	-248.49
422.223	11.61
422.435	105.81
422.648	376.14
422.86	-53.93
423.073	-41.64
423.285	501.07
423.497	-141.99
423.71	-101.03
423.922	-111.27
424.134	326.99
424.347	537.93
424.559	150.87
424.771	236.88
424.984	118.1
425.196	296.27
425.408	-211.62
425.621	-197.29
425.833	415.06
426.045	501.07
426.257	-41.64
426.47	-15.02
426.682	257.36
426.894	410.96
427.106	-17.07
427.318	7.51
427.531	142.68
427.743	308.56
427.955	-82.6
428.167	427.34
428.379	286.03
428.591	136.53
428.804	105.81
429.016	-86.7
429.228	116.05
429.44	347.47
429.652	191.83
429.864	-131.75
430.076	171.35
430.288	138.58
430.5	27.99
430.712	195.92
430.924	525.65
431.136	283.99
431.348	-174.76
431.56	-74.41
431.772	224.59
431.984	157.01
432.196	-33.45
432.408	30.04
432.62	101.72
432.832	374.1
433.044	300.37
433.256	122.2
433.468	310.61
433.679	52.56
433.891	-66.22
434.103	265.55
434.315	615.76
434.527	429.39
434.739	130.39
434.95	68.95
435.162	398.67
435.374	173.39
435.586	175.44
435.798	36.18
436.009	-19.11
436.221	130.39
436.433	21.85
436.645	97.62
436.856	128.34
437.068	544.08
437.28	-45.74
437.491	329.04
437.703	433.49
437.915	361.81
438.126	13.65
438.338	384.34
438.55	238.93
438.761	318.8
438.973	58.71
439.184	50.52
439.396	273.75
439.608	525.65
439.819	-2.73
440.031	150.87
440.242	521.55
440.454	499.02
440.665	93.52
440.877	111.96
441.088	425.29
441.3	220.5
441.511	-90.79
441.723	56.66
441.934	367.95
442.146	378.19
442.357	232.79
442.569	417.1
442.78	329.04
442.991	712.01
443.203	322.9
443.414	-58.03
443.626	687.43
443.837	142.68
444.048	60.76
444.26	-10.92
444.471	353.62
444.682	591.18
444.894	-109.22
445.105	-8.87
445.316	623.95
445.528	509.26
445.739	218.45
445.95	187.73
446.161	435.53
446.373	660.81
446.584	71
446.795	128.34
447.006	525.65
447.217	781.64
447.429	23.89
447.64	73.04
447.851	798.03
448.062	374.1
448.273	-37.55
448.484	187.73
448.695	544.08
448.907	419.15
449.118	204.11
449.329	472.4
449.54	261.46
449.751	138.58
449.962	128.34
450.173	167.25
450.384	681.29
450.595	808.27
450.806	101.72
451.017	216.4
451.228	752.97
451.439	628.04
451.65	187.73
451.861	13.65
452.072	224.59
452.283	335.18
452.494	394.58
452.705	52.56
452.915	769.35
453.126	490.83
453.337	181.59
453.548	154.96
453.759	750.92
453.97	925
454.181	400.72
454.391	173.39
454.602	494.93
454.813	574.8
455.024	335.18
455.235	269.65
455.445	517.45
455.656	603.47
455.867	372.05
456.078	212.31
456.288	415.06
456.499	488.78
456.71	171.35
456.921	521.55
457.131	699.72
457.342	519.5
457.553	329.04
457.763	228.69
457.974	785.74
458.184	761.16
458.395	222.55
458.606	193.87
458.816	808.27
459.027	968.01
459.237	478.54
459.448	120.15
459.659	879.94
459.869	1088.84
460.08	202.07
460.29	523.6
460.501	1068.36
460.711	466.25
460.922	263.51
461.132	300.37
461.343	1224
461.553	376.14
461.764	343.38
461.974	367.95
462.184	884.04
462.395	714.06
462.605	542.03
462.816	337.23
463.026	638.28
463.236	992.58
463.447	335.18
463.657	378.19
463.867	980.29
464.078	585.04
464.288	492.88
464.498	472.4
464.709	646.48
464.919	601.42
465.129	539.98
465.339	394.58
465.55	748.87
465.76	875.85
465.97	435.53
466.18	478.54
466.391	1092.93
466.601	888.14
466.811	597.32
467.021	433.49
467.231	785.74
467.441	1068.36
467.651	523.6
467.862	349.52
468.072	816.46
468.282	1015.11
468.492	595.28
468.702	658.76
468.912	1017.16
469.122	1469.76
469.332	855.37
469.542	623.95
469.752	1115.46
469.962	943.43
470.172	572.75
470.382	642.38
470.592	1103.17
470.802	1187.14
471.012	869.7
471.222	734.54
471.432	1191.24
471.642	1236.29
471.852	847.18
472.062	683.34
472.272	965.96
472.482	763.21
472.691	695.63
472.901	761.16
473.111	1097.03
473.321	1641.79
473.531	810.31
473.741	943.43
473.95	1256.77
474.16	1232.19
474.37	965.96
474.58	822.6
474.79	1692.99
474.999	1393.98
475.209	947.53
475.419	1099.08
475.628	1125.7
475.838	1572.16
476.048	1099.08
476.258	802.12
476.467	1588.54
476.677	1217.86
476.886	1297.73
477.096	1277.25
477.306	1187.14
477.515	1748.28
477.725	1312.07
477.935	1285.44
478.144	1762.62
478.354	1271.11
478.563	1295.68
478.773	1121.6
478.982	1705.28
479.192	1879.35
479.401	1287.49
479.611	1168.71
479.82	1387.84
480.03	1563.97
480.239	1285.44
480.449	1086.79
480.658	1944.89
480.868	1506.62
481.077	1525.05
481.287	1428.8
481.496	1748.28
481.705	2010.42
481.915	1813.82
482.124	1807.67
482.333	1893.69
482.543	2207.03
482.752	1656.12
482.961	1574.21
483.171	2014.52
483.38	1768.76
483.589	1688.89
483.799	1572.16
484.008	1869.11
484.217	2153.78
484.426	1656.12
484.636	1584.45
484.845	1965.37
485.054	1721.66
485.263	1934.65
485.472	1899.83
485.682	2432.3
485.891	2145.59
486.1	1584.45
486.309	1867.06
486.518	2254.13
486.727	2522.41
486.936	1840.44
487.146	1811.77
487.355	2637.1
487.564	2028.85
487.773	1944.89
487.982	2028.85
488.191	2092.34
488.4	2123.06
488.609	2069.81
488.818	2030.9
489.027	2872.62
489.236	2633.01
489.445	2245.94
489.654	2018.61
489.863	2643.25
490.072	2393.39
490.281	2557.23
490.49	2141.49
490.698	2768.17
490.907	2788.65
491.116	2235.7
491.325	2153.78
491.534	2749.74
491.743	2673.96
491.952	2395.44
492.16	2350.39
492.369	2708.78
492.578	2821.42
492.787	2407.73
492.996	2188.6
493.204	2432.3
493.413	3038.5
493.622	2235.7
493.831	2192.69
494.039	3081.51
494.248	2559.28
494.457	2641.2
494.665	2397.49
494.874	3013.93
495.083	3362.08
495.291	2671.92
495.5	2610.48
495.709	3200.29
495.917	2979.11
496.126	2751.79
496.335	2805.03
496.543	2907.43
496.752	3089.7
496.96	2985.26
497.169	2587.95
497.377	3063.08
497.586	3415.33
497.794	2919.72
498.003	2559.28
498.211	3128.61
498.42	3429.67
498.628	2923.82
498.837	2757.93
499.045	3145
499.254	3235.11
499.462	3001.64
499.671	2944.3
499.879	3650.85
500.087	3423.52
500.296	2934.06
500.504	3097.89
500.713	3353.89
500.921	3884.31
501.129	3054.89
501.338	3089.7
501.546	3304.74
501.754	3519.78
501.962	3220.77
502.171	2995.5
502.379	3566.88
502.587	3880.22
502.795	3317.03
503.004	3138.85
503.212	3603.74
503.42	3779.87
503.628	3177.76
503.837	3337.51
504.045	3687.71
504.253	4044.06
504.461	3337.51
504.669	3233.06
504.877	3700
505.085	4128.02
505.294	3345.7
505.502	3669.28
505.71	3706.14
505.918	3847.45
506.126	3388.71
506.334	3484.96
506.542	3808.54
506.75	3869.98
506.958	3603.74
507.166	3417.38
507.374	3726.62
507.582	4226.32
507.79	3595.55
507.998	3503.39
508.206	4007.19
508.414	4115.73
508.622	3695.9
508.83	3667.23
509.037	4230.42
509.245	3996.95
509.453	3720.48
509.661	3685.66
509.869	4203.8
510.077	3964.18
510.285	3775.77
510.492	3439.9
510.7	4853
510.908	3874.07
511.116	3869.98
511.324	3767.58
511.531	4144.41
511.739	4111.64
511.947	3972.38
512.155	4322.58
512.362	4328.72
512.57	4089.11
512.778	3898.65
512.985	3786.01
513.193	4435.22
513.401	4558.1
513.608	3986.71
513.816	3958.04
514.024	4472.08
514.231	4517.14
514.439	4005.14
514.646	4095.25
514.854	4668.69
515.061	4781.32
515.269	4132.12
515.477	4099.35
515.684	4070.68
515.892	4771.08
516.099	4025.62
516.307	4146.45
516.514	4699.41
516.722	4869.39
516.929	4201.75
517.136	3933.47
517.344	4838.67
517.551	4721.93
517.759	4357.39
517.966	4445.46
518.173	4568.34
518.381	4562.19
518.588	4435.22
518.796	4390.16
519.003	5020.94
519.21	4678.93
519.418	4410.64
519.625	4850.96
519.832	4726.03
520.039	4988.17
520.247	4402.45
520.454	4529.42
520.661	5016.84
520.868	4986.12
521.076	4865.29
521.283	4617.49
521.49	5575.94
521.697	5135.62
521.904	4746.51
522.112	4656.4
522.319	5168.39
522.526	5162.25
522.733	4676.88
522.94	4840.72
523.147	5010.7
523.354	5387.52
523.561	4855.05
523.768	5063.94
523.975	5459.2
524.183	5178.63
524.39	4953.35
524.597	4881.67
524.804	5055.75
525.011	5152.01
525.218	4898.06
525.425	5137.67
525.632	5680.38
525.838	5137.67
526.045	4943.11
526.252	4920.59
526.459	6421.75
526.666	6096.12
526.873	5321.99
527.08	5006.6
527.287	5831.93
527.494	5717.25
527.701	5170.44
527.907	5084.42
528.114	5747.97
528.321	5541.12
528.528	5174.53
528.735	5430.53
528.941	5524.74
529.148	5442.82
529.355	5473.54
529.562	5393.67
529.768	6038.78
529.975	5571.84
530.182	5379.33
530.388	5397.76
530.595	6094.07
530.802	5530.88
531.008	5754.11
531.215	5641.47
531.422	6374.64
531.628	6749.42
531.835	5590.27
532.042	5690.62
532.248	5731.58
532.455	6067.45
532.661	5797.12
532.868	5633.28
533.074	6112.5
533.281	6290.68
533.487	5786.88
533.694	5664
533.9	5885.18
534.107	6245.62
534.313	5829.88
534.52	5799.16
534.726	6431.99
534.933	6577.39
535.139	5987.58
535.345	5850.36
535.552	6360.31
535.758	6440.18
535.965	6102.26
536.171	5879.04
536.377	6542.58
536.584	6690.03
536.79	5944.57
536.996	6208.76
537.203	6483.19
537.409	6526.19
537.615	6317.3
537.821	6405.36
538.028	6606.06
538.234	6667.5
538.44	6233.33
538.646	6386.93
538.853	6696.18
539.059	6687.98
539.265	6724.85
539.471	6094.07
539.677	6952.17
539.883	6565.11
540.09	6450.42
540.296	6923.5
540.502	6864.11
540.708	6585.58
540.914	6749.42
541.12	6683.89
541.326	7021.8
541.532	6997.23
541.738	6733.04
541.944	6841.58
542.15	7269.61
542.356	7103.72
542.562	6624.5
542.768	6765.81
542.974	7584.99
543.18	7642.34
543.386	6896.88
543.592	6700.27
543.798	7376.1
544.004	7519.46
544.21	6847.72
544.415	6982.89
544.621	7120.1
544.827	7505.12
545.033	6855.92
545.239	7435.49
545.445	7257.32
545.651	7355.62
545.856	6894.83
546.062	7163.11
546.268	7314.66
546.474	7554.27
546.679	7177.45
546.885	7079.15
547.091	7236.84
547.297	7965.92
547.502	7298.28
547.708	7013.61
547.914	7220.46
548.119	7867.61
548.325	7062.76
548.531	7124.2
548.736	8101.08
548.942	7527.65
549.147	7326.95
549.353	7716.06
549.559	8162.52
549.764	7804.13
549.97	7314.66
550.175	7496.93
550.381	7869.66
550.586	7400.68
550.792	7552.23
550.997	7584.99
551.203	7914.72
551.408	7838.94
551.614	7582.95
551.819	7578.85
552.025	8383.7
552.23	8318.17
552.435	7558.37
552.641	7970.01
552.846	7826.65
553.052	8465.62
553.257	8043.74
553.462	7998.68
553.668	7888.09
553.873	8502.48
554.078	7832.8
554.283	7806.17
554.489	8236.25
554.694	8248.54
554.899	7867.61
555.105	8287.45
555.31	8555.73
555.515	8670.42
555.72	8117.47
555.925	7761.12
556.131	8664.27
556.336	8279.26
556.541	7990.49
556.746	7927
556.951	8789.2
557.156	8821.97
557.361	8338.65
557.567	8402.13
557.772	9120.97
557.977	8797.39
558.182	8312.02
558.387	8340.69
558.592	8498.39
558.797	8983.76
559.002	8379.61
559.207	8432.85
559.412	8676.56
559.617	9131.21
559.822	8393.94
560.027	8299.73
560.232	8707.28
560.437	8938.7
560.642	8434.9
560.847	8608.98
561.051	8891.6
561.256	9118.92
561.461	8568.02
561.666	8469.72
561.871	8961.23
562.076	9145.55
562.281	8666.32
562.485	8543.44
562.69	9053.39
562.895	9364.68
563.1	8725.71
563.305	8662.23
563.509	9293
563.714	9690.31
563.919	8852.69
564.123	8668.37
564.328	9120.97
564.533	9583.81
564.737	8862.93
564.942	8948.94
565.147	9579.72
565.351	9845.95
565.556	9096.39
565.761	8963.28
565.965	9356.49
566.17	9110.73
566.374	8944.84
566.579	9149.64
566.784	9352.39
566.988	9215.18
567.193	8930.51
567.397	9237.7
567.602	9348.29
567.806	9159.88
568.011	9149.64
568.215	9407.69
568.42	9530.56
568.624	9573.57
568.828	9444.55
569.033	9499.84
569.237	9790.66
569.442	9692.35
569.646	9163.98
569.85	9471.17
570.055	9534.66
570.259	10048.7
570.463	9880.77
570.668	9551.04
570.872	9622.72
571.076	9854.14
571.281	9759.94
571.485	9635.01
571.689	9905.34
571.893	10288.31
572.098	9651.39
572.302	9628.87
572.506	10159.29
572.71	9960.64
572.914	9581.76
573.119	9800.9
573.323	10435.77
573.527	10556.6
573.731	9944.25
573.935	9749.7
574.139	10300.6
574.343	9977.02
574.547	9833.66
574.751	9966.78
574.955	10427.57
575.159	10554.55
575.364	9893.05
575.568	9856.19
575.772	10228.92
575.976	10759.35
576.18	9913.53
576.383	9880.77
576.587	10673.33
576.791	10489.01
576.995	9809.09
577.199	10003.64
577.403	10527.92
577.607	11029.68
577.811	10212.54
578.015	10251.45
578.219	10691.76
578.422	10939.57
578.626	10421.43
578.83	10476.73
579.034	10708.15
579.238	10691.76
579.442	10454.2
579.645	10747.06
579.849	10757.3
580.053	10781.87
580.257	10493.11
580.46	10509.49
580.664	10947.76
580.868	10871.98
581.071	10753.2
581.275	10464.44
581.479	10681.52
581.682	11035.82
581.886	10661.04
582.09	10734.77
582.293	11263.15
582.497	11293.86
582.7	11025.58
582.904	10747.06
583.107	10923.18
583.311	10955.95
583.515	10849.46
583.718	10947.76
583.922	11590.82
584.125	11668.64
584.329	10822.83
584.532	11259.05
584.735	11764.9
584.939	11433.13
585.142	10773.68
585.346	11099.31
585.549	11435.17
585.753	11271.34
585.956	11277.48
586.159	11136.17
586.363	11869.34
586.566	11758.75
586.769	11259.05
586.973	11164.84
587.176	11650.21
587.379	11969.69
587.582	11666.6
587.786	11545.77
587.989	11977.89
588.192	12364.95
588.395	11326.63
588.599	11738.27
588.802	12108.96
589.005	11943.07
589.208	11807.91
589.411	11750.56
589.615	12135.58
589.818	12461.21
590.021	11947.17
590.224	11689.12
590.427	12252.31
590.63	12000.41
590.833	11484.33
591.036	11789.47
591.239	12264.6
591.442	11693.22
591.645	12229.79
591.848	11836.58
592.051	12299.42
592.254	12334.23
592.457	11947.17
592.66	12201.12
592.863	12217.5
593.066	12467.35
593.269	11871.39
593.472	12119.2
593.675	12426.39
593.878	12635.28
594.081	12100.76
594.284	12158.11
594.486	12821.65
594.689	12393.62
594.892	12276.89
595.095	12375.19
595.298	12930.19
595.5	12635.28
595.703	12389.53
595.906	12534.93
596.109	13067.41
596.311	12938.38
596.514	12174.49
596.717	12481.69
596.92	13304.97
597.122	13075.6
597.325	12373.14
597.528	12594.33
597.73	13202.57
597.933	12922
598.136	12725.4
598.338	12385.43
598.541	13057.17
598.743	13366.41
598.946	12657.81
599.148	12639.38
599.351	13403.27
599.554	13589.64
599.756	12663.96
599.959	12721.3
600.161	13399.18
600.363	13761.67
600.566	13098.13
600.768	12817.55
600.971	13798.53
601.173	13370.51
601.376	13065.36
601.578	12846.23
601.78	13300.87
601.983	13714.56
602.185	12991.63
602.388	13350.03
602.59	13585.54
602.792	13327.5
602.995	13352.07
603.197	13030.54
603.399	13956.22
603.601	13601.93
603.804	13073.55
604.006	13202.57
604.208	13642.89
604.41	13028.49
604.613	13620.36
604.815	13390.99
605.017	14275.71
605.219	13599.88
605.421	13810.82
605.623	13591.69
605.826	14158.97
606.028	13954.18
606.23	13491.34
606.432	13581.45
606.634	14371.96
606.836	14107.77
607.038	13300.87
607.24	13679.75
607.442	13806.72
607.644	13800.58
607.846	13800.58
608.048	13651.08
608.25	14179.45
608.452	13681.8
608.654	13798.53
608.856	13581.45
609.058	13960.32
609.26	14023.81
609.462	13683.84
609.664	14038.14
609.866	14677.11
610.067	14509.18
610.269	14199.93
610.471	13751.43
610.673	13927.55
610.875	14589.05
611.077	13837.44
611.278	14124.16
611.48	14154.88
611.682	14609.53
611.884	14138.49
612.085	13796.48
612.287	13933.7
612.489	14228.6
612.69	13841.54
612.892	14115.97
613.094	14644.34
613.295	14322.81
613.497	13855.87
613.699	13978.75
613.9	15072.37
614.102	14627.96
614.304	14005.38
614.505	13767.81
614.707	14343.29
614.908	14347.39
615.11	13933.7
615.311	14042.24
615.513	14525.56
615.714	14965.87
615.916	14181.5
616.117	14292.09
616.319	14470.26
616.52	14881.91
616.722	14390.39
616.923	14503.03
617.124	14972.02
617.326	14636.15
617.527	14634.1
617.729	14589.05
617.93	14797.94
618.131	14838.9
618.333	14394.49
618.534	14390.39
618.735	14480.5
618.937	15146.09
619.138	14337.15
619.339	14296.19
619.54	14988.4
619.742	14513.27
619.943	14777.46
620.144	14728.31
620.345	15084.66
620.546	15033.46
620.748	14355.58
620.949	14568.57
621.15	15146.09
621.351	15084.66
621.552	14570.62
621.753	14421.11
621.954	14898.29
622.155	15426.67
622.356	14853.23
622.558	14978.16
622.759	15017.07
622.96	15453.29
623.161	14888.05
623.362	15010.93
623.563	15101.04
623.764	15156.33
623.965	14881.91
624.166	15244.4
624.366	15000.69
624.567	15150.19
624.768	14662.77
624.969	14689.4
625.17	14957.68
625.371	15225.97
625.572	15058.03
625.773	14959.73
625.973	15443.05
626.174	15576.17
626.375	15215.73
626.576	14967.92
626.777	15621.22
626.977	15701.09
627.178	15338.6
627.379	15375.47
627.58	15494.25
627.78	15400.04
627.981	15185.01
628.182	15164.53
628.382	15676.52
628.583	15289.45
628.784	15058.03
628.984	15406.19
629.185	15660.13
629.386	15658.09
629.586	15379.56
629.787	15563.88
629.987	15619.17
630.188	15506.54
630.388	15428.71
630.589	15508.58
630.79	16290.91
630.99	15623.27
631.191	15615.08
631.391	15557.74
631.591	15772.77
631.792	16190.56
631.992	15750.24
632.193	15471.72
632.393	16190.56
632.594	15873.12
632.794	15690.85
632.994	15672.42
633.195	15889.51
633.395	15971.43
633.595	15604.84
633.796	15768.68
633.996	15918.18
634.196	16444.51
634.397	15957.09
634.597	16186.46
634.797	15903.84
634.997	16602.2
635.198	16151.65
635.398	15561.83
635.598	16159.84
635.798	16692.31
635.998	16333.92
636.199	15909.99
636.399	16061.54
636.599	16045.15
636.799	15942.75
636.999	16172.13
637.199	16278.62
637.399	16397.4
637.599	16020.58
637.799	16032.86
637.999	16354.4
638.199	16837.72
638.399	16219.23
638.599	16221.28
638.799	16665.69
638.999	17085.52
639.199	16483.42
639.399	16178.27
639.599	16704.6
639.799	16204.89
639.999	16374.88
640.199	16006.24
640.399	16800.85
640.599	16299.1
640.799	16415.83
640.998	16649.3
641.198	16936.02
641.398	16976.98
641.598	16686.17
641.798	16417.88
641.997	17777.73
642.197	16751.7
642.397	16456.79
642.597	16604.25
642.796	16688.21
642.996	17136.72
643.196	16507.99
643.395	16272.48
643.595	17355.85
643.795	16319.58
643.994	16538.71
644.194	16637.02
644.394	17278.03
644.593	17001.55
644.793	16811.09
644.992	16878.68
645.192	16895.06
645.392	16522.33
645.591	16837.72
645.791	17058.9
645.99	17280.08
646.19	16893.01
646.389	16940.11
646.589	16782.42
646.788	17351.76
646.987	17329.23
647.187	17075.28
647.386	17151.06
647.586	17226.83
647.785	17495.11
647.984	16784.47
648.184	17206.35
648.383	17460.3
648.582	17341.52
648.782	17007.7
648.981	17075.28
649.18	16985.17
649.38	17491.02
649.579	17017.94
649.778	17255.5
649.977	17859.65
650.177	17405
650.376	17142.86
650.575	17130.58
650.774	17843.27
650.973	17433.68
651.173	17071.18
651.372	17595.46
651.571	17435.72
651.77	17873.99
651.969	17556.55
652.168	17286.22
652.367	17200.21
652.566	17787.97
652.765	17517.64
652.964	17880.13
653.163	18123.84
653.362	17742.92
653.561	17464.39
653.76	17366.09
653.959	17857.6
654.158	18119.74
654.357	17654.86
654.556	17605.7
654.755	17976.39
654.954	17923.14
655.153	17439.82
655.352	17693.77
655.551	17935.43
655.749	17714.25
655.948	17568.84
656.147	17775.69
656.346	18119.74
656.545	17935.43
656.743	17544.27
656.942	17896.52
657.141	18058.31
657.34	17730.63
657.538	17699.91
657.737	17777.73
657.936	17929.28
658.135	18314.3
658.333	17828.93
658.532	18351.17
658.731	18437.18
658.929	18279.49
659.128	18218.05
659.326	17816.65
659.525	18799.67
659.724	18101.31
659.922	17863.75
660.121	17790.02
660.319	18332.73
660.518	17982.53
660.716	17753.16
660.915	17775.69
661.113	18560.06
661.312	18119.74
661.51	18164.8
661.709	17974.34
661.907	18512.95
662.105	18938.93
662.304	18041.92
662.502	18166.85
662.701	18777.14
662.899	17908.8
663.097	18725.94
663.296	18068.55
663.494	18777.14
663.692	19033.14
663.891	18054.21
664.089	18179.14
664.287	18498.62
664.485	18752.57
664.684	18277.44
664.882	18385.98
665.08	18295.87
665.278	18611.26
665.476	18263.1
665.675	18375.74
665.873	19094.58
666.071	18662.46
666.269	18232.38
666.467	18541.63
666.665	18508.86
666.863	18322.49
667.061	18809.91
667.259	18353.21
667.457	18488.38
667.655	18893.88
667.853	18170.94
668.051	18414.65
668.249	18336.83
668.447	18803.77
668.645	18635.83
668.843	18605.11
669.041	18848.82
669.239	18697.27
669.437	18504.76
669.635	18734.14
669.833	18764.85
670.031	18840.63
670.229	18304.06
670.426	18725.94
670.624	18877.49
670.822	18674.74
671.02	18598.97
671.218	18832.44
671.415	18498.62
671.613	18865.21
671.811	18590.78
672.009	18754.62
672.206	18961.46
672.404	18850.87
672.602	18689.08
672.799	18734.14
672.997	18990.13
673.195	19237.94
673.392	18971.7
673.59	18340.93
673.788	18697.27
673.985	18492.48
674.183	18721.85
674.38	18895.92
674.578	19196.98
674.775	18820.15
674.973	18562.11
675.17	18625.59
675.368	18979.89
675.565	19317.81
675.763	18734.14
675.96	18799.67
676.158	19246.13
676.355	18785.33
676.553	19082.29
676.75	18345.02
676.947	19158.06
677.145	18783.29
677.342	18793.53
677.539	18768.95
677.737	18902.07
677.934	19373.1
678.131	18764.85
678.329	18738.23
678.526	19338.29
678.723	19043.38
678.92	18768.95
679.118	18736.18
679.315	18474.04
679.512	19254.32
679.709	18664.5
679.906	18893.88
680.104	19299.37
680.301	18996.28
680.498	18324.54
680.695	18578.49
680.892	18799.67
681.089	18674.74
681.286	18834.49
681.483	18492.48
681.68	18906.16
681.877	19321.9
682.075	18840.63
682.272	19037.23
682.469	18891.83
682.665	19020.85
682.862	18588.73
683.059	18418.75
683.256	18889.78
683.453	18996.28
683.65	18902.07
683.847	19082.29
684.044	18678.84
684.241	18687.03
684.438	18928.69
684.635	18400.32
684.831	19381.29
685.028	19514.41
685.225	18666.55
685.422	18797.62
685.619	18717.75
685.815	19067.95
686.012	18865.21
686.209	18846.77
686.405	18732.09
686.602	19037.23
686.799	18572.35
686.996	18627.64
687.192	18635.83
687.389	19565.61
687.586	18474.04
687.782	18891.83
687.979	19352.62
688.175	19239.98
688.372	18803.77
688.568	19059.76
688.765	18828.34
688.962	19172.4
689.158	18979.89
689.355	18891.83
689.551	19145.78
689.748	18783.29
689.944	18801.72
690.14	18369.6
690.337	19182.64
690.533	19055.67
690.73	18918.45
690.926	18893.88
691.123	19194.93
691.319	18646.07
691.515	18711.61
691.712	18773.05
691.908	19129.39
692.104	18906.16
692.301	18994.23
692.497	18734.14
692.693	19592.23
692.889	19416.11
693.086	19016.76
693.282	18515
693.478	18867.25
693.674	19201.07
693.87	18682.94
694.067	18660.41
694.263	18873.4
694.459	18650.17
694.655	18840.63
694.851	18979.89
695.047	18893.88
695.243	19117.11
695.439	19006.52
695.635	18816.05
695.831	18943.03
696.027	18957.36
696.224	18453.56
696.42	18881.59
696.615	19346.48
696.811	19397.68
697.007	18492.48
697.203	18629.69
697.399	19002.42
697.595	19235.89
697.791	18572.35
697.987	18904.12
698.183	18480.19
698.379	18646.07
698.575	18672.7
698.77	18713.66
698.966	18959.41
699.162	19070
699.358	18738.23
699.554	18797.62
699.749	19225.65
699.945	18994.23
700.141	18891.83
700.337	18871.35
700.532	18846.77
700.728	18758.71
700.924	18598.97
701.119	18543.67
701.315	18895.92
701.511	18940.98
701.706	18684.98
701.902	18742.33
702.097	18682.94
702.293	19188.78
702.489	18881.59
702.684	18635.83
702.88	18914.36
703.075	19067.95
703.271	18566.2
703.466	18605.11
703.662	18967.6
703.857	19129.39
704.053	18592.83
704.248	18682.94
704.443	18994.23
704.639	19045.43
704.834	18779.19
705.03	18758.71
705.225	19336.24
705.42	19227.7
705.616	18705.46
705.811	18492.48
706.006	18791.48
706.202	18668.6
706.397	18760.76
706.592	18377.79
706.787	18480.19
706.983	18555.96
707.178	19115.06
707.373	18996.28
707.568	18859.06
707.763	19086.39
707.959	18668.6
708.154	18545.72
708.349	18617.4
708.544	19080.24
708.739	18814.01
708.934	18320.45
709.129	19039.28
709.324	19340.33
709.519	18648.12
709.714	18697.27
709.909	19362.86
710.104	18738.23
710.299	18564.15
710.494	18549.82
710.689	19199.02
710.884	18811.96
711.079	18848.82
711.274	18525.24
711.469	18877.49
711.664	18809.91
711.859	18676.79
712.054	19049.52
712.249	18969.65
712.443	18953.27
712.638	18398.27
712.833	18572.35
713.028	18828.34
713.223	18654.26
713.417	18863.16
713.612	18631.74
713.807	19119.15
714.002	19616.81
714.196	18828.34
714.391	18551.87
714.586	18971.7
714.78	18691.13
714.975	18562.11
715.17	18453.56
715.364	18793.53
715.559	19012.66
715.754	18009.15
715.948	18322.49
716.143	19024.95
716.337	18670.65
716.532	18938.93
716.726	18771
716.921	18990.13
717.115	19149.87
717.31	18398.27
717.504	18955.32
717.699	18750.52
717.893	18748.47
718.088	18420.8
718.282	18318.4
718.476	18490.43
718.671	18455.61
718.865	18537.53
719.059	18107.46
719.254	18762.81
719.448	18844.73
719.642	19557.42
719.837	18146.37
720.031	18650.17
720.225	18756.66
720.419	18523.19
720.614	18140.22
720.808	18801.72
721.002	18472
721.196	18328.64
721.39	18035.78
721.585	18846.77
721.779	18570.3
721.973	18324.54
722.167	17996.87
722.361	18398.27
722.555	18768.95
722.749	18193.47
722.943	18299.97
723.137	18175.04
723.331	18646.07
723.525	18332.73
723.719	18265.15
723.913	18381.88
724.107	18537.53
724.301	18109.51
724.495	18484.28
724.689	18668.6
724.883	18635.83
725.077	18234.43
725.271	18269.25
725.465	18818.1
725.659	18623.55
725.853	18539.58
726.046	18191.42
726.24	18148.42
726.434	18551.87
726.628	18302.01
726.822	18070.59
727.015	18619.45
727.209	18482.24
727.403	18299.97
727.596	17998.91
727.79	18566.2
727.984	18570.3
728.177	18066.5
728.371	18324.54
728.565	18848.82
728.758	18113.6
728.952	18209.86
729.146	18216
729.339	19135.54
729.533	18365.5
729.726	18373.69
729.92	17960
730.113	18771
730.307	18500.67
730.5	18279.49
730.694	18136.13
730.887	18406.46
731.081	18631.74
731.274	18375.74
731.468	18185.28
731.661	18738.23
731.854	18318.4
732.048	18302.01
732.241	18338.88
732.435	18125.89
732.628	18543.67
732.821	18232.38
733.014	18191.42
733.208	18168.9
733.401	18502.72
733.594	18205.76
733.788	18254.91
733.981	18594.87
734.174	18443.32
734.367	18246.72
734.56	18527.29
734.754	18781.24
734.947	18584.63
735.14	18308.16
735.333	18572.35
735.526	18744.38
735.719	18484.28
735.912	17978.44
736.105	18211.9
736.298	18615.35
736.491	18166.85
736.684	18256.96
736.877	18050.11
737.07	18521.15
737.263	18721.85
737.456	18259.01
737.649	17935.43
737.842	18521.15
738.035	18551.87
738.228	17970.24
738.421	18158.66
738.614	18895.92
738.807	18494.52
739	17929.28
739.192	18080.83
739.385	18422.84
739.578	18609.21
739.771	18426.94
739.964	18254.91
740.156	18711.61
740.349	18379.84
740.542	18459.71
740.735	18148.42
740.927	18472
741.12	18588.73
741.313	17941.57
741.505	18578.49
741.698	18928.69
741.891	18412.6
742.083	18482.24
742.276	18431.04
742.468	18406.46
742.661	18342.97
742.854	17955.91
743.046	18152.51
743.239	18742.33
743.431	18637.88
743.624	18160.7
743.816	18017.35
744.009	18492.48
744.201	18285.63
744.393	18406.46
744.586	17857.6
744.778	18381.88
744.971	18693.18
745.163	18347.07
745.355	18187.33
745.548	18441.28
745.74	18545.72
745.932	18439.23
746.125	18039.87
746.317	18914.36
746.509	18402.36
746.702	18226.24
746.894	18199.62
747.086	18377.79
747.278	18529.34
747.471	18099.27
747.663	18136.13
747.855	18304.06
748.047	18844.73
748.239	18144.32
748.431	18043.97
748.623	18779.19
748.815	18775.09
749.008	18058.31
749.2	18031.68
749.392	18390.08
749.584	18392.12
749.776	18299.97
749.968	18242.62
750.16	18631.74
750.352	18275.39
750.544	18007.11
750.736	17933.38
750.928	18334.78
751.12	18383.93
751.311	17562.7
751.503	18060.35
751.695	18447.42
751.887	18109.51
752.079	17886.28
752.271	17763.4
752.463	18601.02
752.654	18437.18
752.846	17882.18
753.038	17687.62
753.23	18109.51
753.421	18426.94
753.613	17998.91
753.805	18230.34
753.997	18263.1
754.188	18191.42
754.38	17943.62
754.572	17671.24
754.763	18070.59
754.955	18254.91
755.146	18123.84
755.338	17716.29
755.53	18261.05
755.721	17998.91
755.913	17314.89
756.104	17486.92
756.296	18246.72
756.487	18183.23
756.679	17810.5
756.87	17734.73
757.062	17521.74
757.253	18136.13
757.445	17630.28
757.636	17837.13
757.827	17830.98
758.019	18598.97
758.21	17493.07
758.401	17521.74
758.593	18107.46
758.784	18175.04
758.975	17423.44
759.167	17617.99
759.358	17896.52
759.549	18134.08
759.74	17368.14
759.932	17517.64
760.123	18021.44
760.314	17560.65
760.505	17513.55
760.696	17546.31
760.888	18201.66
761.079	17499.21
761.27	17204.3
761.461	17284.17
761.652	17890.37
761.843	17726.53
762.034	17273.93
762.225	17400.91
762.416	17697.86
762.607	17517.64
762.798	17294.41
762.989	17304.65
763.18	18437.18
763.371	17210.45
763.562	17165.39
763.753	17271.89
763.944	17562.7
764.135	17640.52
764.326	17327.18
764.517	17169.49
764.708	17521.74
764.899	17624.14
765.089	16997.46
765.28	16989.27
765.471	17525.83
765.662	17589.32
765.853	17106
766.043	16602.2
766.234	17847.36
766.425	17400.91
766.615	16946.26
766.806	16845.91
766.997	17509.45
767.187	17167.44
767.378	17024.08
767.569	16479.32
767.759	17204.3
767.95	17325.13
768.141	16925.78
768.331	16747.61
768.522	17259.6
768.712	17235.02
768.903	17224.78
769.093	16720.98
769.284	17488.97
769.474	17208.4
769.665	16401.5
769.855	16688.21
770.046	17181.78
770.236	16809.04
770.426	16850
770.617	16866.39
770.807	17095.76
770.998	16819.28
771.188	16860.24
771.378	16583.77
771.569	17042.51
771.759	16813.14
771.949	16432.22
772.139	16692.31
772.33	16772.18
772.52	17218.64
772.71	16430.17
772.9	16411.74
773.09	17132.62
773.281	17022.03
773.471	16610.39
773.661	16575.58
773.851	16809.04
774.041	16559.19
774.231	16286.81
774.421	16464.99
774.611	17267.79
774.802	16741.46
774.992	16559.19
775.182	16309.34
775.372	16858.2
775.562	17024.08
775.752	16137.31
775.942	16344.16
776.131	16866.39
776.321	16790.61
776.511	16460.89
776.701	16032.86
776.891	16610.39
777.081	16147.55
777.271	16307.29
777.461	16116.83
777.651	16591.96
777.84	16645.21
778.03	16229.47
778.22	16030.82
778.41	16448.6
778.599	16100.45
778.789	16223.33
778.979	16213.09
779.169	16489.56
779.358	16208.99
779.548	16155.74
779.738	15727.72
779.927	16553.05
780.117	15864.93
780.307	16096.35
780.496	15707.24
780.686	16456.79
780.875	16565.34
781.065	15932.51
781.254	15662.18
781.444	16282.72
781.633	16120.93
781.823	15780.96
782.012	15785.06
782.202	16243.81
782.391	16137.31
782.581	15680.61
782.77	16112.74
782.96	16280.67
783.149	16049.25
783.338	15627.37
783.528	15668.33
783.717	16274.53
783.906	16213.09
784.096	16082.02
784.285	15436.91
784.474	15959.14
784.663	15815.78
784.853	15434.86
785.042	15746.15
785.231	15916.13
785.42	16309.34
785.61	15629.41
785.799	15471.72
785.988	15805.54
786.177	15500.39
786.366	15686.76
786.555	15844.45
786.744	16133.22
786.933	15916.13
787.122	15377.51
787.312	15381.61
787.501	15686.76
787.69	16079.97
787.879	15420.52
788.068	15418.47
788.257	15449.19
788.445	15473.77
788.634	15463.53
788.823	15256.68
789.012	16219.23
789.201	16096.35
789.39	15215.73
789.579	15236.2
789.768	15565.93
789.957	15834.21
790.145	15357.03
790.334	15281.26
790.523	15537.26
790.712	15322.22
790.9	15359.08
791.089	15088.75
791.278	15705.19
791.467	15471.72
791.655	15527.02
791.844	15369.32
792.033	15144.05
792.221	15318.12
792.41	14974.06
792.599	14842.99
792.787	15778.92
792.976	15625.32
793.164	15285.36
793.353	15242.35
793.541	15774.82
793.73	15545.45
793.918	15391.85
794.107	14855.28
794.295	15400.04
794.484	15406.19
794.672	15133.81
794.861	14904.43
795.049	15508.58
795.238	15492.2
795.426	14976.11
795.614	15088.75
795.803	15379.56
795.991	15604.84
796.179	15082.61
796.368	14799.99
796.556	15318.12
796.744	14804.08
796.932	14814.32
797.121	15023.22
797.309	14877.81
797.497	15436.91
797.685	15035.5
797.874	14961.78
798.062	15111.28
798.25	15430.76
798.438	14584.95
798.626	14822.52
798.814	15273.07
799.002	15854.69
799.19	14859.38
799.378	14787.7
799.566	15371.37
799.755	15287.4
799.943	14920.82
800.131	14814.32
800.318	15350.89
800.506	15385.71
800.694	14904.43
800.882	14826.61
801.07	15457.39
801.258	15060.08
801.446	14818.42
801.634	15031.41
801.822	15049.84
802.01	15223.92
802.197	14929.01
802.385	14943.35
802.573	15328.36
802.761	15088.75
802.949	15115.37
803.136	14961.78
803.324	15281.26
803.512	15324.27
803.699	15027.31
803.887	14904.43
804.075	15699.05
804.262	15285.36
804.45	14879.86
804.638	15078.51
804.825	15068.27
805.013	15035.5
805.201	15043.7
805.388	15080.56
805.576	15465.58
805.763	15799.4
805.951	15225.97
806.138	15350.89
806.326	16211.04
806.513	15481.96
806.701	15309.93
806.888	15080.56
807.075	15633.51
807.263	15846.5
807.45	14994.54
807.638	15387.75
807.825	16024.67
808.012	15588.46
808.2	15322.22
808.387	15459.43
808.574	15555.69
808.761	15942.75
808.949	14922.87
809.136	15252.59
809.323	15504.49
809.51	15610.98
809.698	15567.98
809.885	15371.37
810.072	15965.28
810.259	16075.87
810.446	15271.02
810.633	15506.54
810.82	16047.2
811.008	15938.66
811.195	15613.03
811.382	15430.76
811.569	15733.86
811.756	15332.46
811.943	15580.26
812.13	15580.26
812.317	15631.46
812.504	15772.77
812.691	15635.56
812.878	15766.63
813.064	16243.81
813.251	15826.02
813.438	15379.56
813.625	15664.23
813.812	15563.88
813.999	15703.14
814.186	15613.03
814.372	15449.19
814.559	15920.23
814.746	15965.28
814.933	15545.45
815.12	15615.08
815.306	15494.25
815.493	15717.48
815.68	15594.6
815.866	15697
816.053	16041.06
816.24	16274.53
816.426	15707.24
816.613	15740.01
816.799	15891.55
816.986	16032.86
817.173	15588.46
817.359	15606.89
817.546	15752.29
817.732	15318.12
817.919	15340.65
818.105	15762.53
818.292	15690.85
818.478	15830.12
818.665	15615.08
818.851	15705.19
819.037	16489.56
819.224	15813.73
819.41	15109.23
819.597	15314.03
819.783	16032.86
819.969	15750.24
820.156	15496.3
820.342	15447.15
820.528	16481.37
820.714	15508.58
820.901	15436.91
821.087	15477.87
821.273	16145.5
821.459	15600.74
821.646	15430.76
821.832	15545.45
822.018	15719.53
822.204	15486.06
822.39	15240.3
822.576	15035.5
822.762	15783.01
822.948	15637.61
823.134	15617.13
823.32	15309.93
823.507	15326.32
823.693	15219.82
823.879	15682.66
824.065	15193.2
824.25	15547.5
824.436	15400.04
824.622	15279.21
824.808	15168.62
824.994	15393.9
825.18	15191.15
825.366	15252.59
825.552	15115.37
825.738	15367.27
825.923	15412.33
826.109	15326.32
826.295	14957.68
826.481	15129.71
826.667	15316.08
826.852	15008.88
827.038	14941.3
827.224	15690.85
827.409	15510.63
827.595	14787.7
827.781	14959.73
827.966	15346.8
828.152	15418.47
828.338	14986.35
828.523	14720.12
828.709	15129.71
828.894	15457.39
829.08	14457.98
829.266	14767.22
829.451	14965.87
829.637	15189.1
829.822	14865.52
830.008	14623.86
830.193	15484.01
830.378	15256.68
830.564	14879.86
830.749	14427.26
830.935	15160.43
831.12	14998.64
831.305	14740.6
831.491	14660.73
831.676	14468.22
831.861	14830.71
832.047	14681.21
832.232	14472.31
832.417	15084.66
832.602	14683.25
832.788	14417.02
832.973	14404.73
833.158	14658.68
833.343	14748.79
833.528	14597.24
833.714	14417.02
833.899	14900.34
834.084	15049.84
834.269	14703.73
834.454	14165.12
834.639	15105.13
834.824	14636.15
835.009	14531.7
835.194	14814.32
835.379	14931.06
835.564	14937.2
835.749	14447.74
835.934	14392.44
836.119	14519.42
836.304	14290.04
836.489	14337.15
836.674	14410.87
836.859	14294.14
837.044	14937.2
837.228	14132.35
837.413	14185.6
837.598	14447.74
837.783	14603.38
837.968	14193.79
838.152	14042.24
838.337	13806.72
838.522	14634.1
838.707	14578.81
838.891	14394.49
839.076	14640.25
839.261	14550.14
839.445	13843.59
839.63	14007.42
839.815	14474.36
839.999	14249.08
840.184	14021.76
840.368	13935.74
840.553	14488.7
840.737	14554.23
840.922	13509.77
841.106	14021.76
841.291	13954.18
841.475	14107.77
841.66	13831.3
841.844	13624.45
842.029	14548.09
842.213	13638.79
842.397	13661.32
842.582	13804.67
842.766	14365.82
842.951	14546.04
843.135	13589.64
843.319	13675.65
843.504	14050.43
843.688	14445.69
843.872	13470.86
844.056	13636.74
844.241	14070.91
844.425	13847.68
844.609	13810.82
844.793	13814.91
844.977	14259.32
845.161	13894.79
845.346	13425.8
845.53	13505.67
845.714	13722.76
845.898	14167.17
846.082	13409.42
846.266	13513.86
846.45	13657.22
846.634	14013.57
846.818	13509.77
847.002	13649.03
847.186	13986.94
847.37	13573.25
847.554	13360.27
847.738	13536.39
847.922	13853.83
848.106	13810.82
848.29	12905.62
848.473	13487.24
848.657	13671.56
848.841	13620.36
849.025	13313.16
849.209	13036.69
849.392	13694.08
849.576	13497.48
849.76	12809.36
849.944	13296.78
850.127	13892.74
850.311	13216.91
850.495	12897.42
850.678	13005.97
850.862	13782.15
851.046	13853.83
851.229	13382.79
851.413	12952.72
851.596	13438.09
851.78	13237.39
851.964	13167.76
852.147	13184.14
852.331	13773.96
852.514	13649.03
852.698	13282.44
852.881	13171.85
853.065	13460.62
853.248	13122.7
853.431	13188.24
853.615	13237.39
853.798	13733
853.982	13300.87
854.165	13020.3
854.348	12620.95
854.532	13091.98
854.715	12762.26
854.898	12971.15
855.081	12627.09
855.265	13526.15
855.448	13251.72
855.631	12655.76
855.814	12633.24
855.997	13393.03
856.181	13139.08
856.364	12825.75
856.547	12438.68
856.73	13106.32
856.913	12979.34
857.096	12596.37
857.279	12551.32
857.462	12778.64
857.645	13128.84
857.828	12637.33
858.011	12709.01
858.194	12737.68
858.377	13151.37
858.56	12526.74
858.743	12715.16
858.926	12688.53
859.109	12838.03
859.292	12420.25
859.475	12479.64
859.658	12985.49
859.841	12981.39
860.023	12323.99
860.206	12184.73
860.389	12616.85
860.572	12922
860.755	12319.9
860.937	12326.04
861.12	12678.29
861.303	12426.39
861.486	12489.88
861.668	12072.09
861.851	12547.22
862.034	12561.56
862.216	12364.95
862.399	11771.04
862.581	12350.62
862.764	12647.57
862.947	12348.57
863.129	12061.85
863.312	12020.89
863.494	12557.46
863.677	12084.38
863.859	11711.65
864.042	12477.59
864.224	12561.56
864.406	12002.46
864.589	11738.27
864.771	12489.88
864.954	11840.67
865.136	11979.93
865.318	11558.05
865.501	12176.54
865.683	11740.32
865.865	11558.05
866.048	11736.23
866.23	12289.18
866.412	12098.72
866.594	11558.05
866.777	11773.09
866.959	12168.35
867.141	11791.52
867.323	11867.3
867.505	11678.88
867.687	12125.34
867.869	11906.21
868.052	11750.56
868.234	11410.6
868.416	11834.53
868.598	12350.62
868.78	11539.62
868.962	11429.03
869.144	12217.5
869.326	12096.67
869.508	11496.61
869.69	11543.72
869.872	11650.21
870.054	12287.13
870.236	11578.53
870.417	11365.54
870.599	11691.17
870.781	12207.26
870.963	11807.91
871.145	11469.99
871.327	11599.01
871.508	12022.94
871.69	11467.94
871.872	11631.78
872.054	11877.54
872.235	11857.06
872.417	11613.35
872.599	11343.02
872.78	12145.82
872.962	11689.12
873.144	11099.31
873.325	11537.57
873.507	12123.29
873.689	11707.55
873.87	11265.19
874.052	11560.1
874.233	11820.19
874.415	12190.88
874.596	11639.97
874.778	11517.09
874.959	11527.33
875.141	12162.2
875.322	11500.71
875.503	11410.6
875.685	11965.6
875.866	11402.41
876.048	11410.6
876.229	11416.74
876.41	11781.28
876.592	11689.12
876.773	11422.89
876.954	11267.24
877.136	12252.31
877.317	11721.89
877.498	11416.74
877.679	11480.23
877.86	11981.98
878.042	11857.06
878.223	11469.99
878.404	12139.68
878.585	11793.57
878.766	12147.87
878.947	12049.57
879.128	11832.48
879.309	12049.57
879.49	12356.76
879.672	11967.65
879.853	11576.48
880.034	11758.75
880.215	12029.09
880.396	11949.22
880.576	11748.51
880.757	11926.69
880.938	12274.84
881.119	11738.27
881.3	11926.69
881.481	12045.47
881.662	13036.69
881.843	11836.58
882.023	11697.31
882.204	12172.44
882.385	12223.64
882.566	11938.98
882.747	11981.98
882.927	12418.2
883.108	12199.07
883.289	11971.74
883.469	12141.72
883.65	12201.12
883.831	12123.29
884.011	12319.9
884.192	12278.94
884.373	12878.99
884.553	12715.16
884.734	12420.25
884.914	12405.91
885.095	12969.1
885.275	12817.55
885.456	12563.61
885.636	12043.42
885.817	12522.65
885.997	12332.19
886.178	12137.63
886.358	12188.83
886.538	12524.69
886.719	13644.93
886.899	12262.55
887.08	12381.34
887.26	12864.66
887.44	12313.75
887.621	12127.39
887.801	12606.61
887.981	13106.32
888.161	12788.88
888.342	12385.43
888.522	12561.56
888.702	12778.64
888.882	12971.15
889.062	12682.39
889.242	12162.2
889.423	13028.49
889.603	12975.25
889.783	12614.8
889.963	12309.66
890.143	12885.14
890.323	12954.77
890.503	12721.3
890.683	12266.65
890.863	12881.04
891.043	12893.33
891.223	12528.79
891.403	13018.25
891.583	12893.33
891.763	12846.23
891.943	12594.33
892.122	12606.61
892.302	12899.47
892.482	12856.47
892.662	12713.11
892.842	12754.07
893.022	12922
893.201	12573.85
893.381	12899.47
893.561	12543.13
893.741	12960.91
893.92	13048.97
894.1	12764.31
894.28	12749.97
894.459	13208.72
894.639	12993.68
894.819	12696.72
894.998	12782.74
895.178	12991.63
895.357	12858.51
895.537	12369.05
895.716	12706.96
895.896	12817.55
896.075	13397.13
896.255	12547.22
896.434	12424.34
896.614	13061.26
896.793	13034.64
896.973	12891.28
897.152	12510.36
897.331	12885.14
897.511	13114.51
897.69	12436.63
897.87	12655.76
898.049	12969.1
898.228	12756.11
898.407	12618.9
898.587	12584.09
898.766	12721.3
898.945	12979.34
899.124	12852.37
899.304	12485.78
899.483	12864.66
899.662	13112.46
899.841	12192.92
900.02	12541.08
900.199	12952.72
900.378	12678.29
900.557	12401.82
900.737	12323.99
900.916	12528.79
901.095	12864.66
901.274	12623
901.453	12184.73
901.632	12483.73
901.811	12111
901.989	12369.05
902.168	12131.48
902.347	12835.99
902.526	12338.33
902.705	12430.49
902.884	12307.61
903.063	12930.19
903.242	12811.41
903.42	12123.29
903.599	12283.03
903.778	12690.58
903.957	12825.75
904.135	12389.53
904.314	12229.79
904.493	12686.48
904.672	12534.93
904.85	12084.38
905.029	12223.64
905.207	12416.15
905.386	13237.39
905.565	11738.27
905.743	11895.97
905.922	11998.37
906.1	12176.54
906.279	11902.11
906.457	11869.34
906.636	12035.23
906.814	12172.44
906.993	11650.21
907.171	11748.51
907.35	12387.48
907.528	12317.85
907.707	12059.81
907.885	11787.43
908.063	12344.47
908.242	11855.01
908.42	11848.86
908.598	11459.75
908.777	11992.22
908.955	11799.71
909.133	11783.33
909.311	11631.78
909.49	11656.36
909.668	11852.96
909.846	11623.59
910.024	11224.23
910.202	11971.74
910.38	11902.11
910.559	11177.13
910.737	11373.74
910.915	11783.33
911.093	11764.9
911.271	11326.63
911.449	11836.58
911.627	11773.09
911.805	11920.54
911.983	11234.47
912.161	11037.87
912.339	11617.44
912.517	12002.46
912.695	11412.65
912.872	11181.23
913.05	11332.78
913.228	11500.71
913.406	11220.14
913.584	10980.53
913.762	11469.99
913.939	11115.69
914.117	11314.34
914.295	11154.6
914.473	11375.78
914.65	11222.19
914.828	11072.68
915.006	10667.19
915.184	10908.85
915.361	11340.97
915.539	11095.21
915.716	10882.22
915.894	11267.24
916.072	11099.31
916.249	10906.8
916.427	10972.33
916.604	10605.75
916.782	10908.85
916.959	10480.82
917.137	10536.12
917.314	11074.73
917.492	10992.81
917.669	10636.47
917.847	10359.99
918.024	10851.5
918.201	10790.06
918.379	10552.5
918.556	10560.69
918.733	10890.42
918.911	10640.56
919.088	10630.32
919.265	10403
919.442	10599.6
919.62	10519.73
919.797	10132.67
919.974	10114.24
920.151	10433.72
920.328	10190.01
920.506	10128.57
920.683	10476.73
920.86	10073.28
921.037	10052.8
921.214	10204.35
921.391	9823.42
921.568	10587.32
921.745	9882.81
921.922	10052.8
922.099	9723.07
922.276	10257.59
922.453	10282.17
922.63	9620.67
922.807	10017.98
922.984	9766.08
923.161	9807.04
923.338	9737.41
923.514	9538.76
923.691	9792.7
923.868	10058.94
924.045	9487.56
924.222	9366.73
924.399	9796.8
924.575	9886.91
924.752	9559.24
924.929	9602.24
925.105	9848
925.282	9438.41
925.459	9362.63
925.635	9249.99
925.812	9354.44
925.989	9260.23
926.165	9274.57
926.342	8994
926.518	9016.52
926.695	9376.97
926.871	8971.47
927.048	8998.09
927.224	9571.52
927.401	9006.28
927.577	8862.93
927.754	8684.75
927.93	9342.15
928.107	9272.52
928.283	8770.77
928.459	8940.75
928.636	8944.84
928.812	8920.27
928.988	8719.57
929.165	8441.04
929.341	8635.6
929.517	8864.97
929.693	8924.37
929.87	8154.33
930.046	8877.26
930.222	8678.61
930.398	8357.08
930.574	8334.55
930.751	8688.85
930.927	8340.69
931.103	8187.1
931.279	8244.44
931.455	8045.79
931.631	8373.46
931.807	7816.41
931.983	7888.09
932.159	7912.67
932.335	8168.66
932.511	7830.75
932.687	7752.93
932.863	8105.18
933.039	7957.72
933.215	7480.55
933.391	7562.47
933.566	7668.96
933.742	7789.79
933.918	7666.91
934.094	7324.9
934.27	7662.82
934.445	7658.72
934.621	7269.61
934.797	7257.32
934.973	7521.51
935.148	7304.42
935.324	6976.75
935.5	6548.72
935.675	7298.28
935.851	7116.01
936.027	6800.62
936.202	6618.35
936.378	7013.61
936.553	6720.75
936.729	6819.05
936.904	6118.65
937.08	5985.53
937.255	6175.99
937.431	5811.45
937.606	5606.66
937.782	5803.26
937.957	5997.82
938.133	5653.76
938.308	5549.31
938.483	5741.82
938.659	5500.16
938.834	5387.52
939.009	5221.64
939.185	5264.65
939.36	5233.93
939.535	4617.49
939.71	5125.38
939.886	5424.39
940.061	5246.21
940.236	4836.62
940.411	4826.38
940.586	5063.94
940.761	5061.9
940.937	4676.88
941.112	4377.87
941.287	4703.5
941.462	4670.73
941.637	4271.38
941.812	4187.41
941.987	4711.69
942.162	4443.41
942.337	4357.39
942.512	4373.78
942.687	4658.45
942.862	4474.13
943.037	4037.91
943.212	3759.39
943.386	4185.37
943.561	4422.93
943.736	4111.64
943.911	4220.18
944.086	4257.04
944.26	4392.21
944.435	4062.49
944.61	4115.73
944.785	4388.11
944.959	4384.02
945.134	3996.95
945.309	3966.23
945.483	4080.92
945.658	4246.8
945.833	3501.34
946.007	3693.85
946.182	4568.34
946.357	3900.7
946.531	3919.13
946.706	3933.47
946.88	3747.1
947.055	4236.56
947.229	3861.79
947.404	3706.14
947.578	4242.71
947.752	3910.94
947.927	3700
948.101	3798.3
948.276	4005.14
948.45	4308.24
948.624	4005.14
948.799	3708.19
948.973	4125.97
949.147	3822.87
949.321	3933.47
949.496	3724.57
949.67	4373.78
949.844	4068.63
950.018	3906.84
950.193	3847.45
950.367	4756.75
950.541	4078.87
950.715	4044.06
950.889	4050.2
951.063	4121.88
951.237	4216.08
951.411	3636.51
951.585	3802.4
951.759	4320.53
951.933	3935.51
952.107	3867.93
952.281	4152.6
952.455	4562.19
952.629	4257.04
952.803	3730.72
952.977	3876.12
953.151	4236.56
953.325	4111.64
953.499	3939.61
953.672	3675.42
953.846	3882.27
954.02	4031.77
954.194	3761.44
954.368	3708.19
954.541	4138.26
954.715	3835.16
954.889	3929.37
955.062	3669.28
955.236	4095.25
955.41	3943.71
955.583	3968.28
955.757	3757.34
955.93	4037.91
956.104	3773.72
956.278	3806.49
956.451	3904.79
956.625	4103.45
956.798	4584.72
956.972	3945.75
957.145	3587.36
957.319	4164.89
957.492	3974.42
957.665	3976.47
957.839	3777.82
958.012	4089.11
958.185	3837.21
958.359	3771.68
958.532	4029.72
958.705	4150.55
958.879	4048.15
959.052	3851.55
959.225	3638.56
959.398	4078.87
959.572	4050.2
959.745	3517.73
959.918	3736.86
960.091	3853.59
960.264	4050.2
960.438	3581.21
960.611	3570.97
960.784	4089.11
960.957	3837.21
961.13	4103.45
961.303	3652.89
961.476	3843.35
961.649	4025.62
961.822	3753.24
961.995	3726.62
962.168	4199.7
962.341	3849.5
962.514	3595.55
962.686	3517.73
962.859	3964.18
963.032	4052.25
963.205	3654.94
963.378	3487.01
963.551	3999
963.723	3841.31
963.896	3693.85
964.069	3749.15
964.242	3820.83
964.414	4037.91
964.587	3579.17
964.76	3597.6
964.932	3933.47
965.105	3726.62
965.278	3652.89
965.45	3511.58
965.623	3829.02
965.795	3972.38
965.968	3679.52
966.14	3581.21
966.313	3790.11
966.485	3775.77
966.658	3544.35
966.83	3366.18
967.003	4054.3
967.175	3976.47
967.348	3407.14
967.52	3548.45
967.692	4130.07
967.865	3743
968.037	3413.28
968.209	3599.65
968.382	3726.62
968.554	3982.62
968.726	3521.82
968.898	3423.52
969.071	3689.76
969.243	3837.21
969.415	3415.33
969.587	3663.13
969.759	4058.39
969.932	3824.92
970.104	3411.23
970.276	3108.13
970.448	3558.69
970.62	3583.26
970.792	3517.73
970.964	3517.73
971.136	4037.91
971.308	3849.5
971.48	3337.51
971.652	3407.14
971.824	4050.2
971.996	3484.96
972.168	3347.75
972.339	3427.62
972.511	3730.72
972.683	3558.69
972.855	3536.16
973.027	3409.19
973.199	3503.39
973.37	3751.2
973.542	3460.38
973.714	3431.71
973.886	3509.54
974.057	3700
974.229	3202.34
974.401	3222.82
974.572	3405.09
974.744	3075.37
974.915	3188
975.087	3206.44
975.259	3685.66
975.43	3282.21
975.602	3351.84
975.773	3097.89
975.945	3231.01
976.116	3515.68
976.288	3122.47
976.459	3267.88
976.63	3259.68
976.802	3415.33
976.973	3185.96
977.145	3192.1
977.316	3863.83
977.487	3446.05
977.659	3271.97
977.83	3181.86
978.001	3794.2
978.172	3378.47
978.344	3138.85
978.515	3226.92
978.686	3224.87
978.857	3568.93
979.028	3114.28
979.2	3147.05
979.371	3509.54
979.542	3298.59
979.713	3259.68
979.884	2694.44
980.055	3155.24
980.226	3206.44
980.397	3030.31
980.568	2915.62
980.739	3460.38
980.91	3075.37
981.081	3108.13
981.252	2862.38
981.423	3343.65
981.594	3444
981.765	2768.17
981.936	3050.79
982.106	3054.89
982.277	3446.05
982.448	2981.16
982.619	3069.22
982.79	2950.44
982.96	3368.23
983.131	3069.22
983.302	2719.02
983.472	2966.82
983.643	3298.59
983.814	2954.54
983.984	2753.84
984.155	2981.16
984.326	3337.51
984.496	2940.2
984.667	2802.99
984.837	2886.95
985.008	3386.66
985.178	3024.17
985.349	2872.62
985.519	3046.69
985.69	2813.23
985.86	2825.51
986.031	2759.98
986.201	3083.56
986.371	3153.19
986.542	2614.57
986.712	2530.61
986.882	3155.24
987.053	3147.05
987.223	2708.78
987.393	2870.57
987.563	2737.45
987.734	3038.5
987.904	2968.87
988.074	2641.2
988.244	3005.74
988.414	2780.46
988.585	2723.12
988.755	2805.03
988.925	2878.76
989.095	3212.58
989.265	2583.85
989.435	2710.83
989.605	2901.29
989.775	3042.6
989.945	2968.87
990.115	2280.75
990.285	2854.19
990.455	2802.99
990.625	2778.41
990.795	2514.22
990.965	3165.48
991.134	2706.73
991.304	2553.13
991.474	2583.85
991.644	2921.77
991.814	3161.38
991.984	2395.44
992.153	2477.36
992.323	2764.08
992.493	2731.31
992.662	2223.41
992.832	2542.89
993.002	2727.21
993.171	2858.28
993.341	2297.14
993.511	2706.73
993.68	2530.61
993.85	2925.86
994.019	2252.08
994.189	2344.24
994.358	2821.42
994.528	2532.65
994.697	2088.25
994.867	2338.1
995.036	2762.03
995.206	2534.7
995.375	2235.7
995.544	2510.13
995.714	2628.91
995.883	2549.04
996.052	2522.41
996.222	2125.11
996.391	2981.16
996.56	2526.51
996.73	2264.37
996.899	2147.64
997.068	2989.35
997.237	2557.23
997.406	2043.19
997.576	2229.56
997.745	2538.8
997.914	2555.18
998.083	2000.18
998.252	2270.51
998.421	2540.85
998.59	2329.91
998.759	2137.4
998.928	2125.11
999.097	2739.5
999.266	2413.87
999.435	2137.4
999.604	1928.5
999.773	2876.71
999.942	2286.9
1000.111	2067.77
1000.28	1996.09
1000.448	2247.99
1000.617	2225.46
1000.786	2319.67
1000.955	1973.56
1001.124	2546.99
1001.292	3046.69
1001.461	2071.86
1001.63	2049.33
1001.798	2753.84
1001.967	2788.65
1002.136	1838.39
1002.304	1940.79
1002.473	2411.82
1002.642	2391.34
1002.81	2026.81
1002.979	1908.02
1003.147	2428.21
1003.316	2897.19
1003.484	2049.33
1003.653	1869.11
1003.821	2610.48
1003.99	2106.68
1004.158	1989.94
1004.327	2061.62
1004.495	2295.09
1004.663	2157.88
1004.832	2024.76
1005	1822.01
1005.168	2264.37
1005.337	2268.47
1005.505	1772.86
1005.673	1963.32
1005.842	2391.34
1006.01	2323.76
1006.178	1850.68
1006.346	1887.54
1006.514	2282.8
1006.683	2313.52
1006.851	1701.18
1007.019	1746.23
1007.187	1946.94
1007.355	1701.18
1007.523	1572.16
1007.691	1713.47
1007.859	1869.11
1008.027	2377.01
1008.195	1840.44
1008.363	1520.96
1008.531	2231.6
1008.699	1930.55
1008.867	1484.09
1009.035	1705.28
1009.203	2188.6
1009.37	1985.85
1009.538	1764.67
1009.706	2080.05
1009.874	2028.85
1010.042	1998.13
1010.209	1547.58
1010.377	1619.26
1010.545	2284.85
1010.713	2043.19
1010.88	1561.92
1011.048	1680.7
1011.216	1858.87
1011.383	2278.71
1011.551	1641.79
1011.718	1529.15
1011.886	2078.01
1012.054	1887.54
1012.221	1473.85
1012.389	1629.5
1012.556	1985.85
1012.724	2325.81
1012.891	1547.58
1013.058	1326.4
1013.226	1936.7
1013.393	1932.6
1013.561	1355.07
1013.728	1412.42
1013.895	2153.78
1014.063	2063.67
1014.23	1363.26
1014.397	1457.47
1014.565	2145.59
1014.732	1721.66
1014.899	1422.66
1015.066	1408.32
1015.233	1768.76
1015.401	1867.06
1015.568	1570.11
1015.735	1539.39
1015.902	1901.88
1016.069	1912.12
1016.236	1447.23
1016.403	1293.63
1016.57	1606.97
1016.737	1989.94
1016.904	1391.94
1017.071	1211.71
1017.238	1600.83
1017.405	1940.79
1017.572	1389.89
1017.739	1486.14
1017.906	1711.42
1018.073	1862.97
1018.24	1207.62
1018.407	1447.23
1018.573	1936.7
1018.74	1592.64
1018.907	1363.26
1019.074	1170.76
1019.241	1729.85
1019.407	1670.46
1019.574	1273.15
1019.741	1189.19
1019.907	1727.8
1020.074	1836.35
1020.241	1045.83
1020.407	1219.91
1020.574	1721.66
1020.74	1774.91
1020.907	1260.87
1021.073	1164.61
1021.24	2100.53
1021.406	1924.41
1021.573	1154.37
1021.739	1219.91
1021.906	1779
1022.072	1496.38
1022.239	1205.57
1022.405	1199.43
1022.571	1570.11
1022.738	1465.66
1022.904	1160.52
1023.07	1230.15
1023.237	1449.28
1023.403	1846.59
1023.569	1170.76
1023.735	1125.7
1023.902	1576.25
1024.068	1609.02
1024.234	1006.92
1024.4	1078.6
1024.566	1428.8
1024.732	1553.73
1024.898	1174.85
1025.065	929.1
1025.231	1596.73
1025.397	1344.83
1025.563	1019.21
1025.729	1006.92
1025.895	826.7
1026.061	1305.92
1026.227	861.51
1026.392	992.58
1026.558	1584.45
1026.724	1475.9
1026.89	990.53
1027.056	1045.83
1027.222	1480
1027.388	1279.3
1027.553	1090.88
1027.719	947.53
1027.885	1760.57
1028.051	1496.38
1028.216	838.98
1028.382	992.58
1028.548	1469.76
1028.713	1185.09
1028.879	857.42
1029.045	1097.03
1029.21	1656.12
1029.376	1559.87
1029.541	961.86
1029.707	955.72
1029.873	1371.46
1030.038	1412.42
1030.204	830.79
1030.369	941.38
1030.534	1393.98
1030.7	1172.8
1030.865	1006.92
1031.031	752.97
1031.196	1346.88
1031.361	1262.91
1031.527	906.57
1031.692	847.18
1031.857	834.89
1032.023	1359.17
1032.188	845.13
1032.353	894.28
1032.518	1582.4
1032.684	1219.91
1032.849	626
1033.014	818.5
1033.179	1334.59
1033.344	1320.26
1033.509	970.05
1033.674	869.7
1033.839	1232.19
1034.004	1324.35
1034.17	841.03
1034.335	793.93
1034.5	990.53
1034.664	943.43
1034.829	658.76
1034.994	865.61
1035.159	1269.06
1035.324	1299.78
1035.489	818.5
1035.654	638.28
1035.819	1420.61
1035.984	1219.91
1036.148	757.07
1036.313	789.83
1036.478	1330.5
1036.643	1107.27
1036.807	740.68
1036.972	640.33
1037.137	1391.94
1037.301	1191.24
1037.466	470.35
1037.631	859.46
1037.795	1316.16
1037.96	1125.7
1038.124	869.7
1038.289	474.45
1038.454	1203.52
1038.618	1217.86
1038.783	705.87
1038.947	771.4
1039.111	998.73
1039.276	865.61
1039.44	576.84
1039.605	1142.08
1039.769	898.38
1039.933	900.42
1040.098	605.52
1040.262	808.27
1040.426	1185.09
1040.591	1150.28
1040.755	568.65
1040.919	523.6
1041.083	1146.18
1041.248	1062.21
1041.412	509.26
1041.576	601.42
1041.74	959.81
1041.904	1099.08
1042.068	476.49
1042.232	587.08
1042.397	1074.5
1042.561	1064.26
1042.725	347.47
1042.889	785.74
1043.053	1045.83
1043.217	1017.16
1043.381	744.78
1043.544	517.45
1043.708	1146.18
1043.872	750.92
1044.036	320.85
1044.2	478.54
1044.364	1101.12
1044.528	1336.64
1044.691	3941.66
1044.855	335.18
1045.019	1127.75
1045.183	1092.93
1045.346	486.73
1045.51	433.49
1045.674	1066.31
1045.837	1006.92
1046.001	531.79
1046.165	535.89
1046.328	1420.61
1046.492	1041.73
1046.655	626
1046.819	546.12
1046.983	640.33
1047.146	906.57
1047.31	539.98
1047.473	247.12
1047.636	834.89
1047.8	658.76
1047.963	453.97
1048.127	425.29
1048.29	601.42
