Data from Ink_Intensity_USB4F045381__123__00123.txt Node

Date: Mon Jul 17 11:13:05 EDT 2023
User: mmckonesweet
Spectrometer: USB4F04538
Trigger mode: 4
Integration Time (sec): 9.000000E-1
Scans to average: 1
Electric dark correction enabled: true
Nonlinearity correction enabled: false
Boxcar width: 0
XAxis mode: Wavelengths
Number of Pixels in Spectrum: 3648
>>>>>Begin Spectral Data<<<<<
345.52	-965.11
345.736	-965.11
345.952	-965.11
346.168	-1044.98
346.384	-997.87
346.6	-147.97
346.816	-221.69
347.032	-174.59
347.248	247.29
347.464	-285.18
347.68	-160.25
347.896	69.12
348.112	443.9
348.328	-29.18
348.544	-29.18
348.76	-0.51
348.975	288.25
349.191	-203.26
349.407	-154.11
349.623	-8.7
349.839	-96.77
350.055	-199.16
350.27	52.74
350.486	163.33
350.702	376.31
350.918	269.82
351.133	-131.58
351.349	62.98
351.565	314.88
351.781	-274.94
351.996	-20.99
352.212	284.16
352.428	-190.97
352.644	-195.07
352.859	-252.41
353.075	245.24
353.291	79.36
353.506	-119.29
353.722	-336.38
353.938	-55.81
354.153	415.23
354.369	34.3
354.584	-242.17
354.8	192
355.016	-330.23
355.231	-174.59
355.447	-16.9
355.662	159.23
355.878	843.25
356.093	-401.91
356.309	-20.99
356.524	-250.36
356.74	275.96
356.955	-246.27
357.171	-12.8
357.386	54.78
357.602	-246.27
357.817	-123.39
358.033	-176.64
358.248	339.45
358.464	275.96
358.679	-197.12
358.895	-252.41
359.11	-133.63
359.325	259.58
359.541	54.78
359.756	1.54
359.972	-205.31
360.187	120.32
360.402	-227.84
360.618	-209.4
360.833	1021.42
361.048	124.41
361.264	-131.58
361.479	-115.2
361.694	-10.75
361.909	237.05
362.125	-258.56
362.34	-160.25
362.555	269.82
362.77	28.16
362.986	-279.04
363.201	-193.02
363.416	226.81
363.631	77.31
363.847	-199.16
364.062	-107.01
364.277	189.95
364.492	77.31
364.707	-127.49
364.922	-395.77
365.138	278.01
365.353	321.02
365.568	-266.75
365.783	-68.09
365.998	67.07
366.213	523.77
366.428	-264.7
366.643	-49.66
366.858	173.57
367.073	200.19
367.288	-154.11
367.503	-287.23
367.718	169.47
367.933	333.31
368.148	-367.1
368.363	36.35
368.578	-70.14
368.793	400.89
369.008	-119.29
369.223	-276.99
369.438	192
369.653	392.7
369.868	-301.56
370.083	-246.27
370.298	118.27
370.513	366.07
370.728	-23.04
370.943	-215.55
371.157	-270.84
371.372	521.72
371.587	-324.09
371.802	-270.84
372.017	89.6
372.232	466.42
372.446	-78.33
372.661	-270.84
372.876	198.14
373.091	253.44
373.306	-88.57
373.52	-315.9
373.735	-193.02
373.95	462.33
374.165	-170.49
374.379	-102.91
374.594	-143.87
374.809	179.71
375.023	-16.9
375.238	-266.75
375.453	294.4
375.667	-305.66
375.882	-254.46
376.097	-201.21
376.311	-25.09
376.526	-0.51
376.741	-266.75
376.955	89.6
377.17	581.11
377.384	550.39
377.599	-102.91
377.813	-289.28
378.028	579.06
378.242	179.71
378.457	-102.91
378.672	-436.73
378.886	122.37
379.101	-2.56
379.315	-266.75
379.53	-158.21
379.744	269.82
379.958	153.09
380.173	-94.72
380.387	-285.18
380.602	157.18
380.816	-115.2
381.031	-266.75
381.245	-172.54
381.459	222.72
381.674	2678.23
381.888	-227.84
382.103	28.16
382.317	-199.16
382.531	458.23
382.746	-90.62
382.96	-256.51
383.174	-59.9
383.388	445.95
383.603	42.5
383.817	-293.37
384.031	128.51
384.246	468.47
384.46	34.3
384.674	228.86
384.888	9.73
385.103	40.45
385.317	-320
385.531	-49.66
385.745	329.21
385.959	388.6
386.174	-166.4
386.388	-213.5
386.602	32.26
386.816	-107.01
387.03	-117.25
387.244	-139.77
387.458	56.83
387.672	310.78
387.887	-324.09
388.101	-303.61
388.315	306.68
388.529	75.26
388.743	-219.64
388.957	-258.56
389.171	314.88
389.385	-262.65
389.599	-123.39
389.813	89.6
390.027	177.66
390.241	605.69
390.455	-119.29
390.669	-78.33
390.883	-25.09
391.097	361.98
391.311	1.54
391.525	-254.46
391.738	175.61
391.952	255.48
392.166	-43.52
392.38	-250.36
392.594	321.02
392.808	253.44
393.022	-53.76
393.236	-174.59
393.449	214.52
393.663	177.66
393.877	-279.04
394.091	-74.24
394.305	-197.12
394.518	-180.73
394.732	-303.61
394.946	-186.88
395.16	392.7
395.373	32.26
395.587	-350.71
395.801	-152.06
396.015	298.49
396.228	259.58
396.442	-320
396.656	-369.15
396.869	355.83
397.083	474.62
397.297	-90.62
397.51	-209.4
397.724	366.07
397.938	118.27
398.151	-320
398.365	-299.52
398.578	204.28
398.792	343.55
399.005	-76.29
399.219	-156.16
399.433	56.83
399.646	179.71
399.86	-25.09
400.073	7.68
400.287	202.24
400.5	-0.51
400.714	-35.33
400.927	-66.05
401.141	218.62
401.354	1060.34
401.567	157.18
401.781	-299.52
401.994	249.34
402.208	583.16
402.421	-180.73
402.635	-102.91
402.848	-43.52
403.061	329.21
403.275	-96.77
403.488	-270.84
403.701	478.71
403.915	224.76
404.128	65.02
404.341	-162.3
404.555	196.09
404.768	-10.75
404.981	-64
405.195	-238.08
405.408	433.66
405.621	271.87
405.834	-29.18
406.048	-266.75
406.261	458.23
406.474	407.03
406.687	-215.55
406.9	-72.19
407.114	42.5
407.327	181.76
407.54	-276.99
407.753	-272.89
407.966	-104.96
408.179	204.28
408.392	-131.58
408.605	-307.71
408.819	200.19
409.032	187.9
409.245	-264.7
409.458	-27.14
409.671	169.47
409.884	247.29
410.097	-291.32
410.31	9.73
410.523	224.76
410.736	-57.86
410.949	-115.2
411.162	-166.4
411.375	341.5
411.588	300.54
411.801	24.06
412.014	-252.41
412.227	13.82
412.44	-10.75
412.653	-152.06
412.865	-88.57
413.078	214.52
413.291	77.31
413.504	-74.24
413.717	-238.08
413.93	255.48
414.143	-170.49
414.356	-188.93
414.568	-385.53
414.781	351.74
414.994	103.93
415.207	-84.48
415.42	-152.06
415.632	212.48
415.845	462.33
416.058	-330.23
416.271	-186.88
416.483	11.78
416.696	556.54
416.909	-164.35
417.121	-180.73
417.334	167.42
417.547	466.42
417.759	-256.51
417.972	-301.56
418.185	-109.05
418.397	220.67
418.61	-260.6
418.823	-233.98
419.035	329.21
419.248	36.35
419.46	-115.2
419.673	-49.66
419.885	128.51
420.098	34.3
420.311	-211.45
420.523	-399.87
420.736	245.24
420.948	62.98
421.161	-170.49
421.373	-395.77
421.586	99.84
421.798	-147.97
422.01	-350.71
422.223	-98.81
422.435	-92.67
422.648	185.85
422.86	-166.4
423.073	-168.45
423.285	327.16
423.497	-260.6
423.71	-221.69
423.922	-238.08
424.134	108.03
424.347	411.13
424.559	-55.81
424.771	69.12
424.984	-37.38
425.196	71.17
425.408	-336.38
425.621	-281.08
425.833	282.11
426.045	327.16
426.257	-274.94
426.47	-272.89
426.682	165.37
426.894	151.04
427.106	-195.07
427.318	-139.77
427.531	-74.24
427.743	167.42
427.955	-154.11
428.167	290.3
428.379	132.61
428.591	-66.05
428.804	-86.53
429.016	-285.18
429.228	-100.86
429.44	157.18
429.652	44.54
429.864	-303.61
430.076	34.3
430.288	11.78
430.5	-115.2
430.712	-115.2
430.924	243.2
431.136	79.36
431.348	-272.89
431.56	-225.79
431.772	7.68
431.984	-152.06
432.196	-250.36
432.408	-190.97
432.62	-14.85
432.832	142.85
433.044	120.32
433.256	-141.82
433.468	278.01
433.679	-240.12
433.891	-264.7
434.103	28.16
434.315	323.07
434.527	220.67
434.739	-72.19
434.95	-186.88
435.162	218.62
435.374	-127.49
435.586	-184.83
435.798	-121.34
436.009	-242.17
436.221	-10.75
436.433	-180.73
436.645	-119.29
436.856	-111.1
437.068	329.21
437.28	-215.55
437.491	155.13
437.703	146.94
437.915	81.41
438.126	-145.92
438.338	118.27
438.55	-43.52
438.761	151.04
438.973	-158.21
439.184	-190.97
439.396	-72.19
439.608	249.34
439.819	-250.36
440.031	-61.95
440.242	187.9
440.454	228.86
440.665	-186.88
440.877	-29.18
441.088	224.76
441.3	-25.09
441.511	-344.57
441.723	-180.73
441.934	216.57
442.146	71.17
442.357	-82.43
442.569	7.68
442.78	134.65
442.991	445.95
443.203	95.74
443.414	-332.28
443.626	333.31
443.837	-90.62
444.048	-236.03
444.26	-276.99
444.471	105.98
444.682	230.91
444.894	-356.86
445.105	-285.18
445.316	302.59
445.528	161.28
445.739	-53.76
445.95	-150.01
446.161	112.13
446.373	292.35
446.584	-127.49
446.795	-123.39
447.006	255.48
447.217	411.13
447.429	-348.67
447.64	-250.36
447.851	396.79
448.062	159.23
448.273	-403.96
448.484	-176.64
448.695	167.42
448.907	75.26
449.118	-125.44
449.329	22.02
449.54	-14.85
449.751	-158.21
449.962	-233.98
450.173	-199.16
450.384	325.12
450.595	349.69
450.806	-238.08
451.017	-104.96
451.228	390.65
451.439	263.68
451.65	-111.1
451.861	-387.58
452.072	-131.58
452.283	-59.9
452.494	-8.7
452.705	-236.03
452.915	417.27
453.126	138.75
453.337	-82.43
453.548	-236.03
453.759	314.88
453.97	544.25
454.181	24.06
454.391	-139.77
454.602	146.94
454.813	163.33
455.024	-166.4
455.235	-188.93
455.445	116.22
455.656	173.57
455.867	-74.24
456.078	-184.83
456.288	11.78
456.499	185.85
456.71	-201.21
456.921	75.26
457.131	85.5
457.342	50.69
457.553	-66.05
457.763	-231.93
457.974	216.57
458.184	165.37
458.395	-274.94
458.606	-276.99
458.816	337.4
459.027	458.23
459.237	-20.99
459.448	-322.04
459.659	259.58
459.869	591.35
460.08	-340.47
460.29	-20.99
460.501	564.73
460.711	-84.48
460.922	-299.52
461.132	-186.88
461.343	732.66
461.553	-225.79
461.764	-170.49
461.974	-193.02
462.184	245.24
462.395	122.37
462.605	-107.01
462.816	-279.04
463.026	181.76
463.236	464.38
463.447	-186.88
463.657	-184.83
463.867	257.53
464.078	65.02
464.288	-94.72
464.498	-193.02
464.709	130.56
464.919	7.68
465.129	-147.97
465.339	-178.69
465.55	167.42
465.76	239.1
465.97	-135.68
466.18	-195.07
466.391	222.72
466.601	171.52
466.811	-107.01
467.021	-299.52
467.231	273.92
467.441	357.88
467.651	-94.72
467.862	-393.72
468.072	56.83
468.282	421.37
468.492	-162.3
468.702	-160.25
468.912	38.4
469.122	787.96
469.332	89.6
469.542	-236.03
469.752	245.24
469.962	157.18
470.172	-272.89
470.382	-248.32
470.592	247.29
470.802	437.75
471.012	87.55
471.222	-190.97
471.432	427.51
471.642	224.76
471.852	-33.28
472.062	-193.02
472.272	17.92
472.482	-174.59
472.691	-299.52
472.901	-283.13
473.111	181.76
473.321	607.73
473.531	-229.88
473.741	-74.24
473.95	230.91
474.16	298.49
474.37	-47.62
474.58	-250.36
474.79	499.19
474.999	327.16
475.209	-266.75
475.419	-72.19
475.628	44.54
475.838	404.99
476.048	-88.57
476.258	-168.45
476.467	415.23
476.677	-29.18
476.886	97.79
477.096	-20.99
477.306	-31.23
477.515	413.18
477.725	-61.95
477.935	-16.9
478.144	493.05
478.354	22.02
478.563	-129.53
478.773	-213.5
478.982	368.12
479.192	415.23
479.401	73.21
479.611	-184.83
479.82	5.63
480.03	208.38
480.239	-49.66
480.449	-207.36
480.658	568.82
480.868	-10.75
481.077	-37.38
481.287	-107.01
481.496	294.4
481.705	517.62
481.915	183.81
482.124	134.65
482.333	304.64
482.543	552.44
482.752	48.64
482.961	-96.77
483.171	368.12
483.38	159.23
483.589	54.78
483.799	-76.29
484.008	187.9
484.217	370.17
484.426	-2.56
484.636	-115.2
484.845	286.2
485.054	-129.53
485.263	257.53
485.472	-14.85
485.682	568.82
485.891	200.19
486.1	-170.49
486.309	-6.66
486.518	394.75
486.727	634.36
486.936	-37.38
487.146	110.08
487.355	724.47
487.564	15.87
487.773	28.16
487.982	-64
488.191	122.37
488.4	267.77
488.609	-59.9
488.818	56.83
489.027	830.96
489.236	726.52
489.445	-86.53
489.654	-59.9
489.863	536.06
490.072	261.63
490.281	329.21
490.49	28.16
490.698	695.8
490.907	611.83
491.116	19.97
491.325	-107.01
491.534	632.31
491.743	351.74
491.952	151.04
492.16	155.13
492.369	419.32
492.578	527.86
492.787	175.61
492.996	-51.71
493.204	140.8
493.413	798.2
493.622	-217.6
493.831	-107.01
494.039	665.08
494.248	122.37
494.457	-49.66
494.665	-55.81
494.874	538.1
495.083	818.68
495.291	204.28
495.5	15.87
495.709	607.73
495.917	388.6
496.126	161.28
496.335	3.58
496.543	275.96
496.752	370.17
496.96	327.16
497.169	-117.25
497.377	323.07
497.586	656.89
497.794	282.11
498.003	-135.68
498.211	337.4
498.42	771.57
498.628	187.9
498.837	108.03
499.045	503.29
499.254	564.73
499.462	185.85
499.671	110.08
499.879	859.63
500.087	683.51
500.296	75.26
500.504	118.27
500.713	531.96
500.921	937.46
501.129	130.56
501.338	157.18
501.546	589.3
501.754	361.98
501.962	126.46
502.171	83.45
502.379	474.62
502.587	896.5
502.795	208.38
503.004	155.13
503.212	427.51
503.42	689.65
503.628	163.33
503.837	298.49
504.045	581.11
504.253	792.05
504.461	187.9
504.669	3.58
504.877	640.5
505.085	863.73
505.294	112.13
505.502	454.14
505.71	531.96
505.918	681.46
506.126	89.6
506.334	204.28
506.542	466.42
506.75	527.86
506.958	335.35
507.166	243.2
507.374	411.13
507.582	910.83
507.79	341.5
507.998	179.71
508.206	605.69
508.414	632.31
508.622	204.28
508.83	204.28
509.037	939.51
509.245	531.96
509.453	171.52
509.661	126.46
509.869	628.21
510.077	364.03
510.285	495.1
510.492	-51.71
510.7	1146.35
510.908	497.14
511.116	220.67
511.324	265.72
511.531	404.99
511.739	732.66
511.947	407.03
512.155	687.61
512.362	706.04
512.57	282.11
512.778	265.72
512.985	85.5
513.193	771.57
513.401	888.31
513.608	292.35
513.816	267.77
514.024	753.14
514.231	882.16
514.439	212.48
514.646	343.55
514.854	849.4
515.061	904.69
515.269	306.68
515.477	220.67
515.684	364.03
515.892	869.87
516.099	196.09
516.307	232.96
516.514	812.53
516.722	1080.82
516.929	318.97
517.136	314.88
517.344	935.41
517.551	753.14
517.759	310.78
517.966	425.47
518.173	585.21
518.381	734.71
518.588	439.8
518.796	278.01
519.003	892.4
519.21	597.49
519.418	335.35
519.625	617.97
519.832	667.13
520.039	708.09
520.247	232.96
520.454	433.66
520.661	914.93
520.868	843.25
521.076	470.52
521.283	466.42
521.49	1306.09
521.697	865.78
521.904	536.06
522.112	527.86
522.319	847.35
522.526	837.11
522.733	462.33
522.94	351.74
523.147	714.23
523.354	998.9
523.561	364.03
523.768	615.93
523.975	1027.57
524.183	824.82
524.39	566.78
524.597	372.22
524.804	824.82
525.011	613.88
525.218	386.55
525.425	478.71
525.632	1191.41
525.838	632.31
526.045	529.91
526.252	445.95
526.459	1990.11
526.666	1799.65
526.873	523.77
527.08	583.16
527.287	1275.37
527.494	1013.23
527.701	445.95
527.907	466.42
528.114	1007.09
528.321	818.68
528.528	542.2
528.735	527.86
528.941	775.67
529.148	749.04
529.355	656.89
529.562	546.3
529.768	1148.4
529.975	857.59
530.182	638.45
530.388	548.34
530.595	1132.01
530.802	527.86
531.008	720.37
531.215	646.65
531.422	1338.86
531.628	1770.98
531.835	732.66
532.042	630.26
532.248	808.44
532.455	972.27
532.661	646.65
532.868	519.67
533.074	933.36
533.281	1293.8
533.487	779.76
533.694	574.97
533.9	628.21
534.107	1048.05
534.313	585.21
534.52	585.21
534.726	1246.7
534.933	1465.83
535.139	560.63
535.345	634.36
535.552	1041.9
535.758	1041.9
535.965	826.87
536.171	683.51
536.377	1220.08
536.584	1369.58
536.79	701.94
536.996	751.09
537.203	1142.25
537.409	1181.17
537.615	744.95
537.821	927.22
538.028	1236.46
538.234	1254.89
538.44	898.55
538.646	759.28
538.853	1271.28
539.059	964.08
539.265	1181.17
539.471	591.35
539.677	1328.62
539.883	1080.82
540.09	761.33
540.296	1078.77
540.502	1078.77
540.708	974.32
540.914	1056.24
541.12	822.77
541.326	1263.08
541.532	1201.65
541.738	1005.04
541.944	888.31
542.15	1457.64
542.356	1220.08
542.562	847.35
542.768	925.17
542.974	1758.69
543.18	1629.67
543.386	826.87
543.592	744.95
543.798	1506.79
544.004	1564.14
544.21	925.17
544.415	994.8
544.621	1293.8
544.827	1519.08
545.033	835.06
545.239	1271.28
545.445	957.94
545.651	1324.52
545.856	919.03
546.062	939.51
546.268	1187.31
546.474	1357.29
546.679	1000.94
546.885	984.56
547.091	1052.14
547.297	1680.87
547.502	1166.83
547.708	826.87
547.914	1183.21
548.119	1572.33
548.325	904.69
548.531	769.52
548.736	1793.51
548.942	1058.29
549.147	1107.44
549.353	1258.99
549.559	1572.33
549.764	1408.49
549.97	1037.81
550.175	968.18
550.381	1545.7
550.586	1097.2
550.792	1127.92
550.997	1064.43
551.203	1474.03
551.408	1568.23
551.614	962.03
551.819	1064.43
552.025	1826.28
552.23	1912.29
552.435	1127.92
552.641	1293.8
552.846	1299.95
553.052	1646.05
553.257	1277.42
553.462	1156.59
553.668	1201.65
553.873	1791.46
554.078	1000.94
554.283	1164.78
554.489	1617.38
554.694	1498.6
554.899	1113.58
555.105	1469.93
555.31	1664.49
555.515	1691.11
555.72	1297.9
555.925	1248.75
556.131	1809.89
556.336	1269.23
556.541	1232.37
556.746	1156.59
556.951	1900
557.156	1883.62
557.361	1338.86
557.567	1553.9
557.772	2186.72
557.977	1703.4
558.182	1261.04
558.387	1277.42
558.592	1437.16
558.797	1912.29
559.002	1365.48
559.207	1445.35
559.412	1656.29
559.617	2174.43
559.822	1285.61
560.027	1277.42
560.232	1707.49
560.437	1867.24
560.642	1179.12
560.847	1349.1
561.051	1689.06
561.256	1650.15
561.461	1416.68
561.666	1203.69
561.871	1656.29
562.076	1947.11
562.281	1568.23
562.485	1236.46
562.69	1947.11
562.895	1955.3
563.1	1445.35
563.305	1328.62
563.509	1992.16
563.714	2354.65
563.919	1547.75
564.123	1369.58
564.328	1654.25
564.533	2125.28
564.737	1504.75
564.942	1484.27
565.147	2168.29
565.351	2342.36
565.556	1547.75
565.761	1721.83
565.965	1959.39
566.17	1574.38
566.374	1666.53
566.579	1371.63
566.784	1883.62
566.988	1822.18
567.193	1326.57
567.397	1488.36
567.602	1637.86
567.806	1926.63
568.011	1590.76
568.215	1783.27
568.42	1834.47
568.624	1811.94
568.828	1621.48
569.033	1852.9
569.237	1924.58
569.442	2137.57
569.646	1412.59
569.85	1664.49
570.055	2055.65
570.259	1971.68
570.463	1793.51
570.668	1695.21
570.872	1945.06
571.076	1877.48
571.281	1863.14
571.485	1781.22
571.689	1981.92
571.893	2098.66
572.098	1879.52
572.302	1861.09
572.506	1988.07
572.71	1988.07
572.914	1863.14
573.119	1752.55
573.323	2299.36
573.527	2487.77
573.731	1803.75
573.935	1652.2
574.139	2112.99
574.343	1850.85
574.547	1748.45
574.751	1809.89
574.955	2495.96
575.159	2325.98
575.364	1850.85
575.568	1789.41
575.772	2074.08
575.976	2414.04
576.18	1871.33
576.383	1746.41
576.587	2348.51
576.791	2276.83
576.995	1656.29
577.199	1613.29
577.403	2405.85
577.607	2395.61
577.811	1717.73
578.015	2127.33
578.219	2143.71
578.422	2278.88
578.626	1914.34
578.83	2080.22
579.034	2489.82
579.238	2287.07
579.442	1865.19
579.645	2477.53
579.849	2252.25
580.053	2317.79
580.257	2031.07
580.46	2102.75
580.664	2491.87
580.868	2506.2
581.071	2272.73
581.275	2151.9
581.479	1969.63
581.682	2495.96
581.886	2059.74
582.09	2205.15
582.293	2508.25
582.497	2571.74
582.7	2317.79
582.904	2112.99
583.107	2457.05
583.311	2235.87
583.515	2194.91
583.718	2174.43
583.922	2461.15
584.125	2741.72
584.329	2164.19
584.532	2438.62
584.735	2725.33
584.939	2563.54
585.142	2082.27
585.346	2145.76
585.549	2588.12
585.753	2368.99
585.956	2174.43
586.159	2338.27
586.363	3005.91
586.566	2686.42
586.769	2129.38
586.973	2129.38
587.176	2719.19
587.379	2842.07
587.582	2555.35
587.786	2555.35
587.989	2600.41
588.192	3343.82
588.395	2403.8
588.599	2719.19
588.802	2692.57
589.005	2799.06
589.208	2342.36
589.411	2297.31
589.615	2870.74
589.818	3073.49
590.021	2555.35
590.224	2489.82
590.427	2969.04
590.63	2821.59
590.833	2196.96
591.036	2518.49
591.239	2690.52
591.442	2704.85
591.645	2655.7
591.848	2313.69
592.051	2817.49
592.254	3102.16
592.457	2551.26
592.66	2686.42
592.863	2760.15
593.066	2862.55
593.269	2629.08
593.472	2661.85
593.675	2596.31
593.878	3106.26
594.081	2762.2
594.284	2407.9
594.486	3108.3
594.689	2942.42
594.892	2768.34
595.095	2694.61
595.298	3044.82
595.5	2717.14
595.703	2823.64
595.906	2772.44
596.109	3245.52
596.311	3179.98
596.514	2473.43
596.717	2874.84
596.92	3212.75
597.122	3110.35
597.325	2469.34
597.528	2651.61
597.73	3216.85
597.933	2981.33
598.136	2616.79
598.338	2514.39
598.541	3192.27
598.743	3317.2
598.946	2760.15
599.148	2876.88
599.351	3382.73
599.554	3399.12
599.756	2913.75
599.959	3032.53
600.161	3431.88
600.363	3710.41
600.566	3014.1
600.768	2921.94
600.971	3636.68
601.173	3352.01
601.376	2797.01
601.578	2858.45
601.78	3442.12
601.983	3677.64
602.185	2823.64
602.388	3130.83
602.59	3239.37
602.792	3161.55
602.995	3106.26
603.197	3071.44
603.399	3376.59
603.601	3284.43
603.804	3050.96
604.006	2909.65
604.208	3145.17
604.41	2891.22
604.613	3198.42
604.815	2909.65
605.017	3861.96
605.219	3143.12
605.421	3317.2
605.623	3059.15
605.826	3681.74
606.028	3675.59
606.23	3136.98
606.432	2977.23
606.634	3767.75
606.836	3689.93
607.038	3087.82
607.24	3284.43
607.442	3425.74
607.644	3407.31
607.846	3263.95
608.048	3118.54
608.25	3673.54
608.452	3331.53
608.654	3243.47
608.856	3003.86
609.058	3562.95
609.26	3622.34
609.462	3321.29
609.664	3311.05
609.866	3810.76
610.067	3802.57
610.269	3378.64
610.471	3276.24
610.673	3466.7
610.875	3648.97
611.077	3124.69
611.278	3474.89
611.48	3562.95
611.682	4111.81
611.884	3481.03
612.085	3382.73
612.287	3360.2
612.489	3788.23
612.69	3044.82
612.892	3423.69
613.094	3937.73
613.295	3612.1
613.497	3368.4
613.699	3286.48
613.9	4058.56
614.102	3802.57
614.304	3386.83
614.505	3198.42
614.707	3622.34
614.908	3728.84
615.11	3222.99
615.311	3560.91
615.513	3878.34
615.714	4064.71
615.916	3382.73
616.117	3349.96
616.319	3685.83
616.52	3917.25
616.722	3454.41
616.923	3450.32
617.124	4083.14
617.326	3935.68
617.527	3587.53
617.729	3784.13
617.93	4054.47
618.131	3952.07
618.333	3526.09
618.534	3524.04
618.735	3605.96
618.937	4163.01
619.138	3384.78
619.339	3366.35
619.54	3958.21
619.742	3743.17
619.943	3681.74
620.144	3710.41
620.345	4056.51
620.546	4169.15
620.748	3542.47
620.949	3714.5
621.15	4085.19
621.351	3935.68
621.552	3812.81
621.753	3550.67
621.954	3585.48
622.155	4292.03
622.356	3497.42
622.558	3859.91
622.759	3972.55
622.96	4298.17
623.161	3913.16
623.362	3708.36
623.563	3954.12
623.764	4185.54
623.965	3759.56
624.166	4060.61
624.366	3990.98
624.567	4099.52
624.768	3415.5
624.969	3718.6
625.17	3952.07
625.371	4277.69
625.572	3947.97
625.773	3679.69
625.973	4343.23
626.174	4302.27
626.375	3868.1
626.576	3970.5
626.777	4111.81
626.977	4664.76
627.178	3874.24
627.379	3960.26
627.58	4277.69
627.78	4236.74
627.981	4099.52
628.182	3945.92
628.382	4488.64
628.583	4013.51
628.784	3939.78
628.984	4154.82
629.185	4582.84
629.386	4433.34
629.586	3999.17
629.787	3888.58
629.987	4382.14
630.188	4330.94
630.388	4154.82
630.589	4160.96
630.79	5055.92
630.99	4285.89
631.191	4087.23
631.391	4269.5
631.591	4537.79
631.792	4718.01
631.992	4287.93
632.193	4267.45
632.393	4705.72
632.594	4482.49
632.794	3990.98
632.994	4287.93
633.195	4371.9
633.395	4363.71
633.595	4060.61
633.796	4468.16
633.996	4345.28
634.196	4820.41
634.397	4085.19
634.597	4310.46
634.797	4281.79
634.997	4961.72
635.198	4515.26
635.398	4189.63
635.598	4543.93
635.798	4847.03
635.998	4763.06
636.199	4214.21
636.399	4406.72
636.599	4255.17
636.799	4363.71
636.999	4662.71
637.199	4648.38
637.399	4898.23
637.599	4152.77
637.799	4429.24
637.999	4570.55
638.199	5070.26
638.399	4226.5
638.599	4371.9
638.799	4926.9
638.999	5152.18
639.199	4611.51
639.399	4670.9
639.599	5113.27
639.799	4586.94
639.999	4394.43
640.199	4292.03
640.399	4797.88
640.599	4824.5
640.799	4582.84
640.998	4791.73
641.198	5135.79
641.398	4799.93
641.598	4713.91
641.798	4566.46
641.997	5811.62
642.197	4849.08
642.397	4654.52
642.597	4588.99
642.796	4965.81
642.996	5240.24
643.196	4763.06
643.395	4496.83
643.595	4939.19
643.795	4505.02
643.994	4638.14
644.194	4771.26
644.394	5129.65
644.593	4939.19
644.793	4539.83
644.992	4785.59
645.192	5055.92
645.392	4646.33
645.591	4830.65
645.791	4863.41
645.99	5258.67
646.19	4996.53
646.389	4787.64
646.589	4765.11
646.788	5184.94
646.987	5096.88
647.187	5244.34
647.386	4994.48
647.586	5113.27
647.785	5246.38
647.984	5023.16
648.184	4935.09
648.383	4971.96
648.582	5017.01
648.782	4937.14
648.981	5115.31
649.18	4937.14
649.38	5252.53
649.579	4894.13
649.778	4910.52
649.977	5322.16
650.177	5455.28
650.376	4961.72
650.575	4844.98
650.774	5698.99
650.973	5008.82
651.173	4881.85
651.372	5109.17
651.571	5350.83
651.77	5399.98
651.969	4980.15
652.168	5221.81
652.367	5062.07
652.566	5457.32
652.765	5004.72
652.964	5352.88
653.163	5733.8
653.362	5432.75
653.561	4965.81
653.76	5217.71
653.959	5164.47
654.158	5547.44
654.357	5414.32
654.556	5236.14
654.755	5594.54
654.954	5762.47
655.153	5221.81
655.352	5070.26
655.551	5737.9
655.749	5281.2
655.948	5291.44
656.147	5311.92
656.346	5580.2
656.545	5580.2
656.743	5287.34
656.942	5500.33
657.141	5488.04
657.34	5203.38
657.538	5113.27
657.737	5436.85
657.936	5565.87
658.135	5752.23
658.333	5375.41
658.532	5291.44
658.731	5901.73
658.929	5772.71
659.128	5866.92
659.326	5430.7
659.525	6081.96
659.724	5586.35
659.922	5287.34
660.121	5238.19
660.319	5920.17
660.518	5418.41
660.716	5342.64
660.915	5475.76
661.113	6049.19
661.312	5367.21
661.51	5678.51
661.709	5488.04
661.907	5811.62
662.105	6010.28
662.304	5541.29
662.502	5559.72
662.701	6016.42
662.899	5635.5
663.097	5850.53
663.296	5256.62
663.494	6077.86
663.692	6143.39
663.891	5424.56
664.089	5457.32
664.287	5862.82
664.485	6258.08
664.684	5543.34
664.882	5756.33
665.08	5918.12
665.278	5752.23
665.476	5483.95
665.675	5911.97
665.873	6503.84
666.071	6043.04
666.269	5647.79
666.467	5694.89
666.665	5940.65
666.863	5899.69
667.061	5842.34
667.259	5670.31
667.457	6032.8
667.655	6086.05
667.853	5684.65
668.051	6024.61
668.249	5805.48
668.447	6157.73
668.645	5701.03
668.843	6061.48
669.041	6018.47
669.239	5981.6
669.437	5971.36
669.635	5803.43
669.833	5914.02
670.031	6188.45
670.229	5911.97
670.426	6020.52
670.624	5850.53
670.822	5887.4
671.02	5848.49
671.218	5875.11
671.415	5823.91
671.613	6092.2
671.811	6063.52
672.009	5991.84
672.206	6247.84
672.404	6081.96
672.602	6127.01
672.799	6006.18
672.997	6307.23
673.195	6372.77
673.392	5920.17
673.59	5868.97
673.788	6340
673.985	5750.18
674.183	6135.2
674.38	5830.06
674.578	6399.39
674.775	5873.06
674.973	5799.34
675.17	5983.65
675.368	6567.32
675.565	6290.85
675.763	5879.21
675.96	6055.33
676.158	6552.99
676.355	6176.16
676.553	5946.79
676.75	5889.45
676.947	6204.83
677.145	6309.28
677.342	6124.96
677.539	6116.77
677.737	6317.47
677.934	6788.5
678.131	6219.17
678.329	5963.17
678.526	6725.02
678.723	6505.88
678.92	6122.91
679.118	6041
679.315	5893.54
679.512	6839.7
679.709	6038.95
679.906	6141.35
680.104	6641.05
680.301	6331.81
680.498	6127.01
680.695	5959.08
680.892	6200.74
681.089	6118.82
681.286	6229.41
681.483	5887.4
681.68	6417.82
681.877	6552.99
682.075	5989.8
682.272	6387.1
682.469	6532.51
682.665	6389.15
682.862	5914.02
683.059	6000.04
683.256	6563.23
683.453	6321.57
683.65	6198.69
683.847	6278.56
684.044	6266.27
684.241	6122.91
684.438	6512.03
684.635	6041
684.831	6978.97
685.028	6933.91
685.225	6129.06
685.422	6505.88
685.619	6456.73
685.815	6321.57
686.012	6243.74
686.209	6188.45
686.405	6192.55
686.602	6462.88
686.799	6069.67
686.996	6135.2
687.192	6161.83
687.389	6952.34
687.586	6274.46
687.782	6296.99
687.979	6909.33
688.175	6745.5
688.372	6258.08
688.568	6290.85
688.765	6241.7
688.962	6829.46
689.158	6313.38
689.355	6092.2
689.551	6684.06
689.748	6415.77
689.944	6403.49
690.14	6325.66
690.337	6776.22
690.533	6464.93
690.73	6430.11
690.926	6509.98
691.123	6581.66
691.319	6596
691.515	6249.89
691.712	6524.32
691.908	6765.98
692.104	6782.36
692.301	6413.73
692.497	6434.21
692.693	6882.71
692.889	6888.85
693.086	6581.66
693.282	6335.9
693.478	6776.22
693.674	7282.06
693.87	6559.13
694.067	6251.94
694.263	6581.66
694.459	6577.56
694.655	6606.24
694.851	6653.34
695.047	6925.72
695.243	6819.22
695.439	6596
695.635	6509.98
695.831	6661.53
696.027	6555.04
696.224	6340
696.42	6833.56
696.615	7110.04
696.811	6983.06
697.007	6174.11
697.203	6548.89
697.399	6864.28
697.595	7261.59
697.791	6421.92
697.987	6751.64
698.183	6389.15
698.379	6561.18
698.575	6587.8
698.77	6493.6
698.966	6905.24
699.162	7153.04
699.358	6622.62
699.554	6735.26
699.749	7058.84
699.945	6804.89
700.141	6565.28
700.337	6626.71
700.532	6718.87
700.728	6700.44
700.924	6575.52
701.119	6446.49
701.315	7003.54
701.511	6557.08
701.706	6845.85
701.902	6383.01
702.097	6684.06
702.293	6948.25
702.489	6577.56
702.684	6585.76
702.88	6784.41
703.075	6733.21
703.271	6639
703.466	6686.11
703.662	6819.22
703.857	7118.23
704.053	6725.02
704.248	6847.9
704.443	7099.8
704.639	6798.74
704.834	6659.48
705.03	6761.88
705.225	6950.29
705.42	7085.46
705.616	6679.96
705.811	6421.92
706.006	6804.89
706.202	6831.51
706.397	6860.18
706.592	6520.22
706.787	6839.7
706.983	6872.47
707.178	7062.93
707.373	6817.18
707.568	7196.05
707.763	6952.34
707.959	6473.12
708.154	6735.26
708.349	7069.08
708.544	7155.09
708.739	6831.51
708.934	6509.98
709.129	6782.36
709.324	7257.49
709.519	6598.04
709.714	6546.84
709.909	7232.91
710.104	7036.31
710.299	6839.7
710.494	6833.56
710.689	7122.32
710.884	6708.63
711.079	6823.32
711.274	6964.63
711.469	7112.08
711.664	7116.18
711.859	6722.97
712.054	6995.35
712.249	7208.34
712.443	7316.88
712.638	6704.54
712.833	6639
713.028	6938.01
713.223	6880.66
713.417	7257.49
713.612	6866.33
713.807	7220.63
714.002	7652.75
714.196	7013.78
714.391	6655.39
714.586	7277.97
714.78	7095.7
714.975	7005.59
715.17	6966.68
715.364	7085.46
715.559	7265.68
715.754	6530.46
715.948	6667.67
716.143	7433.61
716.337	7122.32
716.532	7036.31
716.726	6966.68
716.921	7431.57
717.115	7568.78
717.31	6737.31
717.504	7318.93
717.699	7056.79
717.893	7318.93
718.088	6911.38
718.282	6843.8
718.476	7183.76
718.671	7124.37
718.865	6821.27
719.059	6813.08
719.254	7097.75
719.448	7361.94
719.642	8258.95
719.837	6718.87
720.031	7255.44
720.225	7237.01
720.419	6952.34
720.614	6743.45
720.808	7241.11
721.002	7058.84
721.196	6694.3
721.39	6743.45
721.585	7323.02
721.779	7282.06
721.973	6731.16
722.167	6464.93
722.361	7134.61
722.555	7335.31
722.749	6913.43
722.943	6825.37
723.137	6817.18
723.331	7118.23
723.525	6942.1
723.719	6954.39
723.913	7253.39
724.107	7290.26
724.301	6667.67
724.495	6886.81
724.689	7611.79
724.883	7572.88
725.077	6958.49
725.271	6950.29
725.465	7318.93
725.659	7122.32
725.853	7093.65
726.046	6802.84
726.24	6942.1
726.434	7335.31
726.628	6989.21
726.822	7064.98
727.015	7540.11
727.209	7488.91
727.403	7007.64
727.596	6710.68
727.79	7447.95
727.984	7468.43
728.177	6946.2
728.371	6972.82
728.565	7454.09
728.758	7009.69
728.952	7040.4
729.146	7042.45
729.339	7327.12
729.533	7177.62
729.726	6956.44
729.92	6716.83
730.113	7710.09
730.307	7265.68
730.5	6997.4
730.694	6839.7
730.887	7112.08
731.081	7515.53
731.274	6960.53
731.468	6952.34
731.661	7267.73
731.854	7189.91
732.048	7073.17
732.241	7026.07
732.435	7159.19
732.628	7361.94
732.821	7095.7
733.014	6903.19
733.208	6952.34
733.401	7726.47
733.594	7116.18
733.788	7171.47
733.981	7572.88
734.174	7460.24
734.367	6987.16
734.56	7333.26
734.754	7499.15
734.947	7292.3
735.14	7060.88
735.333	7048.6
735.526	7777.67
735.719	7218.58
735.912	7081.36
736.105	7069.08
736.298	7441.81
736.491	7220.63
736.684	6970.77
736.877	6929.81
737.07	7437.71
737.263	7566.73
737.456	7052.69
737.649	7052.69
737.842	7220.63
738.035	7355.79
738.228	7128.47
738.421	7189.91
738.614	7818.63
738.807	7710.09
739	7087.51
739.192	7011.73
739.385	7636.36
739.578	7689.61
739.771	7450
739.964	6948.25
740.156	7562.64
740.349	7292.3
740.542	7376.27
740.735	7144.85
740.927	7310.74
741.12	7171.47
741.313	7116.18
741.505	7349.65
741.698	7642.51
741.891	7374.22
742.083	7341.46
742.276	7411.09
742.468	7554.44
742.661	7609.74
742.854	7372.18
743.046	7249.3
743.239	7992.71
743.431	7642.51
743.624	7323.02
743.816	7101.84
744.009	7433.61
744.201	7443.85
744.393	7429.52
744.586	7138.71
744.778	7724.43
744.971	7572.88
745.163	7431.57
745.355	7431.57
745.548	7445.9
745.74	7546.25
745.932	7579.02
746.125	7222.67
746.317	8125.83
746.509	7613.84
746.702	7382.42
746.894	7486.86
747.086	7632.27
747.278	7751.05
747.471	7327.12
747.663	7261.59
747.855	7464.33
748.047	7912.84
748.239	7220.63
748.431	7216.53
748.623	8007.05
748.815	7900.55
749.008	7200.15
749.2	7316.88
749.392	7609.74
749.584	7509.39
749.776	7501.2
749.968	7423.37
750.16	8013.19
750.352	7411.09
750.544	7394.7
750.736	7071.12
750.928	7689.61
751.12	7480.72
751.311	7286.16
751.503	7368.08
751.695	7591.31
751.887	7509.39
752.079	7056.79
752.271	7269.78
752.463	8461.69
752.654	7888.26
752.846	7419.28
753.038	7290.26
753.23	7368.08
753.421	7708.04
753.613	7331.22
753.805	7564.68
753.997	7587.21
754.188	7816.58
754.38	7294.35
754.572	7394.7
754.763	7488.91
754.955	7757.19
755.146	7390.61
755.338	7558.54
755.53	7648.65
755.721	7439.76
755.913	7226.77
756.104	7120.28
756.296	7673.23
756.487	7759.24
756.679	7394.7
756.87	7370.13
757.062	7314.83
757.253	7871.88
757.445	7296.4
757.636	7353.74
757.827	7581.07
758.019	8215.94
758.21	7253.39
758.401	7255.44
758.593	8007.05
758.784	7794.06
758.975	7112.08
759.167	7032.21
759.358	7564.68
759.549	7890.31
759.74	7261.59
759.932	7124.37
760.123	7839.11
760.314	7398.8
760.505	7300.5
760.696	7392.66
760.888	7904.65
761.079	7390.61
761.27	7304.59
761.461	7161.23
761.652	8007.05
761.843	7345.55
762.034	7159.19
762.225	7538.06
762.416	7605.64
762.607	7447.95
762.798	7259.54
762.989	7134.61
763.18	8238.47
763.371	7325.07
763.562	7171.47
763.753	7048.6
763.944	7605.64
764.135	7751.05
764.326	7376.27
764.517	7253.39
764.708	7609.74
764.899	7388.56
765.089	7249.3
765.28	7026.07
765.471	7458.19
765.662	7417.23
765.853	7130.52
766.043	7148.95
766.234	7617.93
766.425	7572.88
766.615	7173.52
766.806	6978.97
766.997	7843.21
767.187	7433.61
767.378	7187.86
767.569	7042.45
767.759	7574.92
767.95	7542.16
768.141	7415.18
768.331	7445.9
768.522	7419.28
768.712	7548.3
768.903	7136.66
769.093	7202.19
769.284	7859.59
769.474	7579.02
769.665	6808.98
769.855	7056.79
770.046	7480.72
770.236	7435.66
770.426	7253.39
770.617	7292.3
770.807	7568.78
770.998	7462.29
771.188	7159.19
771.378	7009.69
771.569	7716.23
771.759	7638.41
771.949	6880.66
772.139	6938.01
772.33	7363.98
772.52	7734.67
772.71	7122.32
772.9	6895
773.09	7542.16
773.281	7738.76
773.471	6895
773.661	7249.3
773.851	7515.53
774.041	7257.49
774.231	7183.76
774.421	7173.52
774.611	7869.83
774.802	7380.37
774.992	7163.28
775.182	7093.65
775.372	7335.31
775.562	7497.1
775.752	7144.85
775.942	7038.36
776.131	7720.33
776.321	7501.2
776.511	6946.2
776.701	6929.81
776.891	7505.29
777.081	6983.06
777.271	7271.83
777.461	7062.93
777.651	7484.81
777.84	7556.49
778.03	7138.71
778.22	7052.69
778.41	7630.22
778.599	7339.41
778.789	7308.69
778.979	6995.35
779.169	7325.07
779.358	7038.36
779.548	7390.61
779.738	6978.97
779.927	7351.7
780.117	7060.88
780.307	6911.38
780.496	6794.65
780.686	7486.86
780.875	7669.13
781.065	6993.3
781.254	7069.08
781.444	7292.3
781.633	7497.1
781.823	6991.25
782.012	6972.82
782.202	7093.65
782.391	7228.82
782.581	6739.35
782.77	6981.01
782.96	7476.62
783.149	7261.59
783.338	6882.71
783.528	6792.6
783.717	7351.7
783.906	7488.91
784.096	6991.25
784.285	6819.22
784.474	7212.43
784.663	7105.94
784.853	7019.92
785.042	6993.3
785.231	7040.4
785.42	7368.08
785.61	7089.56
785.799	6948.25
785.988	7085.46
786.177	7060.88
786.366	6962.58
786.555	7099.8
786.744	7505.29
786.933	7081.36
787.122	6933.91
787.312	6806.94
787.501	6962.58
787.69	7349.65
787.879	6747.55
788.068	6686.11
788.257	6729.11
788.445	6954.39
788.634	7003.54
788.823	6702.49
789.012	7599.5
789.201	7507.34
789.39	6772.12
789.579	6718.87
789.768	7062.93
789.957	7120.28
790.145	7024.02
790.334	6673.82
790.523	7028.12
790.712	6974.87
790.9	6663.58
791.089	6544.8
791.278	7284.11
791.467	7122.32
791.655	7062.93
791.844	7392.66
792.033	7001.49
792.221	6974.87
792.41	6727.07
792.599	6569.37
792.787	7296.4
792.976	7257.49
793.164	6720.92
793.353	6768.02
793.541	7386.51
793.73	7208.34
793.918	6845.85
794.107	6692.25
794.295	7155.09
794.484	6989.21
794.672	6815.13
794.861	6845.85
795.049	7224.72
795.238	7353.74
795.426	6770.07
795.614	6792.6
795.803	7273.87
795.991	7347.6
796.179	6741.4
796.368	6872.47
796.556	7353.74
796.744	6868.38
796.932	6778.26
797.121	6700.44
797.309	7171.47
797.497	7116.18
797.685	6884.76
797.874	6718.87
798.062	7087.51
798.25	7415.18
798.438	6827.42
798.626	6880.66
798.814	7290.26
799.002	7681.42
799.19	7042.45
799.378	6741.4
799.566	7253.39
799.755	7441.81
799.943	6948.25
800.131	6833.56
800.318	7005.59
800.506	7241.11
800.694	6745.5
800.882	6999.45
801.07	7355.79
801.258	7044.5
801.446	6929.81
801.634	6718.87
801.822	7265.68
802.01	7077.27
802.197	6978.97
802.385	6993.3
802.573	7384.46
802.761	6745.5
802.949	6907.29
803.136	6753.69
803.324	7568.78
803.512	7140.76
803.699	7150.99
803.887	6759.83
804.075	7560.59
804.262	7177.62
804.45	6923.67
804.638	7007.64
804.825	6968.73
805.013	7146.9
805.201	7085.46
805.388	6923.67
805.576	7038.36
805.763	7904.65
805.951	6954.39
806.138	7175.57
806.326	7798.15
806.513	7355.79
806.701	7026.07
806.888	7044.5
807.075	7347.6
807.263	7630.22
807.45	6995.35
807.638	7230.87
807.825	7812.49
808.012	7730.57
808.2	7042.45
808.387	7363.98
808.574	7572.88
808.761	7732.62
808.949	7241.11
809.136	7032.21
809.323	7253.39
809.51	7347.6
809.698	7495.05
809.885	7269.78
810.072	7501.2
810.259	7783.82
810.446	7251.35
810.633	7079.32
810.82	7722.38
811.008	7880.07
811.195	7423.37
811.382	7316.88
811.569	7470.48
811.756	7284.11
811.943	7320.98
812.13	7255.44
812.317	7474.57
812.504	7493.01
812.691	7198.1
812.878	7552.4
813.064	7910.79
813.251	7452.05
813.438	7286.16
813.625	7605.64
813.812	7648.65
813.999	7607.69
814.186	7458.19
814.372	7470.48
814.559	7638.41
814.746	8011.14
814.933	7462.29
815.12	7654.8
815.306	7320.98
815.493	7177.62
815.68	7349.65
815.866	7259.54
816.053	7982.47
816.24	8402.3
816.426	7632.27
816.613	7273.87
816.799	7988.61
816.986	8037.77
817.173	7222.67
817.359	7155.09
817.546	7609.74
817.732	7269.78
817.919	7146.9
818.105	7355.79
818.292	7413.13
818.478	7789.96
818.665	7476.62
818.851	7384.46
819.037	8281.47
819.224	7644.56
819.41	7273.87
819.597	7335.31
819.783	8017.29
819.969	7716.23
820.156	7388.56
820.342	7366.03
820.528	8330.62
820.714	7605.64
820.901	7812.49
821.087	7243.15
821.273	7992.71
821.459	7460.24
821.646	7169.43
821.832	7363.98
822.018	7568.78
822.204	7452.05
822.39	7521.68
822.576	7433.61
822.762	7882.12
822.948	7726.47
823.134	7617.93
823.32	7253.39
823.507	7169.43
823.693	7593.36
823.879	7599.5
824.065	7312.78
824.25	7675.27
824.436	7421.33
824.622	7327.12
824.808	7329.17
824.994	7515.53
825.18	7265.68
825.366	7052.69
825.552	7175.57
825.738	7515.53
825.923	7673.23
826.109	7544.2
826.295	7263.63
826.481	7490.96
826.667	7363.98
826.852	7325.07
827.038	7196.05
827.224	7855.5
827.409	8007.05
827.595	7183.76
827.781	7531.92
827.966	7826.82
828.152	7609.74
828.338	7372.18
828.523	6964.63
828.709	7349.65
828.894	7691.66
829.08	7228.82
829.266	6995.35
829.451	7191.95
829.637	7458.19
829.822	7273.87
830.008	7060.88
830.193	7718.28
830.378	7806.34
830.564	6997.4
830.749	7237.01
830.935	7482.77
831.12	7517.58
831.305	6933.91
831.491	7363.98
831.676	7089.56
831.861	7910.79
832.047	7144.85
832.232	6991.25
832.417	7699.85
832.602	7490.96
832.788	7099.8
832.973	7064.98
833.158	7220.63
833.343	7419.28
833.528	7294.35
833.714	7171.47
833.899	7619.98
834.084	7521.68
834.269	7257.49
834.454	6985.11
834.639	7386.51
834.824	7478.67
835.009	7122.32
835.194	7189.91
835.379	7593.36
835.564	7527.82
835.749	7112.08
835.934	6954.39
836.119	7544.2
836.304	7404.94
836.489	7255.44
836.674	7259.54
836.859	7165.33
837.044	7720.33
837.228	7228.82
837.413	7069.08
837.598	7314.83
837.783	7595.4
837.968	7009.69
838.152	6874.52
838.337	6897.05
838.522	7404.94
838.707	7404.94
838.891	7277.97
839.076	7237.01
839.261	7480.72
839.445	7026.07
839.63	6907.29
839.815	7751.05
839.999	7015.83
840.184	7103.89
840.368	6925.72
840.553	7386.51
840.737	7425.42
840.922	6690.2
841.106	6831.51
841.291	7079.32
841.475	7077.27
841.66	6895
841.844	6999.45
842.029	7873.93
842.213	6901.14
842.397	7024.02
842.582	6684.06
842.766	7419.28
842.951	7370.13
843.135	6909.33
843.319	6917.53
843.504	7150.99
843.688	7204.24
843.872	6675.87
844.056	6761.88
844.241	7384.46
844.425	6761.88
844.609	6886.81
844.793	6698.39
844.977	7368.08
845.161	7097.75
845.346	6854.04
845.53	6948.25
845.714	6993.3
845.898	7396.75
846.082	6622.62
846.266	6710.68
846.45	7218.58
846.634	7120.28
846.818	6651.29
847.002	6964.63
847.186	7173.52
847.37	6780.31
847.554	6630.81
847.738	6802.84
847.922	7183.76
848.106	7232.91
848.29	6596
848.473	6677.91
848.657	7161.23
848.841	6843.8
849.025	6688.15
849.209	6575.52
849.392	7175.57
849.576	6901.14
849.76	6393.25
849.944	6776.22
850.127	7480.72
850.311	6692.25
850.495	6712.73
850.678	6426.01
850.862	7095.7
851.046	7333.26
851.229	7036.31
851.413	6405.53
851.596	6991.25
851.78	6997.4
851.964	6778.26
852.147	6358.43
852.331	7792.01
852.514	7239.06
852.698	6665.63
852.881	6370.72
853.065	6938.01
853.248	6845.85
853.431	6622.62
853.615	6870.42
853.798	7406.99
853.982	6835.61
854.165	6745.5
854.348	6647.19
854.532	6755.74
854.715	6751.64
854.898	6782.36
855.081	6501.79
855.265	7243.15
855.448	7269.78
855.631	6569.37
855.814	6669.72
855.997	6964.63
856.181	6725.02
856.364	6768.02
856.547	6370.72
856.73	6786.46
856.913	6839.7
857.096	6401.44
857.279	6610.33
857.462	6671.77
857.645	6901.14
857.828	6503.84
858.011	6501.79
858.194	6315.42
858.377	6677.91
858.56	6331.81
858.743	6460.83
858.926	6444.45
859.109	6851.99
859.292	6421.92
859.475	6405.53
859.658	6876.57
859.841	6827.42
860.023	6356.38
860.206	6378.91
860.389	6827.42
860.572	6974.87
860.755	6282.66
860.937	6303.14
861.12	6542.75
861.303	6630.81
861.486	6356.38
861.668	6319.52
861.851	6675.87
862.034	6647.19
862.216	6278.56
862.399	5926.31
862.581	6772.12
862.764	6966.68
862.947	6409.63
863.129	6296.99
863.312	6249.89
863.494	6835.61
863.677	6663.58
863.859	6174.11
864.042	6516.12
864.224	6776.22
864.406	6409.63
864.589	6225.31
864.771	6491.55
864.954	6118.82
865.136	6124.96
865.318	5907.88
865.501	6389.15
865.683	5965.22
865.865	6102.43
866.048	6090.15
866.23	6487.45
866.412	6489.5
866.594	6026.66
866.777	6149.54
866.959	6647.19
867.141	6227.36
867.323	6256.03
867.505	6172.07
867.687	6309.28
867.869	6258.08
868.052	6104.48
868.234	6002.08
868.416	6307.23
868.598	6612.38
868.78	6053.28
868.962	5971.36
869.144	6546.84
869.326	6514.08
869.508	6139.3
869.69	5836.2
869.872	6233.5
870.054	6630.81
870.236	5920.17
870.417	5934.5
870.599	6372.77
870.781	6788.5
870.963	6090.15
871.145	5891.49
871.327	6106.53
871.508	6677.91
871.69	6051.24
871.872	6061.48
872.054	6325.66
872.235	6378.91
872.417	6069.67
872.599	5723.56
872.78	6727.07
872.962	6374.81
873.144	5819.82
873.325	6139.3
873.507	6698.39
873.689	6356.38
873.87	5944.74
874.052	6319.52
874.233	6260.13
874.415	6753.69
874.596	6202.79
874.778	6026.66
874.959	6356.38
875.141	6686.11
875.322	5914.02
875.503	6170.02
875.685	6483.36
875.866	5907.88
876.048	5909.93
876.229	5995.94
876.41	6172.07
876.592	6354.34
876.773	6077.86
876.954	5852.58
877.136	6675.87
877.317	6376.86
877.498	5932.45
877.679	6274.46
877.86	6423.97
878.042	6337.95
878.223	6215.07
878.404	6577.56
878.585	6501.79
878.766	6946.2
878.947	6520.22
879.128	6264.22
879.309	6532.51
879.49	6692.25
879.672	6274.46
879.853	6229.41
880.034	6364.57
880.215	6475.17
880.396	6172.07
880.576	6229.41
880.757	6520.22
880.938	6919.57
881.119	6131.11
881.3	6184.35
881.481	6395.29
881.662	7359.89
881.843	6266.27
882.023	6319.52
882.204	6647.19
882.385	6684.06
882.566	6323.62
882.747	6401.44
882.927	6544.8
883.108	6567.32
883.289	6487.45
883.469	6806.94
883.65	6651.29
883.831	6704.54
884.011	6602.14
884.192	6413.73
884.373	7048.6
884.553	6811.03
884.734	6591.9
884.914	6843.8
885.095	7470.48
885.275	7144.85
885.456	6778.26
885.636	6528.41
885.817	6700.44
885.997	6704.54
886.178	6548.89
886.358	6532.51
886.538	6907.29
886.719	7884.17
886.899	6745.5
887.08	6823.32
887.26	7144.85
887.44	6606.24
887.621	6391.2
887.801	6784.41
887.981	7347.6
888.161	7179.67
888.342	6514.08
888.522	6716.83
888.702	7191.95
888.882	7406.99
889.062	6774.17
889.242	6403.49
889.423	7441.81
889.603	7136.66
889.783	6995.35
889.963	6698.39
890.143	7202.19
890.323	7273.87
890.503	6966.68
890.683	6811.03
890.863	7187.86
891.043	7091.6
891.223	6845.85
891.403	6790.55
891.583	7077.27
891.763	7173.52
891.943	6841.75
892.122	6825.37
892.302	7089.56
892.482	7030.16
892.662	7007.64
892.842	6745.5
893.022	7024.02
893.201	6911.38
893.381	7028.12
893.561	6868.38
893.741	7396.75
893.92	7107.99
894.1	6921.62
894.28	6915.48
894.459	7353.74
894.639	7247.25
894.819	6919.57
894.998	6985.11
895.178	7234.96
895.357	7214.48
895.537	6800.79
895.716	6704.54
895.896	7269.78
896.075	7619.98
896.255	6817.18
896.434	6641.05
896.614	7335.31
896.793	7525.77
896.973	6991.25
897.152	6989.21
897.331	7150.99
897.511	7323.02
897.69	6872.47
897.87	7071.12
898.049	7269.78
898.228	7075.22
898.407	6948.25
898.587	6946.2
898.766	7085.46
898.945	7224.72
899.124	7085.46
899.304	7011.73
899.483	7294.35
899.662	7464.33
899.841	6694.3
900.02	6827.42
900.199	7458.19
900.378	7073.17
900.557	6823.32
900.737	6622.62
900.916	7200.15
901.095	7228.82
901.274	7177.62
901.453	6997.4
901.632	6806.94
901.811	6905.24
901.989	6845.85
902.168	6679.96
902.347	7200.15
902.526	6854.04
902.705	6823.32
902.884	6958.49
903.063	7450
903.242	7314.83
903.42	6591.9
903.599	6860.18
903.778	7239.06
903.957	7353.74
904.135	6813.08
904.314	6702.49
904.493	6985.11
904.672	7077.27
904.85	6811.03
905.029	6688.15
905.207	7327.12
905.386	7697.8
905.565	6528.41
905.743	6602.14
905.922	6808.98
906.1	7218.58
906.279	6299.04
906.457	6727.07
906.636	6804.89
906.814	6731.16
906.993	6608.28
907.171	6628.76
907.35	7122.32
907.528	7177.62
907.707	6899.09
907.885	6555.04
908.063	7247.25
908.242	6602.14
908.42	6710.68
908.598	6475.17
908.777	6952.34
908.955	6626.71
909.133	6643.1
909.311	6249.89
909.49	6540.7
909.668	6757.78
909.846	6471.07
910.024	6188.45
910.202	6669.72
910.38	6733.21
910.559	6413.73
910.737	6348.19
910.915	6645.15
911.093	6763.93
911.271	6413.73
911.449	6692.25
911.627	6899.09
911.805	7007.64
911.983	6354.34
912.161	6374.81
912.339	6675.87
912.517	6782.36
912.695	6401.44
912.872	6292.9
913.05	6124.96
913.228	6405.53
913.406	6186.4
913.584	6262.18
913.762	6657.43
913.939	6393.25
914.117	5965.22
914.295	6155.68
914.473	6720.92
914.65	6356.38
914.828	5926.31
915.006	6028.71
915.184	5965.22
915.361	6325.66
915.539	6288.8
915.716	6112.67
915.894	6364.57
916.072	6557.08
916.249	6237.6
916.427	6356.38
916.604	5979.56
916.782	6485.41
916.959	5885.35
917.137	5934.5
917.314	6176.16
917.492	6495.64
917.669	5911.97
917.847	5819.82
918.024	6286.75
918.201	6110.63
918.379	5932.45
918.556	5918.12
918.733	6188.45
918.911	5961.13
919.088	6116.77
919.265	5782.95
919.442	6288.8
919.62	6006.18
919.797	5737.9
919.974	5791.14
920.151	6241.7
920.328	6120.87
920.506	5649.83
920.683	5811.62
920.86	5651.88
921.037	5758.38
921.214	5840.29
921.391	5608.87
921.568	5924.26
921.745	5703.08
921.922	5662.12
922.099	5529
922.276	5901.73
922.453	5860.77
922.63	5445.04
922.807	5748.14
922.984	5643.69
923.161	5508.52
923.338	5631.4
923.514	5461.42
923.691	5572.01
923.868	5719.46
924.045	5330.35
924.222	5324.21
924.399	5705.13
924.575	5885.35
924.752	5457.32
924.929	5246.38
925.105	5655.98
925.282	5297.58
925.459	5279.15
925.635	5275.06
925.812	5326.25
925.989	5203.38
926.165	5313.97
926.342	5070.26
926.518	5146.03
926.695	5221.81
926.871	5189.04
927.048	5025.2
927.224	5709.22
927.401	5135.79
927.577	5172.66
927.754	4947.38
927.93	5463.47
928.107	5483.95
928.283	4799.93
928.459	5066.16
928.636	5209.52
928.812	5146.03
928.988	4978.1
929.165	4715.96
929.341	5064.11
929.517	5242.29
929.693	5164.47
929.87	4654.52
930.046	5066.16
930.222	4984.24
930.398	4683.19
930.574	4924.85
930.751	4992.44
930.927	4724.15
931.103	4740.54
931.279	4654.52
931.455	4726.2
931.631	4959.67
931.807	4439.48
931.983	4433.34
932.159	4433.34
932.335	4787.64
932.511	4576.7
932.687	4498.88
932.863	4814.26
933.039	4722.1
933.215	4445.63
933.391	4361.66
933.566	4636.09
933.742	4500.92
933.918	4406.72
934.094	4105.67
934.27	4472.25
934.445	4322.75
934.621	4312.51
934.797	3970.5
934.973	4545.98
935.148	4253.12
935.324	3931.59
935.5	3712.46
935.675	4470.2
935.851	4206.02
936.027	3818.95
936.202	3739.08
936.378	4160.96
936.553	3804.61
936.729	4083.14
936.904	3710.41
937.08	3640.78
937.255	3501.51
937.431	3472.84
937.606	3188.18
937.782	3468.75
937.957	3665.35
938.133	3405.26
938.308	3192.27
938.483	3409.36
938.659	3069.39
938.834	3194.32
939.009	2926.04
939.185	3169.74
939.36	2833.88
939.535	2426.33
939.71	2923.99
939.886	3317.2
940.061	3145.17
940.236	2934.23
940.411	2719.19
940.586	3112.4
940.761	3120.59
940.937	2641.37
941.112	2498.01
941.287	2719.19
941.462	2829.78
941.637	2301.4
941.812	2532.83
941.987	2891.22
942.162	2758.1
942.337	2612.7
942.512	2520.54
942.687	2825.68
942.862	2768.34
943.037	2188.77
943.212	2110.94
943.386	2440.67
943.561	2555.35
943.736	2575.83
943.911	2657.75
944.086	2567.64
944.26	2510.3
944.435	2381.28
944.61	2440.67
944.785	2799.06
944.959	3014.1
945.134	2377.18
945.309	2151.9
945.483	2328.03
945.658	2657.75
945.833	2149.86
946.007	2063.84
946.182	2729.43
946.357	2342.36
946.531	2139.62
946.706	2067.94
946.88	2162.14
947.055	2561.5
947.229	2235.87
947.404	2022.88
947.578	2598.36
947.752	2412
947.927	2100.7
948.101	2162.14
948.276	2461.15
948.45	2506.2
948.624	2446.81
948.799	2235.87
948.973	2403.8
949.147	2147.81
949.321	2342.36
949.496	2147.81
949.67	2745.81
949.844	2368.99
950.018	2307.55
950.193	2260.45
950.367	3020.24
950.541	2479.58
950.715	2448.86
950.889	2383.32
951.063	2541.02
951.237	2579.93
951.411	2031.07
951.585	2119.14
951.759	2581.98
951.933	2430.43
952.107	2176.48
952.281	2311.64
952.455	2774.49
952.629	2704.85
952.803	2246.11
952.977	2199.01
953.151	2608.6
953.325	2559.45
953.499	2424.28
953.672	2112.99
953.846	2260.45
954.02	2293.21
954.194	2215.39
954.368	2182.62
954.541	2629.08
954.715	2426.33
954.889	2317.79
955.062	2143.71
955.236	2282.97
955.41	2309.6
955.583	2266.59
955.757	1861.09
955.93	2305.5
956.104	2029.03
956.278	2035.17
956.451	2162.14
956.625	2455
956.798	2864.6
956.972	2428.38
957.145	2139.62
957.319	2313.69
957.492	2389.47
957.665	2180.57
957.839	2088.42
958.012	2524.63
958.185	2287.07
958.359	2088.42
958.532	2270.69
958.705	2522.59
958.879	2565.59
959.052	2139.62
959.225	1945.06
959.398	2377.18
959.572	2467.29
959.745	2110.94
959.918	2254.3
960.091	2291.17
960.264	2569.69
960.438	2016.74
960.611	1916.39
960.784	2596.31
960.957	2188.77
961.13	2524.63
961.303	2121.18
961.476	2368.99
961.649	2633.18
961.822	2088.42
961.995	2160.1
962.168	2555.35
962.341	2381.28
962.514	2016.74
962.686	2123.23
962.859	2297.31
963.032	2362.84
963.205	2115.04
963.378	1981.92
963.551	2475.48
963.723	2399.71
963.896	2131.42
964.069	2102.75
964.242	2446.81
964.414	2629.08
964.587	2076.13
964.76	2108.9
964.932	2412
965.105	2375.13
965.278	2022.88
965.45	2080.22
965.623	2309.6
965.795	2493.91
965.968	2153.95
966.14	2057.7
966.313	2235.87
966.485	2260.45
966.658	2092.51
966.83	1967.59
967.003	2600.41
967.175	2590.17
967.348	1998.31
967.52	2080.22
967.692	2649.56
967.865	2256.35
968.037	2012.64
968.209	2272.73
968.382	2393.56
968.554	2534.87
968.726	2018.79
968.898	2008.55
969.071	2358.75
969.243	2450.91
969.415	1943.01
969.587	2041.31
969.759	2764.25
969.932	2401.76
970.104	2057.7
970.276	1699.3
970.448	2137.57
970.62	2139.62
970.792	2063.84
970.964	1990.11
971.136	2743.77
971.308	2328.03
971.48	1883.62
971.652	2026.98
971.824	2547.16
971.996	2080.22
972.168	1953.25
972.339	1943.01
972.511	2455
972.683	2080.22
972.855	2170.33
973.027	2026.98
973.199	2141.66
973.37	2323.93
973.542	2125.28
973.714	2067.94
973.886	2110.94
974.057	2491.87
974.229	1869.28
974.401	1832.42
974.572	1986.02
974.744	1703.4
974.915	1912.29
975.087	1852.9
975.259	2569.69
975.43	2078.18
975.602	1813.99
975.773	1719.78
975.945	1963.49
976.116	2270.69
976.288	1793.51
976.459	2014.69
976.63	1990.11
976.802	2280.93
976.973	1721.83
977.145	2031.07
977.316	2588.12
977.487	2426.33
977.659	2035.17
977.83	1889.76
978.001	2428.38
978.172	2278.88
978.344	1725.93
978.515	1916.39
978.686	1977.83
978.857	2285.02
979.028	1840.61
979.2	1799.65
979.371	2262.49
979.542	2123.23
979.713	2043.36
979.884	1445.35
980.055	1826.28
980.226	1986.02
980.397	1795.56
980.568	1584.62
980.739	2354.65
980.91	2149.86
981.081	1883.62
981.252	1758.69
981.423	2272.73
981.594	2196.96
981.765	1695.21
981.936	1914.34
982.106	2065.89
982.277	2270.69
982.448	1711.59
982.619	1955.3
982.79	1744.36
982.96	2158.05
983.131	1842.66
983.302	1523.18
983.472	1789.41
983.643	2069.98
983.814	1799.65
983.984	1574.38
984.155	1910.24
984.326	2162.14
984.496	1760.74
984.667	1637.86
984.837	1787.36
985.008	2199.01
985.178	1811.94
985.349	1723.88
985.519	1850.85
985.69	1764.84
985.86	1707.49
986.031	1605.1
986.201	1977.83
986.371	2031.07
986.542	1527.27
986.712	1414.63
986.882	2084.32
987.053	1955.3
987.223	1457.64
987.393	1850.85
987.563	1824.23
987.734	2051.55
987.904	1877.48
988.074	1609.19
988.244	1842.66
988.414	1699.3
988.585	1582.57
988.755	1693.16
988.925	1887.72
989.095	2293.21
989.265	1605.1
989.435	1588.71
989.605	1967.59
989.775	1992.16
989.945	1879.52
990.115	1461.74
990.285	1889.76
990.455	1805.8
990.625	1564.14
990.795	1504.75
990.965	2104.8
991.134	1531.37
991.304	1474.03
991.474	1461.74
991.644	1797.6
991.814	2049.5
991.984	1312.24
992.153	1443.31
992.323	1820.13
992.493	1732.07
992.662	1326.57
992.832	1650.15
993.002	1842.66
993.171	1801.7
993.341	1289.71
993.511	1603.05
993.68	1693.16
993.85	1760.74
994.019	1275.37
994.189	1246.7
994.358	1715.69
994.528	1562.09
994.697	1160.69
994.867	1410.54
995.036	1865.19
995.206	1664.49
995.375	1373.68
995.544	1510.89
995.714	1732.07
995.883	1572.33
996.052	1451.5
996.222	1162.73
996.391	2125.28
996.56	1719.78
996.73	1322.48
996.899	1203.69
997.068	2026.98
997.237	1613.29
997.406	1242.61
997.576	1136.11
997.745	1674.73
997.914	1734.12
998.083	1123.82
998.252	1345
998.421	1682.92
998.59	1426.92
998.759	1256.94
998.928	1172.97
999.097	1813.99
999.266	1666.53
999.435	1338.86
999.604	1048.05
999.773	2108.9
999.942	1549.8
1000.111	1119.73
1000.28	1060.34
1000.448	1332.72
1000.617	1261.04
1000.786	1377.77
1000.955	1068.53
1001.124	1514.98
1001.292	2127.33
1001.461	1195.5
1001.63	1076.72
1001.798	1818.08
1001.967	1877.48
1002.136	1000.94
1002.304	1146.35
1002.473	1545.7
1002.642	1603.05
1002.81	1258.99
1002.979	1031.66
1003.147	1672.68
1003.316	2018.79
1003.484	1162.73
1003.653	1154.54
1003.821	1799.65
1003.99	1338.86
1004.158	1205.74
1004.327	1308.14
1004.495	1596.9
1004.663	1170.93
1004.832	1353.2
1005	1111.54
1005.168	1451.5
1005.337	1484.27
1005.505	982.51
1005.673	1287.66
1005.842	1492.46
1006.01	1480.17
1006.178	1037.81
1006.346	1097.2
1006.514	1433.07
1006.683	1588.71
1006.851	855.54
1007.019	880.11
1007.187	1170.93
1007.355	945.65
1007.523	851.44
1007.691	935.41
1007.859	1002.99
1008.027	1760.74
1008.195	1033.71
1008.363	894.45
1008.531	1510.89
1008.699	1170.93
1008.867	796.15
1009.035	820.72
1009.203	1617.38
1009.37	1306.09
1009.538	953.84
1009.706	1342.96
1009.874	1351.15
1010.042	1277.42
1010.209	804.34
1010.377	884.21
1010.545	1510.89
1010.713	1283.56
1010.88	765.43
1011.048	945.65
1011.216	1322.48
1011.383	1549.8
1011.551	916.98
1011.718	777.72
1011.886	1439.21
1012.054	1263.08
1012.221	927.22
1012.389	839.16
1012.556	1086.96
1012.724	1670.63
1012.891	1007.09
1013.058	652.79
1013.226	1326.57
1013.393	1326.57
1013.561	785.91
1013.728	658.93
1013.895	1422.83
1014.063	1211.89
1014.23	761.33
1014.397	783.86
1014.565	1347.05
1014.732	990.7
1014.899	671.22
1015.066	663.03
1015.233	1246.7
1015.401	1236.46
1015.568	929.27
1015.735	947.7
1015.902	1142.25
1016.069	1238.51
1016.236	820.72
1016.403	689.65
1016.57	935.41
1016.737	1334.76
1016.904	732.66
1017.071	722.42
1017.238	1029.62
1017.405	1355.24
1017.572	755.19
1017.739	943.6
1017.906	1271.28
1018.073	1287.66
1018.24	679.41
1018.407	744.95
1018.573	1367.53
1018.74	968.18
1018.907	669.17
1019.074	544.25
1019.241	1330.67
1019.407	1195.5
1019.574	564.73
1019.741	564.73
1019.907	1168.88
1020.074	1175.02
1020.241	507.38
1020.407	646.65
1020.574	1117.68
1020.74	1134.06
1020.907	736.76
1021.073	564.73
1021.24	1566.18
1021.406	1355.24
1021.573	554.49
1021.739	646.65
1021.906	1377.77
1022.072	974.32
1022.239	720.37
1022.405	794.1
1022.571	1062.38
1022.738	822.77
1022.904	630.26
1023.07	679.41
1023.237	1080.82
1023.403	1273.32
1023.569	742.9
1023.735	708.09
1023.902	1052.14
1024.068	1052.14
1024.234	572.92
1024.4	501.24
1024.566	978.42
1024.732	1211.89
1024.898	663.03
1025.065	437.75
1025.231	1129.97
1025.397	843.25
1025.563	652.79
1025.729	509.43
1025.895	536.06
1026.061	646.65
1026.227	400.89
1026.392	622.07
1026.558	1146.35
1026.724	966.13
1026.89	474.62
1027.056	658.93
1027.222	1043.95
1027.388	837.11
1027.553	531.96
1027.719	441.85
1027.885	1220.08
1028.051	1089.01
1028.216	290.3
1028.382	558.58
1028.548	1035.76
1028.713	785.91
1028.879	462.33
1029.045	583.16
1029.21	1207.79
1029.376	1150.45
1029.541	570.87
1029.707	466.42
1029.873	1089.01
1030.038	1027.57
1030.204	488.95
1030.369	478.71
1030.534	1007.09
1030.7	755.19
1030.865	562.68
1031.031	378.36
1031.196	1015.28
1031.361	849.4
1031.527	394.75
1031.692	441.85
1031.857	370.17
1032.023	908.79
1032.188	374.27
1032.353	497.14
1032.518	1164.78
1032.684	992.75
1032.849	263.68
1033.014	519.67
1033.179	1031.66
1033.344	957.94
1033.509	568.82
1033.674	480.76
1033.839	994.8
1034.004	949.75
1034.17	364.03
1034.335	347.64
1034.5	718.33
1034.664	689.65
1034.829	290.3
1034.994	511.48
1035.159	806.39
1035.324	800.24
1035.489	486.9
1035.654	351.74
1035.819	947.7
1035.984	728.56
1036.148	491
1036.313	464.38
1036.478	1013.23
1036.643	822.77
1036.807	386.55
1036.972	298.49
1037.137	1127.92
1037.301	777.72
1037.466	269.82
1037.631	421.37
1037.795	1097.2
1037.96	763.38
1038.124	583.16
1038.289	230.91
1038.454	925.17
1038.618	796.15
1038.783	400.89
1038.947	441.85
1039.111	777.72
1039.276	675.32
1039.44	323.07
1039.605	792.05
1039.769	638.45
1039.933	628.21
1040.098	404.99
1040.262	540.15
1040.426	935.41
1040.591	943.6
1040.755	300.54
1040.919	302.59
1041.083	824.82
1041.248	646.65
1041.412	157.18
1041.576	278.01
1041.74	640.5
1041.904	878.07
1042.068	290.3
1042.232	327.16
1042.397	888.31
1042.561	683.51
1042.725	122.37
1042.889	491
1043.053	771.57
1043.217	802.29
1043.381	409.08
1043.544	58.88
1043.708	851.44
1043.872	460.28
1044.036	62.98
1044.2	163.33
1044.364	1066.48
1044.528	1058.29
1044.691	3362.25
1044.855	108.03
1045.019	814.58
1045.183	876.02
1045.346	349.69
1045.51	198.14
1045.674	759.28
1045.837	753.14
1046.001	259.58
1046.165	173.57
1046.328	1152.49
1046.492	706.04
1046.655	429.56
1046.819	425.47
1046.983	511.48
1047.146	716.28
1047.31	357.88
1047.473	34.3
1047.636	587.26
1047.8	488.95
1047.963	255.48
1048.127	142.85
1048.29	361.98
