Data from Ink_Intensity_USB4F045381__197__00197.txt Node

Date: Mon Jul 17 11:47:12 EDT 2023
User: mmckonesweet
Spectrometer: USB4F04538
Trigger mode: 4
Integration Time (sec): 9.000000E-1
Scans to average: 1
Electric dark correction enabled: true
Nonlinearity correction enabled: false
Boxcar width: 0
XAxis mode: Wavelengths
Number of Pixels in Spectrum: 3648
>>>>>Begin Spectral Data<<<<<
345.52	-1009.99
345.736	-1009.99
345.952	-1009.99
346.168	-1012.04
346.384	-997.7
346.6	-149.84
346.816	-211.28
347.032	-262.48
347.248	331.43
347.464	-147.8
347.68	-137.56
347.896	106.15
348.112	353.96
348.328	-43.35
348.544	-149.84
348.76	69.29
348.975	241.32
349.191	-244.05
349.407	-227.67
349.623	34.47
349.839	-82.26
350.055	-207.19
350.27	-78.16
350.486	59.05
350.702	319.14
350.918	220.84
351.133	-166.23
351.349	102.06
351.565	351.91
351.781	-297.3
351.996	-49.49
352.212	251.56
352.428	-166.23
352.644	-264.53
352.859	-239.95
353.075	194.22
353.291	112.3
353.506	-158.03
353.722	-213.33
353.938	-76.12
354.153	460.45
354.369	124.58
354.584	-248.15
354.8	292.52
355.016	-278.87
355.231	-289.1
355.447	-98.64
355.662	79.53
355.878	863.9
356.093	-422.22
356.309	-59.73
356.524	-260.43
356.74	255.65
356.955	-235.86
357.171	-55.64
357.386	171.69
357.602	-299.34
357.817	-233.81
358.033	-84.31
358.248	448.16
358.464	79.53
358.679	-209.23
358.895	-328.02
359.11	-55.64
359.325	343.72
359.541	30.38
359.756	7.85
359.972	-301.39
360.187	95.91
360.402	-223.57
360.618	-166.23
360.833	937.63
361.048	116.39
361.264	-194.9
361.479	-39.25
361.694	-82.26
361.909	145.06
362.125	-219.47
362.34	-121.17
362.555	216.74
362.77	46.76
362.986	-362.83
363.201	-155.99
363.416	192.17
363.631	-31.06
363.847	-262.48
364.062	-209.23
364.277	169.64
364.492	7.85
364.707	-125.27
364.922	-391.5
365.138	186.02
365.353	343.72
365.568	-297.3
365.783	-129.36
365.998	-57.68
366.213	591.52
366.428	-254.29
366.643	1.71
366.858	177.83
367.073	237.22
367.288	-100.69
367.503	-299.34
367.718	63.15
367.933	255.65
368.148	-252.24
368.363	-76.12
368.578	-78.16
368.793	405.16
369.008	-174.42
369.223	-182.61
369.438	235.18
369.653	300.71
369.868	-264.53
370.083	-313.68
370.298	79.53
370.513	401.06
370.728	54.95
370.943	-196.95
371.157	-198.99
371.372	532.13
371.587	-325.97
371.802	-248.15
372.017	38.57
372.232	415.4
372.446	-72.02
372.661	-309.58
372.876	208.55
373.091	188.07
373.306	-166.23
373.52	-248.15
373.735	-215.38
373.95	411.3
374.165	-115.03
374.379	-117.08
374.594	-125.27
374.809	118.44
375.023	-67.92
375.238	-276.82
375.453	200.36
375.667	-311.63
375.882	-211.28
376.097	-280.91
376.311	-35.16
376.526	-92.5
376.741	-250.19
376.955	1.71
377.17	511.65
377.384	450.21
377.599	-112.98
377.813	-387.41
378.028	472.74
378.242	126.63
378.457	-119.12
378.672	-305.49
378.886	124.58
379.101	-84.31
379.315	-348.5
379.53	-217.43
379.744	210.6
379.958	50.86
380.173	-211.28
380.387	-182.61
380.602	212.65
380.816	-94.55
381.031	-117.08
381.245	-174.42
381.459	87.72
381.674	872.09
381.888	-231.76
382.103	85.67
382.317	-266.58
382.531	456.36
382.746	-53.59
382.96	-227.67
383.174	-108.88
383.388	415.4
383.603	-8.53
383.817	-295.25
384.031	157.35
384.246	382.63
384.46	-51.54
384.674	319.14
384.888	75.43
385.103	9.9
385.317	-334.16
385.531	-102.74
385.745	290.47
385.959	308.9
386.174	-201.04
386.388	-297.3
386.602	71.34
386.816	-198.99
387.03	-112.98
387.244	-164.18
387.458	40.62
387.672	356.01
387.887	-319.82
388.101	-377.17
388.315	349.86
388.529	102.06
388.743	-289.1
388.957	-282.96
389.171	253.61
389.385	-268.63
389.599	-53.59
389.813	48.81
390.027	206.5
390.241	603.81
390.455	-178.51
390.669	-149.84
390.883	-155.99
391.097	372.39
391.311	-26.96
391.525	-231.76
391.738	149.16
391.952	183.98
392.166	-123.22
392.38	-297.3
392.594	220.84
392.808	290.47
393.022	-162.13
393.236	-201.04
393.449	136.87
393.663	130.73
393.877	-268.63
394.091	-155.99
394.305	-100.69
394.518	-168.27
394.732	-305.49
394.946	-153.94
395.16	405.16
395.373	165.54
395.587	-299.34
395.801	-235.86
396.015	194.22
396.228	171.69
396.442	-393.55
396.656	-368.98
396.869	382.63
397.083	392.87
397.297	-160.08
397.51	-102.74
397.724	368.29
397.938	83.63
398.151	-352.59
398.365	-373.07
398.578	130.73
398.792	308.9
399.005	-108.88
399.219	-176.47
399.433	153.26
399.646	181.93
399.86	20.14
400.073	-6.49
400.287	239.27
400.5	-8.53
400.714	-57.68
400.927	-153.94
401.141	147.11
401.354	1058.46
401.567	173.74
401.781	-289.1
401.994	300.71
402.208	493.22
402.421	-108.88
402.635	-59.73
402.848	32.43
403.061	235.18
403.275	-86.36
403.488	-289.1
403.701	448.16
403.915	128.68
404.128	-31.06
404.341	-221.52
404.555	118.44
404.768	-59.73
404.981	-47.44
405.195	-174.42
405.408	390.82
405.621	181.93
405.834	44.71
406.048	-223.57
406.261	401.06
406.474	370.34
406.687	-254.29
406.9	-59.73
407.114	38.57
407.327	161.45
407.54	-336.21
407.753	-336.21
407.966	-174.42
408.179	235.18
408.392	-231.76
408.605	-360.78
408.819	179.88
409.032	108.2
409.245	-256.34
409.458	-10.58
409.671	241.32
409.884	212.65
410.097	-274.77
410.31	-8.53
410.523	173.74
410.736	-69.97
410.949	-117.08
411.162	-147.8
411.375	382.63
411.588	337.57
411.801	-108.88
412.014	-237.91
412.227	57
412.44	-63.83
412.653	-221.52
412.865	-18.77
413.078	198.31
413.291	202.41
413.504	-125.27
413.717	-289.1
413.93	304.81
414.143	-145.75
414.356	-117.08
414.568	-428.37
414.781	220.84
414.994	65.19
415.207	-117.08
415.42	-182.61
415.632	214.7
415.845	503.46
416.058	-270.67
416.271	-289.1
416.483	52.91
416.696	513.7
416.909	-258.39
417.121	-203.09
417.334	89.77
417.547	554.66
417.759	-280.91
417.972	-205.14
418.185	1.71
418.397	198.31
418.61	-227.67
418.823	-235.86
419.035	405.16
419.248	97.96
419.46	-178.51
419.673	-125.27
419.885	177.83
420.098	5.8
420.311	-233.81
420.523	-344.4
420.736	132.78
420.948	-14.68
421.161	-139.6
421.373	-368.98
421.586	102.06
421.798	-145.75
422.01	-246.1
422.223	-67.92
422.435	-100.69
422.648	169.64
422.86	-149.84
423.073	-252.24
423.285	313
423.497	-278.87
423.71	-252.24
423.922	-248.15
424.134	73.39
424.347	382.63
424.559	1.71
424.771	-14.68
424.984	-63.83
425.196	147.11
425.408	-334.16
425.621	-366.93
425.833	267.94
426.045	313
426.257	-295.25
426.47	-170.32
426.682	128.68
426.894	120.49
427.106	-182.61
427.318	-131.41
427.531	-231.76
427.743	200.36
427.955	-272.72
428.167	263.85
428.379	153.26
428.591	-26.96
428.804	-108.88
429.016	-235.86
429.228	-35.16
429.44	93.87
429.652	-18.77
429.864	-301.39
430.076	-26.96
430.288	1.71
430.5	-143.7
430.712	-88.4
430.924	251.56
431.136	42.67
431.348	-364.88
431.56	-264.53
431.772	-26.96
431.984	-43.35
432.196	-248.15
432.408	-219.47
432.62	-51.54
432.832	128.68
433.044	24.23
433.256	-96.6
433.468	206.5
433.679	-338.26
433.891	-315.73
434.103	-72.02
434.315	399.01
434.527	186.02
434.739	-119.12
434.95	-166.23
435.162	261.8
435.374	-108.88
435.586	-207.19
435.798	-233.81
436.009	-182.61
436.221	-2.39
436.433	-264.53
436.645	-158.03
436.856	-8.53
437.068	282.28
437.28	-293.2
437.491	-6.49
437.703	128.68
437.915	149.16
438.126	-211.28
438.338	18.09
438.55	26.28
438.761	149.16
438.973	-203.09
439.184	-227.67
439.396	1.71
439.608	249.51
439.819	-198.99
440.031	-117.08
440.242	116.39
440.454	159.4
440.665	-274.77
440.877	-123.22
441.088	202.41
441.3	28.33
441.511	-358.74
441.723	-256.34
441.934	167.59
442.146	-6.49
442.357	-61.78
442.569	-22.87
442.78	91.82
442.991	380.58
443.203	169.64
443.414	-260.43
443.626	325.29
443.837	-162.13
444.048	-280.91
444.26	-362.83
444.471	57
444.682	212.65
444.894	-409.94
445.105	-342.35
445.316	247.46
445.528	177.83
445.739	-147.8
445.95	-248.15
446.161	112.3
446.373	302.76
446.584	-223.57
446.795	-221.52
447.006	200.36
447.217	497.32
447.429	-307.54
447.64	-289.1
447.851	366.25
448.062	-4.44
448.273	-371.02
448.484	-145.75
448.695	52.91
448.907	-24.92
449.118	-178.51
449.329	3.75
449.54	-194.9
449.751	-252.24
449.962	-219.47
450.173	-285.01
450.384	358.05
450.595	302.76
450.806	-252.24
451.017	-252.24
451.228	345.77
451.439	253.61
451.65	-192.85
451.861	-397.65
452.072	-182.61
452.283	20.14
452.494	-57.68
452.705	-301.39
452.915	374.44
453.126	95.91
453.337	-158.03
453.548	-244.05
453.759	263.85
453.97	587.43
454.181	97.96
454.391	-180.56
454.602	24.23
454.813	196.26
455.024	-174.42
455.235	-225.62
455.445	95.91
455.656	128.68
455.867	-63.83
456.078	-272.72
456.288	9.9
456.499	65.19
456.71	-295.25
456.921	-4.44
457.131	153.26
457.342	87.72
457.553	-178.51
457.763	-237.91
457.974	231.08
458.184	261.8
458.395	-383.31
458.606	-332.11
458.816	360.1
459.027	470.69
459.237	-80.21
459.448	-418.13
459.659	331.43
459.869	562.85
460.08	-391.5
460.29	-86.36
460.501	503.46
460.711	-121.17
460.922	-375.12
461.132	-239.95
461.343	722.59
461.553	-313.68
461.764	-334.16
461.974	-219.47
462.184	173.74
462.395	128.68
462.605	-198.99
462.816	-293.2
463.026	75.43
463.236	323.24
463.447	-188.75
463.657	-276.82
463.867	226.98
464.078	-84.31
464.288	-149.84
464.498	-336.21
464.709	-16.73
464.919	-16.73
465.129	-203.09
465.339	-248.15
465.55	59.05
465.76	210.6
465.97	-227.67
466.18	-297.3
466.391	218.79
466.601	181.93
466.811	-162.13
467.021	-297.3
467.231	126.63
467.441	269.99
467.651	-231.76
467.862	-442.7
468.072	-14.68
468.282	317.09
468.492	-239.95
468.702	-174.42
468.912	75.43
469.122	583.33
469.332	61.1
469.542	-246.1
469.752	179.88
469.962	140.97
470.172	-330.06
470.382	-272.72
470.592	222.89
470.802	300.71
471.012	-125.27
471.222	-295.25
471.432	196.26
471.642	226.98
471.852	-139.6
472.062	-356.69
472.272	-59.73
472.482	-203.09
472.691	-332.11
472.901	-358.74
473.111	24.23
473.321	480.93
473.531	-366.93
473.741	-223.57
473.95	138.92
474.16	145.06
474.37	-133.46
474.58	-405.84
474.79	499.36
474.999	267.94
475.209	-293.2
475.419	-268.63
475.628	-18.77
475.838	317.09
476.048	-190.8
476.258	-348.5
476.467	298.66
476.677	73.39
476.886	-22.87
477.096	-104.79
477.306	-145.75
477.515	294.57
477.725	-151.89
477.935	-227.67
478.144	321.19
478.354	-110.93
478.563	-153.94
478.773	-323.92
478.982	235.18
479.192	333.48
479.401	-135.51
479.611	-305.49
479.82	-135.51
480.03	46.76
480.239	-321.87
480.449	-352.59
480.658	399.01
480.868	-133.46
481.077	-194.9
481.287	-242
481.496	177.83
481.705	382.63
481.915	-10.58
482.124	-22.87
482.333	97.96
482.543	349.86
482.752	-133.46
482.961	-315.73
483.171	235.18
483.38	-67.92
483.589	-203.09
483.799	-313.68
484.008	-76.12
484.217	263.85
484.426	-235.86
484.636	-360.78
484.845	106.15
485.054	-280.91
485.263	18.09
485.472	-250.19
485.682	392.87
485.891	83.63
486.1	-332.11
486.309	-307.54
486.518	28.33
486.727	337.57
486.936	-330.06
487.146	-178.51
487.355	341.67
487.564	-198.99
487.773	-250.19
487.982	-258.39
488.191	-78.16
488.4	87.72
488.609	-248.15
488.818	-289.1
489.027	546.47
489.236	425.64
489.445	-287.06
489.654	-291.15
489.863	282.28
490.072	140.97
490.281	169.64
490.49	-242
490.698	474.79
490.907	394.92
491.116	-192.85
491.325	-379.22
491.534	317.09
491.743	54.95
491.952	-84.31
492.16	-227.67
492.369	155.3
492.578	253.61
492.787	-194.9
492.996	-420.17
493.204	-129.36
493.413	487.08
493.622	-360.78
493.831	-379.22
494.039	382.63
494.248	-223.57
494.457	-239.95
494.665	-348.5
494.874	161.45
495.083	485.03
495.291	-188.75
495.5	-330.06
495.709	257.7
495.917	104.11
496.126	-104.79
496.335	-330.06
496.543	-72.02
496.752	87.72
496.96	-0.34
497.169	-391.5
497.377	34.47
497.586	317.09
497.794	-90.45
498.003	-393.55
498.211	-55.64
498.42	317.09
498.628	-174.42
498.837	-436.56
499.045	114.34
499.254	9.9
499.462	-325.97
499.671	-350.54
499.879	472.74
500.087	183.98
500.296	-305.49
500.504	-325.97
500.713	65.19
500.921	534.18
501.129	-196.95
501.338	-155.99
501.546	71.34
501.754	79.53
501.962	-227.67
502.171	-407.89
502.379	165.54
502.587	505.51
502.795	-215.38
503.004	-258.39
503.212	63.15
503.42	198.31
503.628	-280.91
503.837	-158.03
504.045	157.35
504.253	370.34
504.461	-295.25
504.669	-362.83
504.877	231.08
505.085	448.16
505.294	-346.45
505.502	-65.88
505.71	26.28
505.918	169.64
506.126	-360.78
506.334	-338.26
506.542	-43.35
506.75	120.49
506.958	-88.4
507.166	-248.15
507.374	16.04
507.582	456.36
507.79	-172.37
507.998	-317.78
508.206	42.67
508.414	102.06
508.622	-297.3
508.83	-239.95
509.037	372.39
509.245	-8.53
509.453	-325.97
509.661	-362.83
509.869	93.87
510.077	5.8
510.285	-182.61
510.492	-489.81
510.7	630.43
510.908	-47.44
511.116	-282.96
511.324	-293.2
511.531	-80.21
511.739	73.39
511.947	-92.5
512.155	26.28
512.362	130.73
512.57	-164.18
512.778	-289.1
512.985	-338.26
513.193	259.75
513.401	394.92
513.608	-256.34
513.816	-317.78
514.024	183.98
514.231	239.27
514.439	-256.34
514.646	-270.67
514.854	214.7
515.061	302.76
515.269	-321.87
515.477	-235.86
515.684	-80.21
515.892	247.46
516.099	-424.27
516.307	-350.54
516.514	216.74
516.722	392.87
516.929	-262.48
517.136	-379.22
517.344	448.16
517.551	126.63
517.759	-334.16
517.966	-235.86
518.173	-55.64
518.381	-35.16
518.588	-172.37
518.796	-248.15
519.003	231.08
519.21	85.67
519.418	-334.16
519.625	-100.69
519.832	-26.96
520.039	147.11
520.247	-440.65
520.454	-295.25
520.661	239.27
520.868	220.84
521.076	-244.05
521.283	-227.67
521.49	538.27
521.697	194.22
521.904	-184.66
522.112	-317.78
522.319	265.89
522.526	108.2
522.733	-295.25
522.94	-231.76
523.147	57
523.354	204.46
523.561	-475.47
523.768	-264.53
523.975	288.42
524.183	138.92
524.39	-149.84
524.597	-399.7
524.804	1.71
525.011	-178.51
525.218	-248.15
525.425	-323.92
525.632	386.72
525.838	-123.22
526.045	-235.86
526.252	-364.88
526.459	1078.94
526.666	808.61
526.873	-330.06
527.08	-244.05
527.287	372.39
527.494	210.6
527.701	-309.58
527.907	-309.58
528.114	93.87
528.321	-26.96
528.528	-266.58
528.735	-250.19
528.941	-168.27
529.148	-100.69
529.355	-141.65
529.562	-356.69
529.768	366.25
529.975	-53.59
530.182	-211.28
530.388	-299.34
530.595	302.76
530.802	-338.26
531.008	-117.08
531.215	-328.02
531.422	407.2
531.628	593.57
531.835	-137.56
532.042	-225.62
532.248	-158.03
532.455	-8.53
532.661	-194.9
532.868	-293.2
533.074	59.05
533.281	286.37
533.487	-225.62
533.694	-282.96
533.9	-186.71
534.107	151.21
534.313	-399.7
534.52	-436.56
534.726	370.34
534.933	497.32
535.139	-246.1
535.345	-444.75
535.552	16.04
535.758	26.28
535.965	-196.95
536.171	-313.68
536.377	194.22
536.584	366.25
536.79	-366.93
536.996	-178.51
537.203	-6.49
537.409	196.26
537.615	-190.8
537.821	-131.41
538.028	171.69
538.234	179.88
538.44	-336.21
538.646	-213.33
538.853	204.46
539.059	1.71
539.265	95.91
539.471	-541.01
539.677	239.27
539.883	-53.59
540.09	-346.45
540.296	177.83
540.502	3.75
540.708	-151.89
540.914	-125.27
541.12	-264.53
541.326	118.44
541.532	-55.64
541.738	-223.57
541.944	-115.03
542.15	325.29
542.356	30.38
542.562	-368.98
542.768	-256.34
542.974	556.71
543.18	423.59
543.386	-301.39
543.592	-360.78
543.798	243.37
544.004	310.95
544.21	-293.2
544.415	-158.03
544.621	81.58
544.827	239.27
545.033	-379.22
545.239	-35.16
545.445	-266.58
545.651	175.78
545.856	-309.58
546.062	-305.49
546.268	1.71
546.474	34.47
546.679	-221.52
546.885	-194.9
547.091	-92.5
547.297	480.93
547.502	-280.91
547.708	-366.93
547.914	-112.98
548.119	100.01
548.325	-301.39
548.531	-325.97
548.736	407.2
548.942	-215.38
549.147	-379.22
549.353	-22.87
549.559	253.61
549.764	110.25
549.97	-227.67
550.175	-260.43
550.381	210.6
550.586	-84.31
550.792	-153.94
550.997	-262.48
551.203	126.63
551.408	190.12
551.614	-321.87
551.819	-319.82
552.025	401.06
552.23	450.21
552.435	-375.12
552.641	-67.92
552.846	-262.48
553.052	356.01
553.257	-119.12
553.462	-244.05
553.668	-209.23
553.873	183.98
554.078	-348.5
554.283	-250.19
554.489	22.19
554.694	-31.06
554.899	-346.45
555.105	-80.21
555.31	67.24
555.515	204.46
555.72	-182.61
555.925	-319.82
556.131	196.26
556.336	20.14
556.541	-274.77
556.746	-373.07
556.951	325.29
557.156	435.88
557.361	-203.09
557.567	-115.03
557.772	566.95
557.977	128.68
558.182	-285.01
558.387	-295.25
558.592	-149.84
558.797	345.77
559.002	-194.9
559.207	-160.08
559.412	22.19
559.617	415.4
559.822	-242
560.027	-301.39
560.232	79.53
560.437	194.22
560.642	-420.17
560.847	-313.68
561.051	89.77
561.256	149.16
561.461	-280.91
561.666	-360.78
561.871	120.49
562.076	145.06
562.281	-196.95
562.485	-328.02
562.69	210.6
562.895	351.91
563.1	-313.68
563.305	-305.49
563.509	378.53
563.714	595.62
563.919	-325.97
564.123	-268.63
564.328	5.8
564.533	325.29
564.737	-217.43
564.942	-264.53
565.147	415.4
565.351	501.41
565.556	-129.36
565.761	-190.8
565.965	122.54
566.17	-119.12
566.374	-280.91
566.579	-297.3
566.784	167.59
566.988	-188.75
567.193	-448.85
567.397	-268.63
567.602	-305.49
567.806	-29.01
568.011	-352.59
568.215	-190.8
568.42	-82.26
568.624	-133.46
568.828	-309.58
569.033	-65.88
569.237	222.89
569.442	218.79
569.646	-428.37
569.85	-213.33
570.055	-18.77
570.259	77.48
570.463	-35.16
570.668	-235.86
570.872	42.67
571.076	11.95
571.281	-84.31
571.485	-133.46
571.689	30.38
571.893	175.78
572.098	-121.17
572.302	-262.48
572.506	179.88
572.71	-6.49
572.914	-225.62
573.119	-196.95
573.323	341.67
573.527	308.9
573.731	-297.3
573.935	-280.91
574.139	73.39
574.343	-131.41
574.547	-239.95
574.751	-242
574.955	353.96
575.159	259.75
575.364	-336.21
575.568	-364.88
575.772	-26.96
575.976	280.23
576.18	-297.3
576.383	-336.21
576.587	192.17
576.791	140.97
576.995	-467.28
577.199	-448.85
577.403	274.09
577.607	233.13
577.811	-321.87
578.015	-182.61
578.219	59.05
578.422	222.89
578.626	-213.33
578.83	-96.6
579.034	296.61
579.238	116.39
579.442	-342.35
579.645	67.24
579.849	-10.58
580.053	102.06
580.257	-276.82
580.46	-201.04
580.664	224.94
580.868	149.16
581.071	-20.82
581.275	-219.47
581.479	-272.72
581.682	124.58
581.886	-209.23
582.09	-201.04
582.293	200.36
582.497	278.18
582.7	-108.88
582.904	-297.3
583.107	9.9
583.311	-37.2
583.515	-139.6
583.718	-223.57
583.922	210.6
584.125	464.55
584.329	-360.78
584.532	-76.12
584.735	300.71
584.939	97.96
585.142	-295.25
585.346	-309.58
585.549	136.87
585.753	-69.97
585.956	-258.39
586.159	-135.51
586.363	456.36
586.566	186.02
586.769	-303.44
586.973	-381.26
587.176	59.05
587.379	276.13
587.582	63.15
587.786	-16.73
587.989	-53.59
588.192	691.87
588.395	-323.92
588.599	7.85
588.802	116.39
589.005	239.27
589.208	-229.71
589.411	-237.91
589.615	269.99
589.818	351.91
590.021	-22.87
590.224	-172.37
590.427	235.18
590.63	226.98
590.833	-366.93
591.036	-250.19
591.239	-108.88
591.442	-139.6
591.645	-123.22
591.848	-223.57
592.051	81.58
592.254	300.71
592.457	-225.62
592.66	-196.95
592.863	-59.73
593.066	67.24
593.269	-217.43
593.472	-106.84
593.675	-198.99
593.878	233.13
594.081	-100.69
594.284	-297.3
594.486	229.03
594.689	44.71
594.892	-149.84
595.095	-141.65
595.298	171.69
595.5	-108.88
595.703	-151.89
595.906	-151.89
596.109	366.25
596.311	243.37
596.514	-477.52
596.717	-260.43
596.92	366.25
597.122	151.21
597.325	-432.46
597.528	-244.05
597.73	308.9
597.933	67.24
598.136	-239.95
598.338	-434.51
598.541	157.35
598.743	288.42
598.946	-293.2
599.148	-287.06
599.351	288.42
599.554	300.71
599.756	-160.08
599.959	-297.3
600.161	300.71
600.363	599.71
600.566	-57.68
600.768	-352.59
600.971	394.92
601.173	300.71
601.376	-325.97
601.578	-244.05
601.78	147.11
601.983	640.67
602.185	-299.34
602.388	-49.49
602.59	128.68
602.792	-22.87
602.995	-96.6
603.197	-190.8
603.399	177.83
603.601	155.3
603.804	-174.42
604.006	-256.34
604.208	-41.3
604.41	-409.94
604.613	-63.83
604.815	-235.86
605.017	530.08
605.219	-72.02
605.421	116.39
605.623	-252.24
605.826	251.56
606.028	376.48
606.23	-287.06
606.432	-223.57
606.634	394.92
606.836	380.58
607.038	-297.3
607.24	-88.4
607.442	75.43
607.644	85.67
607.846	-76.12
608.048	-272.72
608.25	407.2
608.452	-121.17
608.654	-203.09
608.856	-319.82
609.058	81.58
609.26	165.54
609.462	-108.88
609.664	-178.51
609.866	466.6
610.067	306.85
610.269	-112.98
610.471	-168.27
610.673	-133.46
610.875	87.72
611.077	-416.08
611.278	-158.03
611.48	22.19
611.682	534.18
611.884	-190.8
612.085	-143.7
612.287	-194.9
612.489	147.11
612.69	-411.98
612.892	-196.95
613.094	259.75
613.295	183.98
613.497	-319.82
613.699	-117.08
613.9	390.82
614.102	339.62
614.304	-182.61
614.505	-436.56
614.707	-12.63
614.908	-26.96
615.11	-366.93
615.311	-174.42
615.513	186.02
615.714	300.71
615.916	-362.83
616.117	-196.95
616.319	22.19
616.52	175.78
616.722	-219.47
616.923	-268.63
617.124	294.57
617.326	263.85
617.527	-100.69
617.729	69.29
617.93	284.33
618.131	313
618.333	-209.23
618.534	-207.19
618.735	-160.08
618.937	442.02
619.138	-305.49
619.339	-227.67
619.54	243.37
619.742	-10.58
619.943	-84.31
620.144	-190.8
620.345	259.75
620.546	276.13
620.748	-205.14
620.949	-190.8
621.15	30.38
621.351	91.82
621.552	-244.05
621.753	-330.06
621.954	-311.63
622.155	476.84
622.356	-342.35
622.558	-39.25
622.759	36.52
622.96	468.64
623.161	-235.86
623.362	-244.05
623.563	20.14
623.764	106.15
623.965	-256.34
624.166	-0.34
624.366	79.53
624.567	97.96
624.768	-465.23
624.969	-158.03
625.17	-31.06
625.371	282.28
625.572	-143.7
625.773	-252.24
625.973	300.71
626.174	233.13
626.375	-92.5
626.576	-166.23
626.777	192.17
626.977	640.67
627.178	-280.91
627.379	-108.88
627.58	69.29
627.78	104.11
627.981	-151.89
628.182	-86.36
628.382	319.14
628.583	-254.29
628.784	-348.5
628.984	-117.08
629.185	272.04
629.386	200.36
629.586	-55.64
629.787	-201.04
629.987	239.27
630.188	91.82
630.388	-166.23
630.589	-72.02
630.79	640.67
630.99	26.28
631.191	-147.8
631.391	-76.12
631.591	251.56
631.792	493.22
631.992	-74.07
632.193	-184.66
632.393	427.68
632.594	143.02
632.794	-215.38
632.994	-76.12
633.195	89.77
633.395	161.45
633.595	-205.14
633.796	32.43
633.996	-104.79
634.196	442.02
634.397	-301.39
634.597	-192.85
634.797	-2.39
634.997	495.27
635.198	54.95
635.398	-375.12
635.598	210.6
635.798	470.69
635.998	218.79
636.199	-248.15
636.399	-24.92
636.599	-203.09
636.799	-225.62
636.999	110.25
637.199	231.08
637.399	296.61
637.599	-211.28
637.799	-49.49
637.999	-86.36
638.199	399.01
638.399	-274.77
638.599	-184.66
638.799	161.45
638.999	612
639.199	-57.68
639.399	-100.69
639.599	396.96
639.799	-139.6
639.999	-205.14
640.199	-305.49
640.399	132.78
640.599	155.3
640.799	-182.61
640.998	-57.68
641.198	466.6
641.398	226.98
641.598	-39.25
641.798	-198.99
641.997	1058.46
642.197	63.15
642.397	-65.88
642.597	-285.01
642.796	245.41
642.996	517.79
643.196	-53.59
643.395	-248.15
643.595	194.22
643.795	-307.54
643.994	-160.08
644.194	-147.8
644.394	378.53
644.593	186.02
644.793	-313.68
644.992	-6.49
645.192	110.25
645.392	-338.26
645.591	-57.68
645.791	-172.37
645.99	233.13
646.19	63.15
646.389	-26.96
646.589	-65.88
646.788	233.13
646.987	214.7
647.187	50.86
647.386	34.47
647.586	155.3
647.785	292.52
647.984	-76.12
648.184	-18.77
648.383	-57.68
648.582	20.14
648.782	-82.26
648.981	-41.3
649.18	7.85
649.38	87.72
649.579	-131.41
649.778	-285.01
649.977	251.56
650.177	173.74
650.376	-98.64
650.575	-188.75
650.774	462.5
650.973	-12.63
651.173	-297.3
651.372	-90.45
651.571	140.97
651.77	362.15
651.969	-256.34
652.168	-72.02
652.367	-180.56
652.566	20.14
652.765	-100.69
652.964	87.72
653.163	544.42
653.362	11.95
653.561	-182.61
653.76	-158.03
653.959	63.15
654.158	220.84
654.357	128.68
654.556	-51.54
654.755	245.41
654.954	222.89
655.153	-164.18
655.352	-4.44
655.551	427.68
655.749	-88.4
655.948	-43.35
656.147	-55.64
656.346	157.35
656.545	52.91
656.743	-61.78
656.942	-74.07
657.141	116.39
657.34	-133.46
657.538	-4.44
657.737	-125.27
657.936	54.95
658.135	204.46
658.333	-192.85
658.532	-26.96
658.731	452.26
658.929	337.57
659.128	194.22
659.326	-166.23
659.525	401.06
659.724	69.29
659.922	-295.25
660.121	-123.22
660.319	171.69
660.518	-80.21
660.716	-149.84
660.915	-256.34
661.113	347.81
661.312	-153.94
661.51	-29.01
661.709	-211.28
661.907	202.41
662.105	497.32
662.304	-196.95
662.502	-131.41
662.701	403.11
662.899	-16.73
663.097	202.41
663.296	-366.93
663.494	382.63
663.692	439.97
663.891	-166.23
664.089	-291.15
664.287	175.78
664.485	403.11
664.684	-219.47
664.882	-41.3
665.08	218.79
665.278	149.16
665.476	-272.72
665.675	140.97
665.873	532.13
666.071	425.64
666.269	-180.56
666.467	63.15
666.665	202.41
666.863	122.54
667.061	52.91
667.259	-184.66
667.457	71.34
667.655	321.19
667.853	-311.63
668.051	32.43
668.249	-43.35
668.447	362.15
668.645	-151.89
668.843	132.78
669.041	259.75
669.239	59.05
669.437	67.24
669.635	81.58
669.833	38.57
670.031	327.33
670.229	-31.06
670.426	13.99
670.624	-10.58
670.822	-65.88
671.02	-139.6
671.218	-67.92
671.415	-96.6
671.613	136.87
671.811	-49.49
672.009	-63.83
672.206	329.38
672.404	87.72
672.602	138.92
672.799	67.24
672.997	153.26
673.195	376.48
673.392	-2.39
673.59	-198.99
673.788	319.14
673.985	-399.7
674.183	9.9
674.38	-221.52
674.578	325.29
674.775	-86.36
674.973	-256.34
675.17	-145.75
675.368	456.36
675.565	222.89
675.763	-180.56
675.96	-198.99
676.158	409.25
676.355	38.57
676.553	-117.08
676.75	-131.41
676.947	122.54
677.145	13.99
677.342	-51.54
677.539	38.57
677.737	216.74
677.934	659.1
678.131	63.15
678.329	-174.42
678.526	544.42
678.723	329.38
678.92	-57.68
679.118	-55.64
679.315	-57.68
679.512	437.92
679.709	16.04
679.906	-31.06
680.104	460.45
680.301	118.44
680.498	-207.19
680.695	-186.71
680.892	1.71
681.089	44.71
681.286	-8.53
681.483	-201.04
681.68	358.05
681.877	356.01
682.075	-49.49
682.272	161.45
682.469	202.41
682.665	11.95
682.862	-166.23
683.059	-229.71
683.256	292.52
683.453	165.54
683.65	-10.58
683.847	-61.78
684.044	194.22
684.241	-4.44
684.438	52.91
684.635	-162.13
684.831	585.38
685.028	534.18
685.225	-88.4
685.422	79.53
685.619	46.76
685.815	167.59
686.012	143.02
686.209	-59.73
686.405	-123.22
686.602	409.25
686.799	-178.51
686.996	-100.69
687.192	-112.98
687.389	648.86
687.586	-133.46
687.782	-12.63
687.979	503.46
688.175	394.92
688.372	-33.11
688.568	-14.68
688.765	-16.73
688.962	511.65
689.158	97.96
689.355	-235.86
689.551	399.01
689.748	5.8
689.944	40.62
690.14	-166.23
690.337	450.21
690.533	-35.16
690.73	167.59
690.926	36.52
691.123	347.81
691.319	120.49
691.515	-158.03
691.712	173.74
691.908	313
692.104	259.75
692.301	73.39
692.497	-133.46
692.693	335.53
692.889	392.87
693.086	87.72
693.282	-229.71
693.478	226.98
693.674	579.23
693.87	-14.68
694.067	-282.96
694.263	179.88
694.459	97.96
694.655	120.49
694.851	22.19
695.047	366.25
695.243	300.71
695.439	95.91
695.635	-53.59
695.831	335.53
696.027	171.69
696.224	-166.23
696.42	198.31
696.615	448.16
696.811	310.95
697.007	-207.19
697.203	-43.35
697.399	288.42
697.595	472.74
697.791	-115.03
697.987	89.77
698.183	-35.16
698.379	-92.5
698.575	-2.39
698.77	-35.16
698.966	392.87
699.162	485.03
699.358	22.19
699.554	9.9
699.749	349.86
699.945	382.63
700.141	114.34
700.337	114.34
700.532	104.11
700.728	-31.06
700.924	-35.16
701.119	-135.51
701.315	329.38
701.511	190.12
701.706	34.47
701.902	-196.95
702.097	138.92
702.293	366.25
702.489	54.95
702.684	-12.63
702.88	157.35
703.075	140.97
703.271	69.29
703.466	-117.08
703.662	155.3
703.857	358.05
704.053	-53.59
704.248	1.71
704.443	458.4
704.639	341.67
704.834	7.85
705.03	-84.31
705.225	358.05
705.42	505.51
705.616	28.33
705.811	-100.69
706.006	163.5
706.202	100.01
706.397	132.78
706.592	-33.11
706.787	265.89
706.983	202.41
707.178	257.7
707.373	100.01
707.568	382.63
707.763	448.16
707.959	-119.12
708.154	-18.77
708.349	325.29
708.544	351.91
708.739	218.79
708.934	-119.12
709.129	296.61
709.324	419.49
709.519	-10.58
709.714	-14.68
709.909	489.12
710.104	376.48
710.299	-18.77
710.494	89.77
710.689	384.68
710.884	274.09
711.079	124.58
711.274	194.22
711.469	300.71
711.664	339.62
711.859	-22.87
712.054	30.38
712.249	349.86
712.443	480.93
712.638	-104.79
712.833	-88.4
713.028	190.12
713.223	145.06
713.417	304.81
713.612	22.19
713.807	501.41
714.002	757.41
714.196	198.31
714.391	63.15
714.586	478.88
714.78	276.13
714.975	-6.49
715.17	46.76
715.364	153.26
715.559	392.87
715.754	-250.19
715.948	-51.54
716.143	603.81
716.337	259.75
716.532	284.33
716.726	-12.63
716.921	409.25
717.115	648.86
717.31	-164.18
717.504	503.46
717.699	145.06
717.893	366.25
718.088	-106.84
718.282	-108.88
718.476	327.33
718.671	296.61
718.865	-26.96
719.059	-26.96
719.254	304.81
719.448	548.51
719.642	1427.09
719.837	-155.99
720.031	413.35
720.225	601.76
720.419	54.95
720.614	-76.12
720.808	464.55
721.002	212.65
721.196	-74.07
721.39	54.95
721.585	585.38
721.779	407.2
721.973	54.95
722.167	-133.46
722.361	380.58
722.555	540.32
722.749	38.57
722.943	63.15
723.137	-6.49
723.331	280.23
723.525	-0.34
723.719	52.91
723.913	396.96
724.107	612
724.301	-100.69
724.495	79.53
724.689	724.64
724.883	579.23
725.077	-35.16
725.271	1.71
725.465	579.23
725.659	276.13
725.853	186.02
726.046	-188.75
726.24	175.78
726.434	509.6
726.628	-2.39
726.822	97.96
727.015	528.03
727.209	616.1
727.403	44.71
727.596	-112.98
727.79	493.22
727.984	360.1
728.177	46.76
728.371	63.15
728.565	517.79
728.758	13.99
728.952	63.15
729.146	-2.39
729.339	562.85
729.533	208.55
729.726	138.92
729.92	-26.96
730.113	583.33
730.307	280.23
730.5	26.28
730.694	-59.73
730.887	224.94
731.081	376.48
731.274	-168.27
731.468	83.63
731.661	251.56
731.854	200.36
732.048	67.24
732.241	-51.54
732.435	73.39
732.628	394.92
732.821	151.21
733.014	-88.4
733.208	52.91
733.401	480.93
733.594	48.81
733.788	59.05
733.981	505.51
734.174	351.91
734.367	102.06
734.56	95.91
734.754	450.21
734.947	302.76
735.14	-10.58
735.333	54.95
735.526	497.32
735.719	67.24
735.912	-88.4
736.105	-2.39
736.298	247.46
736.491	95.91
736.684	-72.02
736.877	-43.35
737.07	378.53
737.263	597.67
737.456	42.67
737.649	-147.8
737.842	108.2
738.035	306.85
738.228	104.11
738.421	138.92
738.614	521.89
738.807	495.27
739	-106.84
739.192	-86.36
739.385	362.15
739.578	554.66
739.771	286.37
739.964	-18.77
740.156	384.68
740.349	237.22
740.542	183.98
740.735	-84.31
740.927	54.95
741.12	48.81
741.313	-35.16
741.505	173.74
741.698	372.39
741.891	360.1
742.083	186.02
742.276	71.34
742.468	276.13
742.661	140.97
742.854	130.73
743.046	-47.44
743.239	677.54
743.431	251.56
743.624	100.01
743.816	-86.36
744.009	173.74
744.201	448.16
744.393	229.03
744.586	-47.44
744.778	652.96
744.971	347.81
745.163	149.16
745.355	153.26
745.548	251.56
745.74	267.94
745.932	167.59
746.125	5.8
746.317	790.17
746.509	376.48
746.702	61.1
746.894	186.02
747.086	347.81
747.278	628.39
747.471	183.98
747.663	65.19
747.855	325.29
748.047	726.69
748.239	57
748.431	73.39
748.623	710.3
748.815	663.2
749.008	-55.64
749.2	-0.34
749.392	515.75
749.584	411.3
749.776	112.3
749.968	284.33
750.16	818.85
750.352	345.77
750.544	200.36
750.736	-0.34
750.928	458.4
751.12	263.85
751.311	138.92
751.503	161.45
751.695	442.02
751.887	272.04
752.079	-164.18
752.271	104.11
752.463	1070.75
752.654	552.61
752.846	120.49
753.038	143.02
753.23	263.85
753.421	493.22
753.613	177.83
753.805	392.87
753.997	612
754.188	566.95
754.38	54.95
754.572	118.44
754.763	310.95
754.955	442.02
755.146	169.64
755.338	157.35
755.53	480.93
755.721	226.98
755.913	1.71
756.104	-12.63
756.296	241.32
756.487	534.18
756.679	83.63
756.87	65.19
757.062	233.13
757.253	376.48
757.445	-4.44
757.636	267.94
757.827	431.78
758.019	939.68
758.21	28.33
758.401	97.96
758.593	902.81
758.784	738.98
758.975	5.8
759.167	-2.39
759.358	341.67
759.549	511.65
759.74	116.39
759.932	112.3
760.123	612
760.314	214.7
760.505	298.66
760.696	63.15
760.888	734.88
761.079	308.9
761.27	-29.01
761.461	-137.56
761.652	698.02
761.843	317.09
762.034	108.2
762.225	392.87
762.416	341.67
762.607	388.77
762.798	169.64
762.989	79.53
763.18	1111.71
763.371	278.18
763.562	140.97
763.753	188.07
763.944	609.95
764.135	566.95
764.326	241.32
764.517	108.2
764.708	442.02
764.899	448.16
765.089	38.57
765.28	-59.73
765.471	458.4
765.662	482.98
765.853	181.93
766.043	-63.83
766.234	599.71
766.425	689.82
766.615	75.43
766.806	13.99
766.997	657.06
767.187	374.44
767.378	24.23
767.569	-92.5
767.759	421.54
767.95	431.78
768.141	272.04
768.331	63.15
768.522	372.39
768.712	476.84
768.903	63.15
769.093	69.29
769.284	738.98
769.474	444.07
769.665	-31.06
769.855	-67.92
770.046	431.78
770.236	288.42
770.426	329.38
770.617	95.91
770.807	437.92
770.998	343.72
771.188	372.39
771.378	38.57
771.569	614.05
771.759	534.18
771.949	1.71
772.139	-37.2
772.33	396.96
772.52	800.41
772.71	57
772.9	-100.69
773.09	726.69
773.281	669.34
773.471	102.06
773.661	124.58
773.851	595.62
774.041	267.94
774.231	77.48
774.421	140.97
774.611	773.79
774.802	392.87
774.992	179.88
775.182	87.72
775.372	409.25
775.562	587.43
775.752	143.02
775.942	138.92
776.131	798.37
776.321	485.03
776.511	104.11
776.701	-16.73
776.891	687.78
777.081	157.35
777.271	239.27
777.461	40.62
777.651	556.71
777.84	614.05
778.03	237.22
778.22	214.7
778.41	614.05
778.599	87.72
778.789	214.7
778.979	116.39
779.169	521.89
779.358	405.16
779.548	429.73
779.738	-33.11
779.927	421.54
780.117	128.68
780.307	204.46
780.496	-86.36
780.686	454.31
780.875	816.8
781.065	71.34
781.254	91.82
781.444	482.98
781.633	489.12
781.823	106.15
782.012	81.58
782.202	304.81
782.391	360.1
782.581	59.05
782.77	304.81
782.96	638.62
783.149	411.3
783.338	157.35
783.528	-131.41
783.717	589.47
783.906	673.44
784.096	300.71
784.285	67.24
784.474	288.42
784.663	128.68
784.853	128.68
785.042	196.26
785.231	274.09
785.42	693.92
785.61	206.5
785.799	32.43
785.988	319.14
786.177	362.15
786.366	200.36
786.555	317.09
786.744	624.29
786.933	331.43
787.122	32.43
787.312	42.67
787.501	237.22
787.69	583.33
787.879	122.54
788.068	65.19
788.257	40.62
788.445	313
788.634	100.01
788.823	100.01
789.012	1017.5
789.201	722.59
789.39	233.13
789.579	40.62
789.768	394.92
789.957	450.21
790.145	214.7
790.334	-125.27
790.523	337.57
790.712	306.85
790.9	196.26
791.089	-26.96
791.278	718.5
791.467	409.25
791.655	351.91
791.844	480.93
792.033	317.09
792.221	368.29
792.41	173.74
792.599	-43.35
792.787	671.39
792.976	548.51
793.164	38.57
793.353	108.2
793.541	575.14
793.73	577.19
793.918	186.02
794.107	95.91
794.295	431.78
794.484	407.2
794.672	206.5
794.861	140.97
795.049	562.85
795.238	814.75
795.426	67.24
795.614	218.79
795.803	534.18
795.991	669.34
796.179	206.5
796.368	132.78
796.556	714.4
796.744	169.64
796.932	79.53
797.121	-12.63
797.309	358.05
797.497	661.15
797.685	126.63
797.874	63.15
798.062	343.72
798.25	779.93
798.438	75.43
798.626	183.98
798.814	460.45
799.002	964.25
799.19	315.05
799.378	261.8
799.566	589.47
799.755	777.89
799.943	325.29
800.131	190.12
800.318	544.42
800.506	597.67
800.694	89.77
800.882	450.21
801.07	673.44
801.258	360.1
801.446	214.7
801.634	132.78
801.822	493.22
802.01	349.86
802.197	77.48
802.385	267.94
802.573	577.19
802.761	233.13
802.949	237.22
803.136	-63.83
803.324	700.06
803.512	417.44
803.699	263.85
803.887	1.71
804.075	781.98
804.262	306.85
804.45	79.53
804.638	243.37
804.825	284.33
805.013	269.99
805.201	114.34
805.388	44.71
805.576	431.78
805.763	786.08
805.951	153.26
806.138	341.67
806.326	888.48
806.513	478.88
806.701	267.94
806.888	159.4
807.075	532.13
807.263	790.17
807.45	-4.44
807.638	327.33
807.825	865.95
808.012	638.62
808.2	292.52
808.387	435.88
808.574	505.51
808.761	898.72
808.949	65.19
809.136	222.89
809.323	419.49
809.51	343.72
809.698	507.55
809.885	407.2
810.072	546.47
810.259	751.26
810.446	280.23
810.633	204.46
810.82	718.5
811.008	886.43
811.195	284.33
811.382	267.94
811.569	505.51
811.756	274.09
811.943	267.94
812.13	120.49
812.317	239.27
812.504	290.47
812.691	272.04
812.878	329.38
813.064	833.18
813.251	429.73
813.438	83.63
813.625	439.97
813.812	466.6
813.999	485.03
814.186	360.1
814.372	251.56
814.559	536.23
814.746	831.13
814.933	272.04
815.12	384.68
815.306	401.06
815.493	376.48
815.68	218.79
815.866	298.66
816.053	788.13
816.24	1011.36
816.426	319.14
816.613	159.4
816.799	698.02
816.986	757.41
817.173	186.02
817.359	149.16
817.546	599.71
817.732	165.54
817.919	57
818.105	345.77
818.292	345.77
818.478	550.56
818.665	439.97
818.851	220.84
819.037	1107.61
819.224	556.71
819.41	145.06
819.597	108.2
819.783	925.34
819.969	564.9
820.156	296.61
820.342	147.11
820.528	1298.07
820.714	448.16
820.901	552.61
821.087	206.5
821.273	919.2
821.459	331.43
821.646	175.78
821.832	200.36
822.018	568.99
822.204	587.43
822.39	300.71
822.576	140.97
822.762	616.1
822.948	558.75
823.134	433.83
823.32	243.37
823.507	235.18
823.693	573.09
823.879	704.16
824.065	220.84
824.25	552.61
824.436	356.01
824.622	220.84
824.808	136.87
824.994	362.15
825.18	399.01
825.366	128.68
825.552	194.22
825.738	493.22
825.923	720.54
826.109	560.8
826.295	177.83
826.481	448.16
826.667	489.12
826.852	329.38
827.038	147.11
827.224	849.57
827.409	954.01
827.595	145.06
827.781	407.2
827.966	802.46
828.152	775.84
828.338	308.9
828.523	163.5
828.709	368.29
828.894	917.15
829.08	306.85
829.266	288.42
829.451	423.59
829.637	677.54
829.822	456.36
830.008	261.8
830.193	777.89
830.378	878.24
830.564	374.44
830.749	136.87
830.935	702.11
831.12	695.97
831.305	186.02
831.491	460.45
831.676	284.33
831.861	681.63
832.047	239.27
832.232	183.98
832.417	837.28
832.602	564.9
832.788	220.84
832.973	194.22
833.158	454.31
833.343	585.38
833.528	423.59
833.714	386.72
833.899	698.02
834.084	1011.36
834.269	521.89
834.454	368.29
834.639	833.18
834.824	501.41
835.009	413.35
835.194	390.82
835.379	724.64
835.564	874.14
835.749	458.4
835.934	257.7
836.119	687.78
836.304	599.71
836.489	259.75
836.674	442.02
836.859	317.09
837.044	906.91
837.228	386.72
837.413	138.92
837.598	626.34
837.783	845.47
837.968	366.25
838.152	140.97
838.337	188.07
838.522	915.1
838.707	738.98
838.891	495.27
839.076	644.77
839.261	790.17
839.445	335.53
839.63	403.11
839.815	1001.12
839.999	474.79
840.184	337.57
840.368	335.53
840.553	775.84
840.737	718.5
840.922	300.71
841.106	163.5
841.291	298.66
841.475	648.86
841.66	313
841.844	286.37
842.029	1291.93
842.213	296.61
842.397	323.24
842.582	171.69
842.766	915.1
842.951	759.46
843.135	319.14
843.319	231.08
843.504	603.81
843.688	771.74
843.872	85.67
844.056	233.13
844.241	743.07
844.425	536.23
844.609	448.16
844.793	32.43
844.977	878.24
845.161	710.3
845.346	165.54
845.53	364.2
845.714	583.33
845.898	1001.12
846.082	171.69
846.266	327.33
846.45	530.08
846.634	554.66
846.818	245.41
847.002	493.22
847.186	747.17
847.37	388.77
847.554	202.41
847.738	456.36
847.922	646.82
848.106	693.92
848.29	200.36
848.473	276.13
848.657	759.46
848.841	573.09
849.025	360.1
849.209	97.96
849.392	755.36
849.576	427.68
849.76	87.72
849.944	450.21
850.127	999.07
850.311	413.35
850.495	208.55
850.678	161.45
850.862	915.1
851.046	978.59
851.229	501.41
851.413	175.78
851.596	612
851.78	585.38
851.964	597.67
852.147	374.44
852.331	1302.17
852.514	859.81
852.698	370.34
852.881	167.59
853.065	829.09
853.248	548.51
853.431	439.97
853.615	464.55
853.798	1169.05
853.982	689.82
854.165	444.07
854.348	360.1
854.532	356.01
854.715	458.4
854.898	390.82
855.081	333.48
855.265	915.1
855.448	999.07
855.631	339.62
855.814	370.34
855.997	841.37
856.181	652.96
856.364	319.14
856.547	188.07
856.73	652.96
856.913	620.19
857.096	181.93
857.279	454.31
857.462	507.55
857.645	812.7
857.828	474.79
858.011	485.03
858.194	501.41
858.377	798.37
858.56	339.62
858.743	310.95
858.926	399.01
859.109	714.4
859.292	212.65
859.475	308.9
859.658	835.23
859.841	718.5
860.023	247.46
860.206	220.84
860.389	706.21
860.572	960.16
860.755	339.62
860.937	331.43
861.12	583.33
861.303	620.19
861.486	433.83
861.668	140.97
861.851	800.41
862.034	702.11
862.216	392.87
862.399	202.41
862.581	720.54
862.764	994.97
862.947	394.92
863.129	247.46
863.312	374.44
863.494	1021.6
863.677	706.21
863.859	241.32
864.042	892.57
864.224	894.62
864.406	405.16
864.589	218.79
864.771	677.54
864.954	456.36
865.136	286.37
865.318	173.74
865.501	794.27
865.683	210.6
865.865	353.96
866.048	282.28
866.23	724.64
866.412	648.86
866.594	231.08
866.777	407.2
866.959	773.79
867.141	356.01
867.323	630.43
867.505	542.37
867.687	505.51
867.869	698.02
868.052	442.02
868.234	308.9
868.416	612
868.598	892.57
868.78	458.4
868.962	237.22
869.144	857.76
869.326	732.83
869.508	353.96
869.69	286.37
869.872	478.88
870.054	962.2
870.236	208.55
870.417	278.18
870.599	550.56
870.781	1101.47
870.963	523.94
871.145	382.63
871.327	415.4
871.508	853.66
871.69	370.34
871.872	464.55
872.054	695.97
872.235	698.02
872.417	491.17
872.599	226.98
872.78	1080.99
872.962	710.3
873.144	245.41
873.325	370.34
873.507	951.96
873.689	747.17
873.87	267.94
874.052	542.37
874.233	655.01
874.415	857.76
874.596	394.92
874.778	265.89
874.959	638.62
875.141	906.91
875.322	499.36
875.503	349.86
875.685	757.41
875.866	276.13
876.048	276.13
876.229	208.55
876.41	652.96
876.592	675.49
876.773	286.37
876.954	194.22
877.136	951.96
877.317	513.7
877.498	222.89
877.679	431.78
877.86	650.91
878.042	648.86
878.223	298.66
878.404	759.46
878.585	794.27
878.766	1060.51
878.947	609.95
879.128	648.86
879.309	839.33
879.49	855.71
879.672	351.91
879.853	415.4
880.034	466.6
880.215	581.28
880.396	489.12
880.576	360.1
880.757	517.79
880.938	1005.21
881.119	331.43
881.3	349.86
881.481	497.32
881.662	1457.81
881.843	333.48
882.023	214.7
882.204	743.07
882.385	726.69
882.566	335.53
882.747	267.94
882.927	642.72
883.108	859.81
883.289	325.29
883.469	655.01
883.65	466.6
883.831	644.77
884.011	568.99
884.192	349.86
884.373	874.14
884.553	822.94
884.734	566.95
884.914	726.69
885.095	1279.64
885.275	980.64
885.456	706.21
885.636	229.03
885.817	612
885.997	603.81
886.178	382.63
886.358	478.88
886.538	728.74
886.719	1644.18
886.899	419.49
887.08	476.84
887.26	878.24
887.44	468.64
887.621	325.29
887.801	548.51
887.981	1222.3
888.161	794.27
888.342	511.65
888.522	351.91
888.702	945.82
888.882	984.73
889.062	573.09
889.242	294.57
889.423	1050.27
889.603	829.09
889.783	485.03
889.963	366.25
890.143	902.81
890.323	1015.45
890.503	460.45
890.683	489.12
890.863	669.34
891.043	745.12
891.223	546.47
891.403	714.4
891.583	683.68
891.763	824.99
891.943	568.99
892.122	341.67
892.302	812.7
892.482	683.68
892.662	609.95
892.842	497.32
893.022	810.65
893.201	671.39
893.381	706.21
893.561	476.84
893.741	937.63
893.92	857.76
894.1	595.62
894.28	460.45
894.459	935.58
894.639	818.85
894.819	515.75
894.998	603.81
895.178	1013.4
895.357	841.37
895.537	450.21
895.716	368.29
895.896	827.04
896.075	1054.36
896.255	595.62
896.434	259.75
896.614	1021.6
896.793	1181.34
896.973	566.95
897.152	632.48
897.331	896.67
897.511	939.68
897.69	394.92
897.87	548.51
898.049	898.72
898.228	818.85
898.407	689.82
898.587	706.21
898.766	616.1
898.945	908.96
899.124	747.17
899.304	644.77
899.483	911
899.662	1218.2
899.841	495.27
900.02	505.51
900.199	1046.17
900.378	861.85
900.557	482.98
900.737	382.63
900.916	964.25
901.095	1011.36
901.274	769.69
901.453	374.44
901.632	638.62
901.811	573.09
901.989	607.91
902.168	374.44
902.347	960.16
902.526	738.98
902.705	501.41
902.884	568.99
903.063	1179.29
903.242	1105.56
903.42	409.25
903.599	648.86
903.778	978.59
903.957	1175.19
904.135	603.81
904.314	626.34
904.493	913.05
904.672	1011.36
904.85	603.81
905.029	513.7
905.207	833.18
905.386	1441.43
905.565	419.49
905.743	564.9
905.922	734.88
906.1	1072.79
906.279	394.92
906.457	392.87
906.636	681.63
906.814	671.39
906.993	571.04
907.171	399.01
907.35	966.3
907.528	960.16
907.707	827.04
907.885	491.17
908.063	1212.06
908.242	538.27
908.42	591.52
908.598	429.73
908.777	919.2
908.955	702.11
909.133	716.45
909.311	356.01
909.49	675.49
909.668	816.8
909.846	515.75
910.024	366.25
910.202	898.72
910.38	900.76
910.559	394.92
910.737	407.2
910.915	777.89
911.093	820.89
911.271	612
911.449	693.92
911.627	992.92
911.805	1349.27
911.983	550.56
912.161	501.41
912.339	849.57
912.517	1136.28
912.695	644.77
912.872	501.41
913.05	620.19
913.228	915.1
913.406	622.24
913.584	515.75
913.762	1025.69
913.939	632.48
914.117	616.1
914.295	439.97
914.473	1040.03
914.65	863.9
914.828	552.61
915.006	542.37
915.184	558.75
915.361	843.42
915.539	624.29
915.716	714.4
915.894	931.48
916.072	1054.36
916.249	671.39
916.427	636.58
916.604	507.55
916.782	868
916.959	429.73
917.137	390.82
917.314	855.71
917.492	915.1
917.669	585.38
917.847	616.1
918.024	970.4
918.201	655.01
918.379	693.92
918.556	663.2
918.733	978.59
918.911	728.74
919.088	736.93
919.265	566.95
919.442	882.33
919.62	661.15
919.797	534.18
919.974	468.64
920.151	911
920.328	628.39
920.506	503.46
920.683	753.31
920.86	564.9
921.037	677.54
921.214	632.48
921.391	528.03
921.568	960.16
921.745	640.67
921.922	558.75
922.099	497.32
922.276	931.48
922.453	820.89
922.63	474.79
922.807	837.28
922.984	775.84
923.161	599.71
923.338	458.4
923.514	390.82
923.691	743.07
923.868	890.53
924.045	468.64
924.222	425.64
924.399	857.76
924.575	982.68
924.752	538.27
924.929	554.66
925.105	843.42
925.282	456.36
925.459	568.99
925.635	501.41
925.812	677.54
925.989	648.86
926.165	636.58
926.342	384.68
926.518	509.6
926.695	702.11
926.871	407.2
927.048	439.97
927.224	833.18
927.401	628.39
927.577	650.91
927.754	319.14
927.93	1040.03
928.107	870.05
928.283	394.92
928.459	591.52
928.636	884.38
928.812	587.43
928.988	423.59
929.165	255.65
929.341	566.95
929.517	747.17
929.693	820.89
929.87	231.08
930.046	775.84
930.222	634.53
930.398	403.11
930.574	454.31
930.751	679.58
930.927	556.71
931.103	499.36
931.279	485.03
931.455	456.36
931.631	716.45
931.807	315.05
931.983	337.57
932.159	353.96
932.335	747.17
932.511	474.79
932.687	403.11
932.863	781.98
933.039	734.88
933.215	317.09
933.391	272.04
933.566	622.24
933.742	712.35
933.918	489.12
934.094	276.13
934.27	734.88
934.445	632.48
934.621	554.66
934.797	341.67
934.973	824.99
935.148	763.55
935.324	274.09
935.5	130.73
935.675	857.76
935.851	665.25
936.027	386.72
936.202	304.81
936.378	673.44
936.553	655.01
936.729	755.36
936.904	282.28
937.08	274.09
937.255	345.77
937.431	226.98
937.606	145.06
937.782	470.69
937.957	587.43
938.133	370.34
938.308	224.94
938.483	536.23
938.659	253.61
938.834	308.9
939.009	179.88
939.185	351.91
939.36	229.03
939.535	5.8
939.71	306.85
939.886	685.73
940.061	605.86
940.236	421.54
940.411	192.17
940.586	642.72
940.761	607.91
940.937	169.64
941.112	165.54
941.287	482.98
941.462	362.15
941.637	106.15
941.812	300.71
941.987	482.98
942.162	448.16
942.337	337.57
942.512	224.94
942.687	564.9
942.862	583.33
943.037	44.71
943.212	-29.01
943.386	401.06
943.561	487.08
943.736	427.68
943.911	505.51
944.086	589.47
944.26	425.64
944.435	177.83
944.61	374.44
944.785	671.39
944.959	759.46
945.134	222.89
945.309	87.72
945.483	235.18
945.658	771.74
945.833	-51.54
946.007	59.05
946.182	775.84
946.357	134.82
946.531	91.82
946.706	79.53
946.88	50.86
947.055	390.82
947.229	67.24
947.404	81.58
947.578	628.39
947.752	358.05
947.927	7.85
948.101	26.28
948.276	431.78
948.45	460.45
948.624	358.05
948.799	63.15
948.973	360.1
949.147	163.5
949.321	163.5
949.496	136.87
949.67	636.58
949.844	341.67
950.018	149.16
950.193	-2.39
950.367	878.24
950.541	306.85
950.715	259.75
950.889	257.7
951.063	321.19
951.237	554.66
951.411	-63.83
951.585	-55.64
951.759	427.68
951.933	306.85
952.107	143.02
952.281	321.19
952.455	773.79
952.629	595.62
952.803	87.72
952.977	40.62
953.151	593.57
953.325	491.17
953.499	259.75
953.672	38.57
953.846	108.2
954.02	247.46
954.194	112.3
954.368	181.93
954.541	507.55
954.715	229.03
954.889	286.37
955.062	73.39
955.236	313
955.41	272.04
955.583	272.04
955.757	-6.49
955.93	253.61
956.104	175.78
956.278	114.34
956.451	140.97
956.625	442.02
956.798	788.13
956.972	448.16
957.145	36.52
957.319	349.86
957.492	356.01
957.665	276.13
957.839	147.11
958.012	382.63
958.185	249.51
958.359	175.78
958.532	317.09
958.705	571.04
958.879	399.01
959.052	202.41
959.225	-63.83
959.398	288.42
959.572	456.36
959.745	24.23
959.918	157.35
960.091	265.89
960.264	464.55
960.438	104.11
960.611	97.96
960.784	587.43
960.957	235.18
961.13	480.93
961.303	65.19
961.476	300.71
961.649	583.33
961.822	-45.4
961.995	329.38
962.168	538.27
962.341	349.86
962.514	151.21
962.686	59.05
962.859	437.92
963.032	505.51
963.205	161.45
963.378	11.95
963.551	480.93
963.723	349.86
963.896	306.85
964.069	317.09
964.242	356.01
964.414	552.61
964.587	143.02
964.76	247.46
964.932	396.96
965.105	353.96
965.278	40.62
965.45	95.91
965.623	403.11
965.795	472.74
965.968	165.54
966.14	155.3
966.313	249.51
966.485	409.25
966.658	163.5
966.83	77.48
967.003	609.95
967.175	601.76
967.348	190.12
967.52	186.02
967.692	698.02
967.865	556.71
968.037	190.12
968.209	452.26
968.382	364.2
968.554	571.04
968.726	179.88
968.898	91.82
969.071	382.63
969.243	464.55
969.415	169.64
969.587	210.6
969.759	796.32
969.932	554.66
970.104	220.84
970.276	-69.97
970.448	212.65
970.62	251.56
970.792	188.07
970.964	179.88
971.136	874.14
971.308	466.6
971.48	124.58
971.652	91.82
971.824	736.93
971.996	308.9
972.168	186.02
972.339	138.92
972.511	614.05
972.683	341.67
972.855	435.88
973.027	120.49
973.199	300.71
973.37	546.47
973.542	315.05
973.714	339.62
973.886	356.01
974.057	657.06
974.229	57
974.401	116.39
974.572	153.26
974.744	16.04
974.915	106.15
975.087	91.82
975.259	704.16
975.43	198.31
975.602	79.53
975.773	75.43
975.945	143.02
976.116	517.79
976.288	38.57
976.459	276.13
976.63	345.77
976.802	489.12
976.973	83.63
977.145	202.41
977.316	851.61
977.487	407.2
977.659	349.86
977.83	130.73
978.001	814.75
978.172	456.36
978.344	9.9
978.515	126.63
978.686	177.83
978.857	646.82
979.028	243.37
979.2	42.67
979.371	591.52
979.542	431.78
979.713	210.6
979.884	-242
980.055	204.46
980.226	300.71
980.397	128.68
980.568	-45.4
980.739	638.62
980.91	313
981.081	382.63
981.252	59.05
981.423	562.85
981.594	528.03
981.765	7.85
981.936	251.56
982.106	339.62
982.277	673.44
982.448	57
982.619	276.13
982.79	220.84
982.96	546.47
983.131	208.55
983.302	-4.44
983.472	302.76
983.643	356.01
983.814	151.21
983.984	91.82
984.155	278.18
984.326	466.6
984.496	196.26
984.667	112.3
984.837	220.84
985.008	710.3
985.178	267.94
985.349	183.98
985.519	353.96
985.69	190.12
985.86	165.54
986.031	-14.68
986.201	439.97
986.371	448.16
986.542	-14.68
986.712	-96.6
986.882	552.61
987.053	435.88
987.223	-14.68
987.393	259.75
987.563	208.55
987.734	542.37
987.904	407.2
988.074	28.33
988.244	429.73
988.414	235.18
988.585	38.57
988.755	106.15
988.925	368.29
989.095	761.5
989.265	42.67
989.435	38.57
989.605	460.45
989.775	349.86
989.945	345.77
990.115	-8.53
990.285	351.91
990.455	366.25
990.625	134.82
990.795	-47.44
990.965	779.93
991.134	173.74
991.304	34.47
991.474	65.19
991.644	417.44
991.814	718.5
991.984	-69.97
992.153	91.82
992.323	302.76
992.493	296.61
992.662	-110.93
992.832	243.37
993.002	341.67
993.171	448.16
993.341	-92.5
993.511	210.6
993.68	132.78
993.85	485.03
994.019	-24.92
994.189	-22.87
994.358	339.62
994.528	198.31
994.697	-211.28
994.867	-31.06
995.036	489.12
995.206	229.03
995.375	-135.51
995.544	220.84
995.714	466.6
995.883	214.7
996.052	179.88
996.222	-170.32
996.391	718.5
996.56	435.88
996.73	-61.78
996.899	-82.26
997.068	661.15
997.237	202.41
997.406	-67.92
997.576	-98.64
997.745	448.16
997.914	378.53
998.083	-115.03
998.252	30.38
998.421	259.75
998.59	149.16
998.759	-10.58
998.928	-203.09
999.097	636.58
999.266	382.63
999.435	97.96
999.604	-192.85
999.773	769.69
999.942	280.23
1000.111	-201.04
1000.28	-287.06
1000.448	34.47
1000.617	42.67
1000.786	69.29
1000.955	-141.65
1001.124	290.47
1001.292	878.24
1001.461	-18.77
1001.63	-119.12
1001.798	603.81
1001.967	616.1
1002.136	-231.76
1002.304	-108.88
1002.473	327.33
1002.642	329.38
1002.81	28.33
1002.979	-47.44
1003.147	464.55
1003.316	835.23
1003.484	-129.36
1003.653	-184.66
1003.821	566.95
1003.99	208.55
1004.158	59.05
1004.327	67.24
1004.495	474.79
1004.663	114.34
1004.832	18.09
1005	-196.95
1005.168	435.88
1005.337	351.91
1005.505	-272.72
1005.673	122.54
1005.842	415.4
1006.01	419.49
1006.178	-198.99
1006.346	-67.92
1006.514	231.08
1006.683	507.55
1006.851	-121.17
1007.019	-239.95
1007.187	93.87
1007.355	-158.03
1007.523	-264.53
1007.691	-207.19
1007.859	-0.34
1008.027	489.12
1008.195	-74.07
1008.363	-182.61
1008.531	439.97
1008.699	198.31
1008.867	-190.8
1009.035	-74.07
1009.203	507.55
1009.37	229.03
1009.538	-41.3
1009.706	284.33
1009.874	235.18
1010.042	183.98
1010.209	-209.23
1010.377	-203.09
1010.545	464.55
1010.713	220.84
1010.88	-100.69
1011.048	38.57
1011.216	130.73
1011.383	511.65
1011.551	-119.12
1011.718	-219.47
1011.886	429.73
1012.054	231.08
1012.221	-78.16
1012.389	-145.75
1012.556	280.23
1012.724	644.77
1012.891	-10.58
1013.058	-282.96
1013.226	425.64
1013.393	425.64
1013.561	-244.05
1013.728	-268.63
1013.895	423.59
1014.063	368.29
1014.23	-166.23
1014.397	-194.9
1014.565	448.16
1014.732	136.87
1014.899	-221.52
1015.066	-231.76
1015.233	276.13
1015.401	317.09
1015.568	-33.11
1015.735	-2.39
1015.902	294.57
1016.069	368.29
1016.236	-137.56
1016.403	-186.71
1016.57	48.81
1016.737	446.12
1016.904	-121.17
1017.071	-192.85
1017.238	34.47
1017.405	446.12
1017.572	-45.4
1017.739	112.3
1017.906	380.58
1018.073	374.44
1018.24	-160.08
1018.407	-57.68
1018.573	513.7
1018.74	169.64
1018.907	-49.49
1019.074	-278.87
1019.241	546.47
1019.407	214.7
1019.574	-246.1
1019.741	-338.26
1019.907	300.71
1020.074	251.56
1020.241	-375.12
1020.407	-221.52
1020.574	288.42
1020.74	337.57
1020.907	-110.93
1021.073	-201.04
1021.24	761.5
1021.406	585.38
1021.573	-246.1
1021.739	-135.51
1021.906	489.12
1022.072	190.12
1022.239	-168.27
1022.405	-117.08
1022.571	239.27
1022.738	26.28
1022.904	-92.5
1023.07	-67.92
1023.237	226.98
1023.403	493.22
1023.569	-188.75
1023.735	-78.16
1023.902	300.71
1024.068	274.09
1024.234	-325.97
1024.4	-158.03
1024.566	265.89
1024.732	515.75
1024.898	-98.64
1025.065	-293.2
1025.231	300.71
1025.397	126.63
1025.563	-129.36
1025.729	-110.93
1025.895	-125.27
1026.061	-55.64
1026.227	-317.78
1026.392	-162.13
1026.558	466.6
1026.724	349.86
1026.89	-211.28
1027.056	-143.7
1027.222	282.28
1027.388	147.11
1027.553	-198.99
1027.719	-137.56
1027.885	663.2
1028.051	390.82
1028.216	-424.27
1028.382	-147.8
1028.548	403.11
1028.713	100.01
1028.879	-221.52
1029.045	-31.06
1029.21	650.91
1029.376	378.53
1029.541	-100.69
1029.707	-147.8
1029.873	392.87
1030.038	380.58
1030.204	-178.51
1030.369	-106.84
1030.534	472.74
1030.7	153.26
1030.865	-112.98
1031.031	-264.53
1031.196	288.42
1031.361	247.46
1031.527	-219.47
1031.692	-223.57
1031.857	-188.75
1032.023	298.66
1032.188	-229.71
1032.353	-117.08
1032.518	595.62
1032.684	206.5
1032.849	-301.39
1033.014	-57.68
1033.179	349.86
1033.344	290.47
1033.509	-55.64
1033.674	-26.96
1033.839	358.05
1034.004	313
1034.17	-194.9
1034.335	-209.23
1034.5	108.2
1034.664	54.95
1034.829	-155.99
1034.994	-190.8
1035.159	323.24
1035.324	269.99
1035.489	-203.09
1035.654	-221.52
1035.819	583.33
1035.984	202.41
1036.148	-98.64
1036.313	-123.22
1036.478	366.25
1036.643	218.79
1036.807	-260.43
1036.972	-215.38
1037.137	530.08
1037.301	216.74
1037.466	-358.74
1037.631	-57.68
1037.795	542.37
1037.96	257.7
1038.124	11.95
1038.289	-289.1
1038.454	378.53
1038.618	321.19
1038.783	-121.17
1038.947	-198.99
1039.111	272.04
1039.276	104.11
1039.44	-196.95
1039.605	255.65
1039.769	75.43
1039.933	214.7
1040.098	-39.25
1040.262	40.62
1040.426	433.83
1040.591	370.34
1040.755	-278.87
1040.919	-205.14
1041.083	333.48
1041.248	97.96
1041.412	-274.77
1041.576	-299.34
1041.74	50.86
1041.904	456.36
1042.068	-217.43
1042.232	-115.03
1042.397	446.12
1042.561	249.51
1042.725	-313.68
1042.889	-18.77
1043.053	349.86
1043.217	353.96
1043.381	-47.44
1043.544	-205.14
1043.708	525.99
1043.872	63.15
1044.036	-373.07
1044.2	-264.53
1044.364	399.01
1044.528	544.42
1044.691	4648.55
1044.855	-213.33
1045.019	419.49
1045.183	382.63
1045.346	-127.32
1045.51	-276.82
1045.674	243.37
1045.837	300.71
1046.001	-133.46
1046.165	-176.47
1046.328	743.07
1046.492	249.51
1046.655	-26.96
1046.819	-84.31
1046.983	126.63
1047.146	302.76
1047.31	-162.13
1047.473	-285.01
1047.636	245.41
1047.8	20.14
1047.963	-51.54
1048.127	-158.03
1048.29	26.28
