Data from Ink_Intensity_USB4F045381__155__00155.txt Node

Date: Mon Jul 17 11:29:29 EDT 2023
User: mmckonesweet
Spectrometer: USB4F04538
Trigger mode: 4
Integration Time (sec): 9.000000E-1
Scans to average: 1
Electric dark correction enabled: true
Nonlinearity correction enabled: false
Boxcar width: 0
XAxis mode: Wavelengths
Number of Pixels in Spectrum: 3648
>>>>>Begin Spectral Data<<<<<
345.52	-1013.74
345.736	-1013.74
345.952	-1013.74
346.168	-1058.8
346.384	-991.22
346.6	-186.37
346.816	-210.94
347.032	-247.8
347.248	333.82
347.464	-178.17
347.68	-104.45
347.896	83.97
348.112	421.88
348.328	-47.1
348.544	-126.97
348.76	12.29
348.975	249.85
349.191	-268.28
349.407	-161.79
349.623	90.11
349.839	-96.25
350.055	-124.93
350.27	67.58
350.486	155.65
350.702	319.48
350.918	200.7
351.133	-161.79
351.349	180.22
351.565	342.01
351.781	-192.51
351.996	-8.19
352.212	317.44
352.428	-112.64
352.644	-260.09
352.859	-260.09
353.075	354.3
353.291	129.02
353.506	-143.36
353.722	-243.71
353.938	-59.39
354.153	462.84
354.369	198.65
354.584	-208.89
354.8	221.18
355.016	-311.29
355.231	-188.41
355.447	-71.68
355.662	106.49
355.878	796.66
356.093	-331.77
356.309	-8.19
356.524	-194.56
356.74	284.67
356.955	-194.56
357.171	-67.58
357.386	122.88
357.602	-208.89
357.817	-6.14
358.033	-135.17
358.248	360.44
358.464	135.17
358.679	-231.42
358.895	-294.91
359.11	-79.87
359.325	251.9
359.541	-18.43
359.756	-14.34
359.972	-270.33
360.187	167.93
360.402	-174.08
360.618	-184.32
360.833	946.16
361.048	120.83
361.264	-270.33
361.479	-24.58
361.694	10.24
361.909	219.13
362.125	-200.7
362.34	-122.88
362.555	217.08
362.77	77.82
362.986	-301.05
363.201	-178.17
363.416	239.61
363.631	47.1
363.847	-194.56
364.062	-161.79
364.277	253.95
364.492	116.73
364.707	-102.4
364.922	-348.15
365.138	301.05
365.353	339.96
365.568	-272.38
365.783	-112.64
365.998	67.58
366.213	528.38
366.428	-286.72
366.643	110.59
366.858	303.1
367.073	251.9
367.288	-104.45
367.503	-188.41
367.718	94.21
367.933	301.05
368.148	-325.63
368.363	-81.92
368.578	92.16
368.793	460.79
369.008	-116.73
369.223	-186.37
369.438	266.24
369.653	454.65
369.868	-288.76
370.083	-223.23
370.298	96.25
370.513	405.5
370.728	79.87
370.943	-137.21
371.157	-174.08
371.372	538.62
371.587	-258.04
371.802	-243.71
372.017	57.34
372.232	462.84
372.446	-116.73
372.661	-268.28
372.876	299
373.091	190.46
373.306	-71.68
373.52	-239.61
373.735	-151.55
373.95	460.79
374.165	-172.03
374.379	-202.75
374.594	-147.45
374.809	110.59
375.023	55.3
375.238	-157.69
375.453	225.28
375.667	-231.42
375.882	-114.69
376.097	-225.28
376.311	51.2
376.526	63.49
376.741	-194.56
376.955	81.92
377.17	555
377.384	649.21
377.599	-71.68
377.813	-262.14
378.028	587.77
378.242	159.74
378.457	-71.68
378.672	-370.68
378.886	94.21
379.101	-96.25
379.315	-346.11
379.53	-169.98
379.744	217.08
379.958	161.79
380.173	-135.17
380.387	-182.27
380.602	190.46
380.816	-161.79
381.031	-200.7
381.245	-176.13
381.459	200.7
381.674	927.73
381.888	-212.99
382.103	122.88
382.317	-126.97
382.531	477.18
382.746	-16.38
382.96	-147.45
383.174	-110.59
383.388	413.69
383.603	120.83
383.817	-256
384.031	122.88
384.246	446.46
384.46	18.43
384.674	270.33
384.888	47.1
385.103	110.59
385.317	-296.96
385.531	-20.48
385.745	307.2
385.959	380.92
386.174	-161.79
386.388	-215.04
386.602	18.43
386.816	-112.64
387.03	-83.97
387.244	-116.73
387.458	129.02
387.672	342.01
387.887	-309.24
388.101	-325.63
388.315	362.49
388.529	167.93
388.743	-137.21
388.957	-200.7
389.171	358.39
389.385	-133.12
389.599	-94.21
389.813	86.01
390.027	169.98
390.241	681.97
390.455	-104.45
390.669	-79.87
390.883	-47.1
391.097	305.15
391.311	-67.58
391.525	-159.74
391.738	210.94
391.952	186.37
392.166	-63.49
392.38	-206.84
392.594	317.44
392.808	348.15
393.022	-28.67
393.236	-104.45
393.449	184.32
393.663	122.88
393.877	-235.52
394.091	-77.82
394.305	14.34
394.518	-51.2
394.732	-219.13
394.946	-112.64
395.16	358.39
395.373	28.67
395.587	-186.37
395.801	-159.74
396.015	440.31
396.228	251.9
396.442	-231.42
396.656	-354.3
396.869	350.2
397.083	458.74
397.297	-88.06
397.51	-79.87
397.724	409.59
397.938	116.73
398.151	-268.28
398.365	-286.72
398.578	253.95
398.792	239.61
399.005	-2.05
399.219	-165.89
399.433	149.5
399.646	133.12
399.86	96.25
400.073	43.01
400.287	249.85
400.5	43.01
400.714	0
400.927	-83.97
401.141	174.08
401.354	1167.34
401.567	208.89
401.781	-258.04
401.994	235.52
402.208	634.87
402.421	-210.94
402.635	-114.69
402.848	61.44
403.061	329.72
403.275	-30.72
403.488	-208.89
403.701	493.56
403.915	288.76
404.128	-36.86
404.341	-176.13
404.555	108.54
404.768	69.63
404.981	8.19
405.195	-178.17
405.408	448.51
405.621	260.09
405.834	69.63
406.048	-258.04
406.261	432.12
406.474	407.55
406.687	-176.13
406.9	-92.16
407.114	129.02
407.327	212.99
407.54	-385.02
407.753	-249.85
407.966	-38.91
408.179	299
408.392	-266.24
408.605	-294.91
408.819	219.13
409.032	186.37
409.245	-223.23
409.458	20.48
409.671	133.12
409.884	268.28
410.097	-278.52
410.31	20.48
410.523	249.85
410.736	45.06
410.949	-75.77
411.162	-122.88
411.375	483.32
411.588	264.19
411.801	59.39
412.014	-196.61
412.227	38.91
412.44	14.34
412.653	-225.28
412.865	-38.91
413.078	215.04
413.291	167.93
413.504	-104.45
413.717	-176.13
413.93	288.76
414.143	-104.45
414.356	-104.45
414.568	-299
414.781	268.28
414.994	159.74
415.207	-75.77
415.42	-169.98
415.632	233.47
415.845	452.6
416.058	-339.96
416.271	-231.42
416.483	96.25
416.696	460.79
416.909	-129.02
417.121	-149.5
417.334	260.09
417.547	546.81
417.759	-210.94
417.972	-268.28
418.185	-108.54
418.397	204.8
418.61	-184.32
418.823	-174.08
419.035	475.13
419.248	-2.05
419.46	-129.02
419.673	-86.01
419.885	227.32
420.098	-36.86
420.311	-139.26
420.523	-411.64
420.736	235.52
420.948	79.87
421.161	-122.88
421.373	-385.02
421.586	96.25
421.798	-79.87
422.01	-321.53
422.223	-10.24
422.435	-63.49
422.648	167.93
422.86	-206.84
423.073	-114.69
423.285	311.29
423.497	-247.8
423.71	-247.8
423.922	-227.32
424.134	79.87
424.347	387.07
424.559	10.24
424.771	79.87
424.984	-14.34
425.196	231.42
425.408	-391.16
425.621	-274.43
425.833	239.61
426.045	296.96
426.257	-225.28
426.47	-174.08
426.682	129.02
426.894	251.9
427.106	-161.79
427.318	-106.49
427.531	-96.25
427.743	256
427.955	-186.37
428.167	217.08
428.379	165.89
428.591	22.53
428.804	-36.86
429.016	-260.09
429.228	-36.86
429.44	157.69
429.652	-10.24
429.864	-247.8
430.076	4.1
430.288	43.01
430.5	-114.69
430.712	-122.88
430.924	337.91
431.136	165.89
431.348	-409.59
431.56	-198.65
431.772	38.91
431.984	-92.16
432.196	-176.13
432.408	-200.7
432.62	61.44
432.832	118.78
433.044	-16.38
433.256	-100.35
433.468	176.13
433.679	-208.89
433.891	-329.72
434.103	12.29
434.315	335.87
434.527	268.28
434.739	-83.97
434.95	-176.13
435.162	219.13
435.374	-51.2
435.586	-149.5
435.798	-231.42
436.009	-165.89
436.221	55.3
436.433	-112.64
436.645	-61.44
436.856	-86.01
437.068	331.77
437.28	-223.23
437.491	106.49
437.703	143.36
437.915	139.26
438.126	-112.64
438.338	26.62
438.55	-12.29
438.761	145.41
438.973	-104.45
439.184	-149.5
439.396	-8.19
439.608	221.18
439.819	-290.81
440.031	-143.36
440.242	215.04
440.454	231.42
440.665	-122.88
440.877	-174.08
441.088	159.74
441.3	8.19
441.511	-313.34
441.723	-247.8
441.934	159.74
442.146	-22.53
442.357	-6.14
442.569	92.16
442.78	135.17
442.991	475.13
443.203	73.73
443.414	-284.67
443.626	382.97
443.837	-63.49
444.048	-327.68
444.26	-417.79
444.471	126.97
444.682	243.71
444.894	-278.52
445.105	-321.53
445.316	219.13
445.528	208.89
445.739	-104.45
445.95	-114.69
446.161	112.64
446.373	331.77
446.584	-161.79
446.795	-184.32
447.006	161.79
447.217	444.41
447.429	-305.15
447.64	-268.28
447.851	268.28
448.062	124.93
448.273	-247.8
448.484	-215.04
448.695	229.37
448.907	59.39
449.118	-118.78
449.329	88.06
449.54	-6.14
449.751	-135.17
449.962	-212.99
450.173	-274.43
450.384	272.38
450.595	350.2
450.806	-266.24
451.017	-137.21
451.228	391.16
451.439	210.94
451.65	-174.08
451.861	-415.74
452.072	-137.21
452.283	30.72
452.494	0
452.705	-264.19
452.915	501.75
453.126	192.51
453.337	-159.74
453.548	-188.41
453.759	376.83
453.97	497.66
454.181	12.29
454.391	-135.17
454.602	59.39
454.813	190.46
455.024	-51.2
455.235	-167.93
455.445	108.54
455.656	206.84
455.867	43.01
456.078	-219.13
456.288	-34.82
456.499	147.45
456.71	-194.56
456.921	22.53
457.131	129.02
457.342	178.17
457.553	-122.88
457.763	-208.89
457.974	212.99
458.184	239.61
458.395	-317.44
458.606	-288.76
458.816	321.53
459.027	471.03
459.237	-34.82
459.448	-346.11
459.659	264.19
459.869	593.91
460.08	-380.92
460.29	-108.54
460.501	438.27
460.711	-65.54
460.922	-378.87
461.132	-235.52
461.343	643.06
461.553	-292.86
461.764	-251.9
461.974	-137.21
462.184	256
462.395	67.58
462.605	-167.93
462.816	-288.76
463.026	38.91
463.236	325.63
463.447	-202.75
463.657	-217.08
463.867	335.87
464.078	-8.19
464.288	-165.89
464.498	-176.13
464.709	92.16
464.919	-18.43
465.129	-114.69
465.339	-210.94
465.55	116.73
465.76	260.09
465.97	-212.99
466.18	-280.57
466.391	233.47
466.601	24.58
466.811	-145.41
467.021	-258.04
467.231	176.13
467.441	276.48
467.651	-167.93
467.862	-452.6
468.072	55.3
468.282	329.72
468.492	-245.76
468.702	-178.17
468.912	73.73
469.122	692.21
469.332	174.08
469.542	-241.66
469.752	229.37
469.962	106.49
470.172	-260.09
470.382	-260.09
470.592	221.18
470.802	311.29
471.012	-96.25
471.222	-266.24
471.432	235.52
471.642	186.37
471.852	-61.44
472.062	-210.94
472.272	-6.14
472.482	-186.37
472.691	-288.76
472.901	-374.78
473.111	180.22
473.321	518.14
473.531	-253.95
473.741	-110.59
473.95	137.21
474.16	196.61
474.37	-112.64
474.58	-344.06
474.79	452.6
474.999	288.76
475.209	-288.76
475.419	-161.79
475.628	-28.67
475.838	253.95
476.048	-190.46
476.258	-288.76
476.467	360.44
476.677	-86.01
476.886	-43.01
477.096	-122.88
477.306	-43.01
477.515	417.79
477.725	-165.89
477.935	-169.98
478.144	364.54
478.354	-75.77
478.563	-223.23
478.773	-243.71
478.982	206.84
479.192	282.62
479.401	-57.34
479.611	-268.28
479.82	-49.15
480.03	104.45
480.239	-235.52
480.449	-288.76
480.658	557.05
480.868	-137.21
481.077	-61.44
481.287	-151.55
481.496	206.84
481.705	376.83
481.915	43.01
482.124	71.68
482.333	47.1
482.543	387.07
482.752	-157.69
482.961	-296.96
483.171	296.96
483.38	-12.29
483.589	-155.65
483.799	-331.77
484.008	18.43
484.217	251.9
484.426	-225.28
484.636	-266.24
484.845	71.68
485.054	-194.56
485.263	118.78
485.472	-180.22
485.682	473.08
485.891	108.54
486.1	-272.38
486.309	-184.32
486.518	208.89
486.727	387.07
486.936	-342.01
487.146	-53.25
487.355	348.15
487.564	-120.83
487.773	-184.32
487.982	-131.07
488.191	-81.92
488.4	22.53
488.609	-202.75
488.818	-194.56
489.027	614.39
489.236	346.11
489.445	-92.16
489.654	-200.7
489.863	288.76
490.072	143.36
490.281	75.77
490.49	-215.04
490.698	356.35
490.907	495.61
491.116	-169.98
491.325	-405.5
491.534	471.03
491.743	112.64
491.952	-112.64
492.16	-233.47
492.369	159.74
492.578	235.52
492.787	-135.17
492.996	-290.81
493.204	-36.86
493.413	501.75
493.622	-477.18
493.831	-382.97
494.039	393.21
494.248	-223.23
494.457	-163.84
494.665	-374.78
494.874	159.74
495.083	481.27
495.291	-141.31
495.5	-235.52
495.709	260.09
495.917	137.21
496.126	-53.25
496.335	-176.13
496.543	6.14
496.752	169.98
496.96	59.39
497.169	-368.63
497.377	69.63
497.586	258.04
497.794	-86.01
498.003	-362.49
498.211	-34.82
498.42	425.98
498.628	-149.5
498.837	-264.19
499.045	184.32
499.254	161.79
499.462	-325.63
499.671	-249.85
499.879	477.18
500.087	296.96
500.296	-235.52
500.504	-112.64
500.713	153.6
500.921	565.24
501.129	-243.71
501.338	-208.89
501.546	176.13
501.754	145.41
501.962	-231.42
502.171	-296.96
502.379	104.45
502.587	454.65
502.795	-155.65
503.004	-237.56
503.212	34.82
503.42	348.15
503.628	-219.13
503.837	-96.25
504.045	276.48
504.253	436.22
504.461	-290.81
504.669	-378.87
504.877	288.76
505.085	331.77
505.294	-294.91
505.502	-65.54
505.71	59.39
505.918	264.19
506.126	-280.57
506.334	-153.6
506.542	-126.97
506.75	159.74
506.958	-100.35
507.166	-126.97
507.374	-73.73
507.582	507.9
507.79	-108.54
507.998	-190.46
508.206	96.25
508.414	231.42
508.622	-262.14
508.83	-167.93
509.037	456.7
509.245	-10.24
509.453	-317.44
509.661	-292.86
509.869	290.81
510.077	102.4
510.285	-114.69
510.492	-514.04
510.7	557.05
510.908	28.67
511.116	-186.37
511.324	-299
511.531	-32.77
511.739	92.16
511.947	-49.15
512.155	126.97
512.362	116.73
512.57	-204.8
512.778	-311.29
512.985	-284.67
513.193	333.82
513.401	407.55
513.608	-182.27
513.816	-141.31
514.024	182.27
514.231	374.78
514.439	-208.89
514.646	-247.8
514.854	311.29
515.061	325.63
515.269	-290.81
515.477	-266.24
515.684	-129.02
515.892	333.82
516.099	-325.63
516.307	-387.07
516.514	249.85
516.722	380.92
516.929	-120.83
517.136	-311.29
517.344	425.98
517.551	137.21
517.759	-262.14
517.966	-208.89
518.173	-36.86
518.381	69.63
518.588	-192.51
518.796	-202.75
519.003	151.55
519.21	65.53
519.418	-292.86
519.625	79.87
519.832	124.93
520.039	137.21
520.247	-389.11
520.454	-133.12
520.661	296.96
520.868	198.65
521.076	-198.65
521.283	-200.7
521.49	628.73
521.697	190.46
521.904	-182.27
522.112	-165.89
522.319	256
522.526	235.52
522.733	-337.91
522.94	-264.19
523.147	122.88
523.354	329.72
523.561	-372.73
523.768	-233.47
523.975	356.35
524.183	215.04
524.39	-225.28
524.597	-321.53
524.804	94.21
525.011	-184.32
525.218	-247.8
525.425	-231.42
525.632	428.03
525.838	-139.26
526.045	-309.24
526.252	-256
526.459	1189.87
526.666	860.15
526.873	-208.89
527.08	-210.94
527.287	436.22
527.494	346.11
527.701	-315.39
527.907	-327.68
528.114	114.69
528.321	90.11
528.528	-153.6
528.735	-360.44
528.941	6.14
529.148	-36.86
529.355	-108.54
529.562	-284.67
529.768	526.33
529.975	-16.38
530.182	-137.21
530.388	-233.47
530.595	339.96
530.802	-184.32
531.008	6.14
531.215	-184.32
531.422	436.22
531.628	815.09
531.835	-165.89
532.042	-139.26
532.248	51.2
532.455	75.77
532.661	-137.21
532.868	-258.04
533.074	190.46
533.281	374.78
533.487	-108.54
533.694	-309.24
533.9	-133.12
534.107	223.23
534.313	-317.44
534.52	-296.96
534.726	280.57
534.933	544.76
535.139	-313.34
535.345	-296.96
535.552	143.36
535.758	172.03
535.965	-231.42
536.171	-200.7
536.377	290.81
536.584	370.68
536.79	-229.37
536.996	-151.55
537.203	75.77
537.409	200.7
537.615	-174.08
537.821	-47.1
538.028	280.57
538.234	313.34
538.44	-217.08
538.646	-94.21
538.853	266.24
539.059	43.01
539.265	178.17
539.471	-460.79
539.677	329.72
539.883	-69.63
540.09	-124.93
540.296	206.84
540.502	67.58
540.708	-135.17
540.914	-14.34
541.12	-225.28
541.326	253.95
541.532	30.72
541.738	-143.36
541.944	-167.93
542.15	354.3
542.356	59.39
542.562	-284.67
542.768	-135.17
542.974	735.22
543.18	612.34
543.386	-229.37
543.592	-389.11
543.798	382.97
544.004	348.15
544.21	-215.04
544.415	-141.31
544.621	116.73
544.827	364.54
545.033	-270.33
545.239	30.72
545.445	-161.79
545.651	143.36
545.856	-174.08
546.062	-157.69
546.268	-10.24
546.474	145.41
546.679	-169.98
546.885	-100.35
547.091	-36.86
547.297	544.76
547.502	-116.73
547.708	-282.62
547.914	-67.58
548.119	223.23
548.325	-266.24
548.531	-292.86
548.736	477.18
548.942	-34.82
549.147	-233.47
549.353	38.91
549.559	299
549.764	202.75
549.97	-116.73
550.175	-239.61
550.381	282.62
550.586	-108.54
550.792	-100.35
550.997	-157.69
551.203	112.64
551.408	258.04
551.614	-319.48
551.819	-292.86
552.025	591.86
552.23	532.47
552.435	-223.23
552.641	-22.53
552.846	-36.86
553.052	454.65
553.257	-79.87
553.462	-167.93
553.668	-83.97
553.873	391.16
554.078	-206.84
554.283	-346.11
554.489	112.64
554.694	169.98
554.899	-219.13
555.105	24.58
555.31	245.76
555.515	290.81
555.72	-59.39
555.925	-315.39
556.131	299
556.336	-14.34
556.541	-253.95
556.746	-243.71
556.951	460.79
557.156	483.32
557.361	-114.69
557.567	30.72
557.772	649.21
557.977	237.56
558.182	-178.17
558.387	-260.09
558.592	2.05
558.797	468.98
559.002	-112.64
559.207	-14.34
559.412	188.41
559.617	501.75
559.822	-159.74
560.027	-223.23
560.232	124.93
560.437	256
560.642	-280.57
560.847	-186.37
561.051	79.87
561.256	198.65
561.461	-108.54
561.666	-292.86
561.871	194.56
562.076	315.39
562.281	-94.21
562.485	-274.43
562.69	370.68
562.895	282.62
563.1	-174.08
563.305	-239.61
563.509	387.07
563.714	700.41
563.919	-98.3
564.123	-161.79
564.328	129.02
564.533	526.33
564.737	-153.6
564.942	-186.37
565.147	514.04
565.351	653.3
565.556	-137.21
565.761	-14.34
565.965	231.42
566.17	-30.72
566.374	-141.31
566.579	-270.33
566.784	208.89
566.988	-14.34
567.193	-319.48
567.397	-227.32
567.602	-143.36
567.806	122.88
568.011	-86.01
568.215	-149.5
568.42	32.77
568.624	141.31
568.828	-159.74
569.033	10.24
569.237	385.02
569.442	258.04
569.646	-235.52
569.85	-51.2
570.055	71.68
570.259	229.37
570.463	114.69
570.668	-153.6
570.872	118.78
571.076	110.59
571.281	-43.01
571.485	-6.14
571.689	106.49
571.893	335.87
572.098	16.38
572.302	-200.7
572.506	268.28
572.71	167.93
572.914	-110.59
573.119	-145.41
573.323	505.85
573.527	481.27
573.731	-167.93
573.935	-178.17
574.139	239.61
574.343	24.58
574.547	-145.41
574.751	-65.54
574.955	493.56
575.159	413.69
575.364	-163.84
575.568	-260.09
575.772	159.74
575.976	376.83
576.18	-141.31
576.383	-284.67
576.587	372.73
576.791	335.87
576.995	-333.82
577.199	-284.67
577.403	313.34
577.607	452.6
577.811	-194.56
578.015	-77.82
578.219	182.27
578.422	407.55
578.626	-22.53
578.83	0
579.034	430.07
579.238	198.65
579.442	-151.55
579.645	149.5
579.849	116.73
580.053	133.12
580.257	-61.44
580.46	-65.54
580.664	397.31
580.868	331.77
581.071	73.73
581.275	-73.73
581.479	-120.83
581.682	466.94
581.886	-102.4
582.09	49.15
582.293	350.2
582.497	382.97
582.7	141.31
582.904	-137.21
583.107	194.56
583.311	108.54
583.515	94.21
583.718	-86.01
583.922	296.96
584.125	649.21
584.329	-79.87
584.532	53.25
584.735	567.29
584.939	358.39
585.142	-172.03
585.346	-241.66
585.549	272.38
585.753	77.82
585.956	-120.83
586.159	-22.53
586.363	602.1
586.566	315.39
586.769	-145.41
586.973	-112.64
587.176	358.39
587.379	536.57
587.582	245.76
587.786	143.36
587.989	198.65
588.192	874.48
588.395	-6.14
588.599	223.23
588.802	296.96
589.005	475.13
589.208	-112.64
589.411	-51.2
589.615	546.81
589.818	511.99
590.021	174.08
590.224	-2.05
590.427	399.35
590.63	362.49
590.833	-206.84
591.036	-112.64
591.239	145.41
591.442	165.89
591.645	86.01
591.848	-118.78
592.051	296.96
592.254	413.69
592.457	28.67
592.66	83.97
592.863	235.52
593.066	325.63
593.269	-49.15
593.472	-10.24
593.675	10.24
593.878	526.33
594.081	108.54
594.284	-94.21
594.486	370.68
594.689	276.48
594.892	40.96
595.095	20.48
595.298	329.72
595.5	217.08
595.703	53.25
595.906	47.1
596.109	555
596.311	503.8
596.514	-315.39
596.717	40.96
596.92	546.81
597.122	329.72
597.325	-223.23
597.528	-22.53
597.73	647.16
597.933	333.82
598.136	-100.35
598.338	-243.71
598.541	432.12
598.743	573.43
598.946	32.77
599.148	0
599.351	538.62
599.554	505.85
599.756	69.63
599.959	61.44
600.161	579.58
600.363	935.92
600.566	262.14
600.768	-28.67
600.971	763.89
601.173	509.94
601.376	-96.25
601.578	59.39
601.78	354.3
601.983	876.53
602.185	-4.1
602.388	239.61
602.59	364.54
602.792	204.8
602.995	227.32
603.197	-2.05
603.399	473.08
603.601	417.79
603.804	49.15
604.006	-6.14
604.208	276.48
604.41	-79.87
604.613	231.42
604.815	30.72
605.017	765.94
605.219	137.21
605.421	344.06
605.623	-55.3
605.826	577.53
606.028	677.88
606.23	2.05
606.432	88.06
606.634	634.87
606.836	665.59
607.038	-69.63
607.24	239.61
607.442	487.42
607.644	296.96
607.846	174.08
608.048	-94.21
608.25	657.4
608.452	112.64
608.654	159.74
608.856	-159.74
609.058	258.04
609.26	491.51
609.462	169.98
609.664	102.4
609.866	796.66
610.067	575.48
610.269	217.08
610.471	67.58
610.673	235.52
610.875	628.73
611.077	-57.34
611.278	153.6
611.48	397.31
611.682	870.39
611.884	192.51
612.085	131.07
612.287	92.16
612.489	530.42
612.69	-51.2
612.892	65.53
613.094	522.23
613.295	493.56
613.497	-81.92
613.699	118.78
613.9	698.36
614.102	630.77
614.304	139.26
614.505	14.34
614.707	339.96
614.908	370.68
615.11	-36.86
615.311	212.99
615.513	559.1
615.714	516.09
615.916	-20.48
616.117	223.23
616.319	356.35
616.52	503.8
616.722	137.21
616.923	73.73
617.124	634.87
617.326	657.4
617.527	288.76
617.729	350.2
617.93	606.2
618.131	618.49
618.333	178.17
618.534	165.89
618.735	196.61
618.937	849.91
619.138	34.82
619.339	-16.38
619.54	440.31
619.742	292.86
619.943	247.8
620.144	225.28
620.345	624.63
620.546	692.21
620.748	137.21
620.949	157.69
621.15	487.42
621.351	438.27
621.552	90.11
621.753	-24.58
621.954	59.39
622.155	1009.65
622.356	10.24
622.558	258.04
622.759	471.03
622.96	823.28
623.161	124.93
623.362	217.08
623.563	454.65
623.764	501.75
623.965	282.62
624.166	313.34
624.366	403.45
624.567	471.03
624.768	-178.17
624.969	161.79
625.17	378.87
625.371	575.48
625.572	296.96
625.773	120.83
625.973	751.6
626.174	585.72
626.375	198.65
626.576	192.51
626.777	591.86
626.977	978.93
627.178	153.6
627.379	276.48
627.58	401.4
627.78	507.9
627.981	253.95
628.182	317.44
628.382	702.45
628.583	100.35
628.784	86.01
628.984	450.55
629.185	690.17
629.386	587.77
629.586	274.43
629.787	208.89
629.987	679.93
630.188	475.13
630.388	223.23
630.589	319.48
630.79	1028.08
630.99	462.84
631.191	292.86
631.391	229.37
631.591	645.11
631.792	856.05
631.992	419.83
632.193	258.04
632.393	976.88
632.594	430.07
632.794	194.56
632.994	301.05
633.195	505.85
633.395	538.62
633.595	247.8
633.796	452.6
633.996	346.11
634.196	802.8
634.397	151.55
634.597	382.97
634.797	315.39
634.997	808.95
635.198	538.62
635.398	169.98
635.598	636.92
635.798	911.35
635.998	641.01
636.199	145.41
636.399	464.89
636.599	370.68
636.799	286.72
636.999	550.9
637.199	733.17
637.399	821.24
637.599	231.42
637.799	372.73
637.999	471.03
638.199	847.86
638.399	190.46
638.599	249.85
638.799	645.11
638.999	933.87
639.199	477.18
639.399	391.16
639.599	888.82
639.799	303.1
639.999	223.23
640.199	200.7
640.399	667.64
640.599	714.74
640.799	430.07
640.998	579.58
641.198	888.82
641.398	714.74
641.598	466.94
641.798	518.14
641.997	1497.07
642.197	530.42
642.397	436.22
642.597	315.39
642.796	669.69
642.996	917.49
643.196	530.42
643.395	188.41
643.595	722.93
643.795	174.08
643.994	397.31
644.194	471.03
644.394	757.75
644.593	710.65
644.793	268.28
644.992	536.57
645.192	657.4
645.392	186.37
645.591	503.8
645.791	399.35
645.99	702.45
646.19	491.51
646.389	438.27
646.589	497.66
646.788	796.66
646.987	751.6
647.187	600.05
647.386	573.43
647.586	704.5
647.785	790.52
647.984	468.98
648.184	505.85
648.383	460.79
648.582	604.15
648.782	456.7
648.981	516.09
649.18	460.79
649.38	606.2
649.579	417.79
649.778	456.7
649.977	790.52
650.177	749.56
650.376	360.44
650.575	309.24
650.774	1050.61
650.973	526.33
651.173	264.19
651.372	495.61
651.571	647.16
651.77	876.53
651.969	266.24
652.168	622.58
652.367	415.74
652.566	755.7
652.765	366.59
652.964	722.93
653.163	1136.62
653.362	669.69
653.561	417.79
653.76	466.94
653.959	569.34
654.158	825.33
654.357	675.83
654.556	530.42
654.755	927.73
654.954	878.58
655.153	471.03
655.352	505.85
655.551	958.45
655.749	471.03
655.948	544.76
656.147	583.67
656.346	833.52
656.545	690.17
656.743	583.67
656.942	555
657.141	708.6
657.34	540.66
657.538	526.33
657.737	542.71
657.936	641.01
658.135	747.51
658.333	475.13
658.532	659.45
658.731	1173.49
658.929	952.31
659.128	833.52
659.326	460.79
659.525	1050.61
659.724	704.5
659.922	333.82
660.121	352.25
660.319	770.04
660.518	507.9
660.716	401.4
660.915	407.55
661.113	1148.91
661.312	473.08
661.51	671.73
661.709	425.98
661.907	987.12
662.105	1097.71
662.304	509.94
662.502	575.48
662.701	1046.51
662.899	763.89
663.097	899.06
663.296	475.13
663.494	1013.74
663.692	1036.27
663.891	569.34
664.089	378.87
664.287	915.44
664.485	1095.66
664.684	483.32
664.882	708.6
665.08	780.28
665.278	905.2
665.476	446.46
665.675	843.76
665.873	1249.26
666.071	1091.57
666.269	645.11
666.467	868.34
666.665	880.63
666.863	729.08
667.061	708.6
667.259	602.1
667.457	866.29
667.655	1026.03
667.853	419.83
668.051	632.82
668.249	563.19
668.447	1069.04
668.645	489.46
668.843	813.04
669.041	972.79
669.239	724.98
669.437	870.39
669.635	724.98
669.833	731.12
670.031	1003.5
670.229	694.26
670.426	673.78
670.624	804.85
670.822	782.32
671.02	649.21
671.218	610.29
671.415	767.99
671.613	854
671.811	819.19
672.009	798.71
672.206	1077.23
672.404	921.59
672.602	913.39
672.799	720.88
672.997	976.88
673.195	1234.93
673.392	712.69
673.59	667.64
673.788	1136.62
673.985	528.38
674.183	782.32
674.38	655.35
674.578	1058.8
674.775	727.03
674.973	489.46
675.17	585.72
675.368	1181.68
675.565	1066.99
675.763	591.86
675.96	686.07
676.158	1222.64
676.355	968.69
676.553	663.54
676.75	688.12
676.947	909.3
677.145	901.11
677.342	731.12
677.539	835.57
677.737	954.35
677.934	1501.16
678.131	888.82
678.329	708.6
678.526	1333.23
678.723	1095.66
678.92	813.04
679.118	716.79
679.315	675.83
679.512	1259.5
679.709	706.55
679.906	716.79
680.104	1234.93
680.301	1011.7
680.498	720.88
680.695	649.21
680.892	767.99
681.089	849.91
681.286	782.32
681.483	624.63
681.68	1159.15
681.877	1122.29
682.075	825.33
682.272	862.19
682.469	1064.94
682.665	892.91
682.862	679.93
683.059	581.62
683.256	1122.29
683.453	1058.8
683.65	825.33
683.847	829.43
684.044	1023.98
684.241	833.52
684.438	858.1
684.635	624.63
684.831	1550.31
685.028	1554.41
685.225	727.03
685.422	956.4
685.619	999.41
685.815	964.59
686.012	903.15
686.209	880.63
686.405	800.76
686.602	1325.04
686.799	661.49
686.996	753.65
687.192	788.47
687.389	1521.64
687.586	743.41
687.782	913.39
687.979	1322.99
688.175	1245.16
688.372	972.79
688.568	915.44
688.765	870.39
688.962	1347.56
689.158	997.36
689.355	767.99
689.551	1236.97
689.748	935.92
689.944	950.26
690.14	632.82
690.337	1247.21
690.533	931.83
690.73	1089.52
690.926	880.63
691.123	1185.77
691.319	1017.84
691.515	753.65
691.712	1130.48
691.908	1181.68
692.104	1236.97
692.301	1021.94
692.497	735.22
692.693	1216.49
692.889	1296.36
693.086	1054.7
693.282	727.03
693.478	1110
693.674	1497.07
693.87	770.04
694.067	710.65
694.263	1066.99
694.459	1101.81
694.655	1075.18
694.851	958.45
695.047	1177.58
695.243	1286.12
695.439	1087.47
695.635	837.62
695.831	1218.54
696.027	1034.22
696.224	749.56
696.42	1263.6
696.615	1486.83
696.811	1181.68
697.007	661.49
697.203	872.43
697.399	1157.1
697.595	1538.02
697.791	860.15
697.987	1167.34
698.183	862.19
698.379	946.16
698.575	944.11
698.77	851.95
698.966	1302.51
699.162	1380.33
699.358	980.98
699.554	948.21
699.749	1263.6
699.945	1271.79
700.141	1046.51
700.337	980.98
700.532	1138.67
700.728	1066.99
700.924	813.04
701.119	839.67
701.315	1275.88
701.511	1046.51
701.706	1001.46
701.902	722.93
702.097	1062.9
702.293	1304.56
702.489	1026.03
702.684	897.01
702.88	1058.8
703.075	1134.57
703.271	956.4
703.466	876.53
703.662	1232.88
703.857	1292.27
704.053	944.11
704.248	989.17
704.443	1384.43
704.639	1304.56
704.834	923.63
705.03	919.54
705.225	1378.28
705.42	1587.18
705.616	1077.23
705.811	976.88
706.006	1165.29
706.202	1071.09
706.397	1058.8
706.592	845.81
706.787	1316.84
706.983	1243.12
707.178	1308.65
707.373	1144.81
707.568	1415.15
707.763	1583.08
707.959	1044.46
708.154	919.54
708.349	1093.62
708.544	1312.75
708.739	1218.54
708.934	800.76
709.129	1462.25
709.324	1492.97
709.519	917.49
709.714	989.17
709.909	1449.96
710.104	1322.99
710.299	980.98
710.494	1122.29
710.689	1359.85
710.884	1136.62
711.079	1204.21
711.274	1236.97
711.469	1415.15
711.664	1366
711.859	937.97
712.054	1157.1
712.249	1345.52
712.443	1478.63
712.638	888.82
712.833	970.74
713.028	1239.02
713.223	1183.73
713.417	1259.5
713.612	929.78
713.807	1482.73
714.002	1853.41
714.196	1243.12
714.391	1017.84
714.586	1449.96
714.78	1292.27
714.975	1075.18
715.17	960.5
715.364	1122.29
715.559	1585.13
715.754	815.09
715.948	925.68
716.143	1808.36
716.337	1353.71
716.532	1353.71
716.726	1007.6
716.921	1546.22
717.115	1718.25
717.31	905.2
717.504	1667.05
717.699	1236.97
717.893	1431.53
718.088	911.35
718.282	933.87
718.476	1388.52
718.671	1488.87
718.865	1036.27
719.059	1116.14
719.254	1357.8
719.448	1683.43
719.642	1279.98
719.837	778.23
720.031	1476.59
720.225	1550.31
720.419	1132.53
720.614	1026.03
720.808	1587.18
721.002	1228.78
721.196	1026.03
721.39	1064.94
721.585	1728.49
721.779	1443.82
721.973	1210.35
722.167	964.59
722.361	1439.72
722.555	1548.26
722.749	1159.15
722.943	1177.58
723.137	1017.84
723.331	1499.11
723.525	1073.14
723.719	1062.9
723.913	1542.12
724.107	1681.38
724.301	1038.32
724.495	1187.82
724.689	1744.87
724.883	1689.57
725.077	1099.76
725.271	1130.48
725.465	1673.19
725.659	1359.85
725.853	1187.82
726.046	1021.94
726.24	1279.98
726.434	1644.52
726.628	985.07
726.822	1243.12
727.015	1791.97
727.209	1611.75
727.403	1288.17
727.596	997.36
727.79	1611.75
727.984	1734.63
728.177	1163.25
728.371	1239.02
728.565	1646.57
728.758	1161.2
728.952	1054.7
729.146	1075.18
729.339	1705.96
729.533	1292.27
729.726	1310.7
729.92	1112.05
730.113	1726.44
730.307	1478.63
730.5	1155.05
730.694	1255.4
730.887	1439.72
731.081	1578.98
731.274	993.26
731.468	1222.64
731.661	1443.82
731.854	1259.5
732.048	1185.77
732.241	1107.95
732.435	1271.79
732.628	1409
732.821	1214.45
733.014	1157.1
733.208	1175.53
733.401	1595.37
733.594	1144.81
733.788	1214.45
733.981	1812.45
734.174	1501.16
734.367	1208.3
734.56	1396.71
734.754	1808.36
734.947	1429.48
735.14	1265.64
735.333	1214.45
735.526	1748.97
735.719	1167.34
735.912	1216.49
736.105	1153.01
736.298	1411.05
736.491	1411.05
736.684	1200.11
736.877	1218.54
737.07	1578.98
737.263	1935.33
737.456	1222.64
737.649	1144.81
737.842	1411.05
738.035	1466.35
738.228	1210.35
738.421	1406.95
738.614	1738.73
738.807	1789.92
739	1148.91
739.192	1273.84
739.385	1671.14
739.578	1640.42
739.771	1449.96
739.964	1277.93
740.156	1669.09
740.349	1521.64
740.542	1376.23
740.735	1071.09
740.927	1333.23
741.12	1269.74
741.313	1241.07
741.505	1427.43
741.698	1533.93
741.891	1576.94
742.083	1437.67
742.276	1247.21
742.468	1550.31
742.661	1419.24
742.854	1349.61
743.046	1230.83
743.239	1970.15
743.431	1535.98
743.624	1263.6
743.816	1157.1
744.009	1581.03
744.201	1726.44
744.393	1548.26
744.586	1208.3
744.778	1738.73
744.971	1564.65
745.163	1366
745.355	1329.13
745.548	1486.83
745.74	1411.05
745.932	1431.53
746.125	1331.18
746.317	2195.42
746.509	1552.36
746.702	1284.08
746.894	1331.18
747.086	1658.85
747.278	1892.32
747.471	1497.07
747.663	1464.3
747.855	1804.26
748.047	1955.81
748.239	1198.06
748.431	1355.76
748.623	2025.44
748.815	1900.51
749.008	1196.01
749.2	1247.21
749.392	1920.99
749.584	1697.77
749.776	1468.39
749.968	1449.96
750.16	1980.39
750.352	1644.52
750.544	1435.63
750.736	1247.21
750.928	1777.64
751.12	1677.29
751.311	1449.96
751.503	1525.74
751.695	1779.68
751.887	1599.46
752.079	1161.2
752.271	1380.33
752.463	2396.12
752.654	1824.74
752.846	1417.19
753.038	1372.14
753.23	1517.54
753.421	1648.61
753.613	1474.54
753.805	1638.37
753.997	1939.43
754.188	1865.7
754.38	1366
754.572	1456.11
754.763	1572.84
754.955	1791.97
755.146	1533.93
755.338	1517.54
755.53	1849.32
755.721	1628.14
755.913	1222.64
756.104	1316.84
756.296	1570.79
756.487	1916.9
756.679	1341.42
756.87	1386.47
757.062	1558.5
757.253	1845.22
757.445	1550.31
757.636	1544.17
757.827	1552.36
758.019	2361.31
758.21	1470.44
758.401	1486.83
758.593	2158.56
758.784	2068.45
758.975	1171.44
759.167	1394.67
759.358	1673.19
759.549	1966.05
759.74	1320.94
759.932	1355.76
760.123	2027.49
760.314	1644.52
760.505	1552.36
760.696	1456.11
760.888	1990.63
761.079	1626.09
761.27	1454.06
761.461	1357.8
761.652	2107.36
761.843	1527.78
762.034	1445.87
762.225	1703.91
762.416	1665
762.607	1681.38
762.798	1472.49
762.989	1464.3
763.18	2633.69
763.371	1748.97
763.562	1497.07
763.753	1456.11
763.944	1968.1
764.135	1970.15
764.326	1656.81
764.517	1452.01
764.708	1718.25
764.899	1886.18
765.089	1423.34
765.28	1308.65
765.471	1712.1
765.662	1769.44
765.853	1507.3
766.043	1366
766.234	2004.96
766.425	1994.72
766.615	1419.24
766.806	1228.78
766.997	1984.48
767.187	1740.77
767.378	1368.04
767.569	1284.08
767.759	1845.22
767.95	1755.11
768.141	1568.74
768.331	1345.52
768.522	1722.34
768.712	1820.64
768.903	1374.19
769.093	1345.52
769.284	2090.98
769.474	1837.03
769.665	1257.45
769.855	1263.6
770.046	1820.64
770.236	1665
770.426	1599.46
770.617	1363.95
770.807	1918.95
770.998	1734.63
771.188	1617.9
771.378	1327.08
771.569	1910.75
771.759	1808.36
771.949	1386.47
772.139	1249.26
772.33	1783.78
772.52	2023.39
772.71	1454.06
772.9	1284.08
773.09	2205.66
773.281	2086.88
773.471	1404.91
773.661	1462.25
773.851	2041.82
774.041	1617.9
774.231	1398.76
774.421	1617.9
774.611	2074.59
774.802	1865.7
774.992	1525.74
775.182	1443.82
775.372	1810.4
775.562	1910.75
775.752	1542.12
775.942	1470.44
776.131	2035.68
776.321	1873.89
776.511	1454.06
776.701	1353.71
776.891	1877.99
777.081	1572.84
777.271	1603.56
777.461	1480.68
777.651	1861.6
777.84	2074.59
778.03	1605.61
778.22	1533.93
778.41	2021.35
778.599	1546.22
778.789	1507.3
778.979	1437.67
779.169	1916.9
779.358	1699.81
779.548	1746.92
779.738	1363.95
779.927	1779.68
780.117	1521.64
780.307	1542.12
780.496	1294.32
780.686	1869.8
780.875	2234.33
781.065	1460.2
781.254	1452.01
781.444	1779.68
781.633	1894.37
781.823	1339.37
782.012	1378.28
782.202	1656.81
782.391	1728.49
782.581	1458.15
782.77	1542.12
782.96	1994.72
783.149	1771.49
783.338	1523.69
783.528	1308.65
783.717	1978.34
783.906	2072.54
784.096	1535.98
784.285	1374.19
784.474	1705.96
784.663	1609.7
784.853	1525.74
785.042	1538.02
785.231	1732.58
785.42	1982.43
785.61	1652.71
785.799	1386.47
785.988	1697.77
786.177	1687.53
786.366	1517.54
786.555	1806.31
786.744	1898.47
786.933	1726.44
787.122	1406.95
787.312	1269.74
787.501	1632.23
787.69	1892.32
787.879	1404.91
788.068	1376.23
788.257	1503.21
788.445	1624.04
788.634	1587.18
788.823	1476.59
789.012	2359.26
789.201	2119.65
789.39	1519.59
789.579	1566.7
789.768	1869.8
789.957	1814.5
790.145	1583.08
790.334	1140.72
790.523	1681.38
790.712	1763.3
790.9	1662.95
791.089	1331.18
791.278	2017.25
791.467	1824.74
791.655	1728.49
791.844	2043.87
792.033	1550.31
792.221	1581.03
792.41	1544.17
792.599	1337.32
792.787	1959.91
792.976	1939.43
793.164	1404.91
793.353	1576.94
793.541	1916.9
793.73	1898.47
793.918	1570.79
794.107	1501.16
794.295	1740.77
794.484	1775.59
794.672	1531.88
794.861	1552.36
795.049	1978.34
795.238	2228.19
795.426	1351.66
795.614	1517.54
795.803	2011.11
795.991	2127.84
796.179	1400.81
796.368	1452.01
796.556	2119.65
796.744	1538.02
796.932	1445.87
797.121	1550.31
797.309	1751.01
797.497	2035.68
797.685	1665
797.874	1544.17
798.062	1656.81
798.25	2217.95
798.438	1490.92
798.626	1652.71
798.814	1978.34
799.002	2430.94
799.19	1734.63
799.378	1673.19
799.566	2183.13
799.755	2099.17
799.943	1761.25
800.131	1538.02
800.318	1869.8
800.506	1982.43
800.694	1495.02
800.882	1697.77
801.07	2179.04
801.258	1738.73
801.446	1642.47
801.634	1511.4
801.822	1787.88
802.01	1851.36
802.197	1476.59
802.385	1837.03
802.573	1896.42
802.761	1621.99
802.949	1628.14
803.136	1447.91
803.324	2136.03
803.512	1994.72
803.699	1798.12
803.887	1513.45
804.075	2179.04
804.262	1785.83
804.45	1558.5
804.638	1777.64
804.825	1540.07
805.013	1734.63
805.201	1753.06
805.388	1613.8
805.576	1888.23
805.763	2344.92
805.951	1705.96
806.138	1826.79
806.326	2410.46
806.513	2131.94
806.701	1681.38
806.888	1712.1
807.075	2009.06
807.263	2279.39
807.45	1439.72
807.638	1902.56
807.825	2269.15
808.012	2136.03
808.2	1701.86
808.387	1978.34
808.574	2113.5
808.761	2359.26
808.949	1626.09
809.136	1765.35
809.323	1843.17
809.51	1986.53
809.698	1976.29
809.885	1894.37
810.072	2156.51
810.259	2285.53
810.446	1732.58
810.633	1779.68
810.82	2303.96
811.008	2314.2
811.195	1863.65
811.382	1814.5
811.569	1978.34
811.756	1726.44
811.943	1929.19
812.13	1703.91
812.317	1933.28
812.504	1851.36
812.691	1890.28
812.878	1904.61
813.064	2459.61
813.251	2164.7
813.438	1753.06
813.625	1978.34
813.812	2082.78
813.999	1996.77
814.186	1839.08
814.372	1769.44
814.559	2115.55
814.746	2316.25
814.933	1863.65
815.12	2131.94
815.306	1980.39
815.493	1902.56
815.68	1765.35
815.866	1896.42
816.053	2271.2
816.24	2506.71
816.426	1884.13
816.613	1703.91
816.799	2269.15
816.986	2453.47
817.173	1906.66
817.359	1837.03
817.546	2185.18
817.732	1804.26
817.919	1550.31
818.105	1892.32
818.292	2070.5
818.478	2289.63
818.665	1933.28
818.851	1851.36
819.037	2617.3
819.224	2041.82
819.41	1595.37
819.597	1775.59
819.783	2502.62
819.969	2312.16
820.156	1955.81
820.342	1626.09
820.528	2938.84
820.714	2119.65
820.901	2105.31
821.087	1843.17
821.273	2469.85
821.459	2060.26
821.646	1796.07
821.832	1779.68
822.018	2205.66
822.204	2195.42
822.39	1943.52
822.576	1726.44
822.762	2332.64
822.948	2222.05
823.134	2045.92
823.32	2009.06
823.507	1869.8
823.693	2199.52
823.879	2328.54
824.065	1851.36
824.25	2150.37
824.436	1894.37
824.622	1900.51
824.808	1773.54
824.994	1966.05
825.18	2017.25
825.366	1777.64
825.552	1828.84
825.738	2115.55
825.923	2428.89
826.109	2166.75
826.295	1845.22
826.481	2084.83
826.667	1949.67
826.852	2097.12
827.038	1798.12
827.224	2486.23
827.409	2557.91
827.595	1722.34
827.781	1920.99
827.966	2461.66
828.152	2306.01
828.338	1935.33
828.523	1841.12
828.709	1943.52
828.894	2471.9
829.08	1873.89
829.266	1871.84
829.451	1984.48
829.637	2242.53
829.822	1933.28
830.008	1849.32
830.193	2430.94
830.378	2353.12
830.564	2060.26
830.749	1865.7
830.935	2277.34
831.12	2365.4
831.305	1927.14
831.491	1980.39
831.676	1886.18
831.861	2275.29
832.047	1890.28
832.232	1697.77
832.417	2469.85
832.602	2162.65
832.788	1783.78
832.973	1689.57
833.158	2090.98
833.343	2111.46
833.528	1964
833.714	1941.47
833.899	2168.8
834.084	2570.2
834.269	2154.46
834.454	1820.64
834.639	2222.05
834.824	2140.13
835.009	2041.82
835.194	2058.21
835.379	2308.06
835.564	2529.24
835.749	2070.5
835.934	1718.25
836.119	2293.72
836.304	2158.56
836.489	1902.56
836.674	2023.39
836.859	1880.04
837.044	2566.1
837.228	1918.95
837.413	1730.53
837.598	2193.37
837.783	2508.76
837.968	1996.77
838.152	1748.97
838.337	1738.73
838.522	2320.35
838.707	2232.29
838.891	2070.5
839.076	2170.85
839.261	2455.51
839.445	1880.04
839.63	1877.99
839.815	2555.86
839.999	2041.82
840.184	1894.37
840.368	1931.23
840.553	2207.71
840.737	2357.21
840.922	1863.65
841.106	1791.97
841.291	1951.71
841.475	2160.61
841.66	1843.17
841.844	1923.04
842.029	2824.15
842.213	1945.57
842.397	1884.13
842.582	1720.29
842.766	2418.65
842.951	2396.12
843.135	1908.71
843.319	1830.88
843.504	2234.33
843.688	2418.65
843.872	1730.53
844.056	1808.36
844.241	2242.53
844.425	2109.41
844.609	2066.4
844.793	1576.94
844.977	2258.91
845.161	2160.61
845.346	1673.19
845.53	1867.75
845.714	2080.74
845.898	2519
846.082	1615.85
846.266	1775.59
846.45	2072.54
846.634	2142.18
846.818	1841.12
847.002	2019.3
847.186	2310.11
847.37	1920.99
847.554	1605.61
847.738	2045.92
847.922	2357.21
848.106	2213.85
848.29	1675.24
848.473	1882.08
848.657	2332.64
848.841	1986.53
849.025	1871.84
849.209	1710.05
849.392	2392.03
849.576	2086.88
849.76	1720.29
849.944	2062.3
850.127	2428.89
850.311	1871.84
850.495	1636.33
850.678	1744.87
850.862	2373.6
851.046	2576.34
851.229	2187.23
851.413	1742.82
851.596	2215.9
851.78	2136.03
851.964	1978.34
852.147	1906.66
852.331	2865.11
852.514	2381.79
852.698	2043.87
852.881	1753.06
853.065	2394.08
853.248	2093.02
853.431	1996.77
853.615	2025.44
853.798	2731.99
853.982	2299.87
854.165	2004.96
854.348	1961.95
854.532	2007.01
854.715	2017.25
854.898	1990.63
855.081	1875.94
855.265	2488.28
855.448	2506.71
855.631	1685.48
855.814	1818.6
855.997	2371.55
856.181	2099.17
856.364	1996.77
856.547	1642.47
856.73	2105.31
856.913	2193.37
857.096	1732.58
857.279	1908.71
857.462	1929.19
857.645	2312.16
857.828	2041.82
858.011	1863.65
858.194	1880.04
858.377	2463.71
858.56	1763.3
858.743	1816.55
858.926	1873.89
859.109	2326.49
859.292	1855.46
859.475	1697.77
859.658	2525.15
859.841	2197.47
860.023	1765.35
860.206	1763.3
860.389	2148.32
860.572	2461.66
860.755	1820.64
860.937	1814.5
861.12	2074.59
861.303	2176.99
861.486	1984.48
861.668	1775.59
861.851	2275.29
862.034	2287.58
862.216	1933.28
862.399	1742.82
862.581	2220
862.764	2539.48
862.947	1994.72
863.129	1759.21
863.312	1812.45
863.494	2492.38
863.677	2170.85
863.859	1644.52
864.042	2287.58
864.224	2426.84
864.406	2033.63
864.589	1640.42
864.771	2207.71
864.954	1888.23
865.136	1681.38
865.318	1607.66
865.501	2289.63
865.683	1603.56
865.865	1714.15
866.048	1791.97
866.23	2189.28
866.412	2205.66
866.594	1775.59
866.777	1863.65
866.959	2322.4
867.141	1892.32
867.323	2060.26
867.505	1982.43
867.687	2066.4
867.869	2090.98
868.052	1857.51
868.234	1701.86
868.416	2084.83
868.598	2220
868.78	1701.86
868.962	1681.38
869.144	2344.92
869.326	2275.29
869.508	1847.27
869.69	1787.88
869.872	1976.29
870.054	2340.83
870.236	1648.61
870.417	1722.34
870.599	1959.91
870.781	2322.4
870.963	1955.81
871.145	1820.64
871.327	1712.1
871.508	2289.63
871.69	1812.45
871.872	1837.03
872.054	2146.27
872.235	2242.53
872.417	1880.04
872.599	1781.73
872.78	2580.44
872.962	2140.13
873.144	1701.86
873.325	1841.12
873.507	2580.44
873.689	2250.72
873.87	1714.15
874.052	2023.39
874.233	2015.2
874.415	2330.59
874.596	1890.28
874.778	1808.36
874.959	2113.5
875.141	2336.73
875.322	1824.74
875.503	1820.64
875.685	2238.43
875.866	1730.53
876.048	1796.07
876.229	1828.84
876.41	1941.47
876.592	2238.43
876.773	1877.99
876.954	1787.88
877.136	2549.72
877.317	2117.6
877.498	1705.96
877.679	2000.87
877.86	2234.33
878.042	1986.53
878.223	1867.75
878.404	2256.86
878.585	2115.55
878.766	2607.06
878.947	2189.28
879.128	2000.87
879.309	2197.47
879.49	2303.96
879.672	1951.71
879.853	2000.87
880.034	1992.67
880.215	2183.13
880.396	2027.49
880.576	1943.52
880.757	2136.03
880.938	2428.89
881.119	1820.64
881.3	1951.71
881.481	2209.76
881.662	2930.64
881.843	1970.15
882.023	1675.24
882.204	2273.25
882.385	2367.45
882.566	1943.52
882.747	2027.49
882.927	2222.05
883.108	2330.59
883.289	2011.11
883.469	2295.77
883.65	2068.45
883.831	2213.85
884.011	2289.63
884.192	1994.72
884.373	2383.84
884.553	2559.96
884.734	2117.6
884.914	2242.53
885.095	2861.01
885.275	2756.57
885.456	2303.96
885.636	1972.19
885.817	2254.81
885.997	2312.16
886.178	1877.99
886.358	2002.91
886.538	2230.24
886.719	3393.48
886.899	1980.39
887.08	2236.38
887.26	2609.11
887.44	2224.09
887.621	1931.23
887.801	2211.81
887.981	2883.54
888.161	2451.42
888.342	2095.07
888.522	1968.1
888.702	2623.45
888.882	2594.78
889.062	2330.59
889.242	1902.56
889.423	2643.93
889.603	2592.73
889.783	2240.48
889.963	2170.85
890.143	2582.49
890.323	2570.2
890.503	2179.04
890.683	2289.63
890.863	2287.58
891.043	2451.42
891.223	2269.15
891.403	2306.01
891.583	2432.99
891.763	2492.38
891.943	2287.58
892.122	2103.26
892.302	2488.28
892.482	2418.65
892.662	2222.05
892.842	2297.82
893.022	2469.85
893.201	2222.05
893.381	2363.36
893.561	2037.73
893.741	2648.02
893.92	2574.3
894.1	2136.03
894.28	2248.67
894.459	2598.87
894.639	2533.34
894.819	2205.66
894.998	2365.4
895.178	2570.2
895.357	2648.02
895.537	2160.61
895.716	1949.67
895.896	2371.55
896.075	2783.19
896.255	2224.09
896.434	1918.95
896.614	2756.57
896.793	2809.81
896.973	2312.16
897.152	2336.73
897.331	2551.77
897.511	2617.3
897.69	2160.61
897.87	2275.29
898.049	2715.61
898.228	2512.86
898.407	2432.99
898.587	2310.11
898.766	2318.3
898.945	2748.37
899.124	2559.96
899.304	2363.36
899.483	2775
899.662	2838.48
899.841	2193.37
900.02	2156.51
900.199	2824.15
900.378	2557.91
900.557	2183.13
900.737	2187.23
900.916	2629.59
901.095	2797.53
901.274	2516.95
901.453	2136.03
901.632	2242.53
901.811	2299.87
901.989	2381.79
902.168	2131.94
902.347	2734.04
902.526	2269.15
902.705	2326.49
902.884	2478.04
903.063	2885.59
903.242	2893.78
903.42	2158.56
903.599	2416.6
903.778	2627.54
903.957	2906.07
904.135	2301.92
904.314	2189.28
904.493	2521.05
904.672	2729.94
904.85	2353.12
905.029	2185.18
905.207	2680.79
905.386	3278.8
905.565	2123.74
905.743	2238.43
905.922	2439.13
906.1	2754.52
906.279	2168.8
906.457	2205.66
906.636	2193.37
906.814	2316.25
906.993	2103.26
907.171	2117.6
907.35	2719.7
907.528	2676.7
907.707	2451.42
907.885	2162.65
908.063	2863.06
908.242	2115.55
908.42	2185.18
908.598	1939.43
908.777	2557.91
908.955	2389.98
909.133	2359.26
909.311	2144.22
909.49	2361.31
909.668	2308.06
909.846	2215.9
910.024	1988.58
910.202	2389.98
910.38	2590.68
910.559	2068.45
910.737	2004.96
910.915	2492.38
911.093	2398.17
911.271	2242.53
911.449	2402.27
911.627	2478.04
911.805	2992.08
911.983	2179.04
912.161	2123.74
912.339	2441.18
912.517	2775
912.695	2254.81
912.872	2123.74
913.05	2316.25
913.228	2588.63
913.406	2080.74
913.584	2056.16
913.762	2551.77
913.939	2310.11
914.117	2035.68
914.295	2154.46
914.473	2463.71
914.65	2432.99
914.828	2148.32
915.006	1992.67
915.184	2101.22
915.361	2420.7
915.539	2238.43
915.716	2203.61
915.894	2385.88
916.072	2609.11
916.249	2199.52
916.427	2285.53
916.604	2013.15
916.782	2406.36
916.959	1900.51
917.137	2115.55
917.314	2365.4
917.492	2465.75
917.669	2230.24
917.847	2066.4
918.024	2480.09
918.201	2148.32
918.379	2125.79
918.556	2009.06
918.733	2508.76
918.911	2232.29
919.088	2400.22
919.265	2107.36
919.442	2428.89
919.62	2168.8
919.797	2017.25
919.974	2002.91
920.151	2422.75
920.328	2115.55
920.506	1992.67
920.683	2205.66
920.86	2068.45
921.037	2131.94
921.214	2037.73
921.391	1961.95
921.568	2459.61
921.745	1996.77
921.922	2023.39
922.099	1886.18
922.276	2529.24
922.453	2306.01
922.63	1902.56
922.807	2224.09
922.984	2326.49
923.161	1996.77
923.338	1941.47
923.514	1865.7
923.691	2142.18
923.868	2172.89
924.045	1855.46
924.222	1753.06
924.399	2193.37
924.575	2443.23
924.752	1953.76
924.929	2039.78
925.105	2338.78
925.282	1988.58
925.459	1806.31
925.635	1916.9
925.812	2084.83
925.989	1888.23
926.165	1830.88
926.342	1712.1
926.518	1841.12
926.695	2025.44
926.871	1771.49
927.048	1642.47
927.224	2365.4
927.401	2041.82
927.577	1886.18
927.754	1697.77
927.93	2338.78
928.107	2217.95
928.283	1562.6
928.459	1847.27
928.636	2154.46
928.812	1877.99
928.988	1642.47
929.165	1554.41
929.341	1918.95
929.517	1968.1
929.693	2117.6
929.87	1476.59
930.046	2174.94
930.222	1923.04
930.398	1630.18
930.574	1804.26
930.751	1998.82
930.927	1859.56
931.103	1722.34
931.279	1787.88
931.455	1638.37
931.631	2041.82
931.807	1503.21
931.983	1511.4
932.159	1558.5
932.335	1896.42
932.511	1732.58
932.687	1601.51
932.863	1912.8
933.039	1830.88
933.215	1419.24
933.391	1533.93
933.566	1785.83
933.742	1734.63
933.918	1501.16
934.094	1341.42
934.27	1789.92
934.445	1824.74
934.621	1562.6
934.797	1384.43
934.973	1861.6
935.148	1925.09
935.324	1279.98
935.5	1308.65
935.675	1896.42
935.851	1644.52
936.027	1419.24
936.202	1429.48
936.378	1689.57
936.553	1546.22
936.729	1755.11
936.904	1351.66
937.08	1275.88
937.255	1353.71
937.431	1161.2
937.606	1064.94
937.782	1288.17
937.957	1386.47
938.133	1322.99
938.308	1105.9
938.483	1357.8
938.659	1122.29
938.834	1181.68
939.009	1112.05
939.185	1290.22
939.36	1048.56
939.535	706.55
939.71	1107.95
939.886	1521.64
940.061	1345.52
940.236	1228.78
940.411	1118.19
940.586	1329.13
940.761	1316.84
940.937	950.26
941.112	878.58
941.287	1165.29
941.462	1236.97
941.637	770.04
941.812	897.01
941.987	1054.7
942.162	1036.27
942.337	1038.32
942.512	862.19
942.687	1341.42
942.862	1196.01
943.037	675.83
943.212	538.62
943.386	1028.08
943.561	1146.86
943.736	989.17
943.911	1189.87
944.086	1189.87
944.26	1071.09
944.435	854
944.61	849.91
944.785	1394.67
944.959	1585.13
945.134	831.48
945.309	710.65
945.483	901.11
945.658	1366
945.833	581.62
946.007	610.29
946.182	1456.11
946.357	763.89
946.531	788.47
946.706	677.88
946.88	638.97
947.055	1071.09
947.229	706.55
947.404	714.74
947.578	1298.41
947.752	944.11
947.927	591.86
948.101	651.25
948.276	1050.61
948.45	1026.03
948.624	956.4
948.799	735.22
948.973	1038.32
949.147	720.88
949.321	860.15
949.496	774.13
949.67	1347.56
949.844	931.83
950.018	839.67
950.193	778.23
950.367	1497.07
950.541	1005.55
950.715	864.24
950.889	991.22
951.063	929.78
951.237	1118.19
951.411	550.9
951.585	530.42
951.759	1062.9
951.933	960.5
952.107	774.13
952.281	952.31
952.455	1349.61
952.629	1245.16
952.803	708.6
952.977	763.89
953.151	1175.53
953.325	1128.43
953.499	849.91
953.672	587.77
953.846	770.04
954.02	989.17
954.194	608.25
954.368	788.47
954.541	1126.38
954.715	911.35
954.889	856.05
955.062	727.03
955.236	923.63
955.41	1005.55
955.583	964.59
955.757	628.73
955.93	952.31
956.104	780.28
956.278	806.9
956.451	894.96
956.625	1021.94
956.798	1492.97
956.972	1017.84
957.145	718.84
957.319	1071.09
957.492	948.21
957.665	890.87
957.839	743.41
958.012	1099.76
958.185	841.72
958.359	808.95
958.532	845.81
958.705	1128.43
958.879	1146.86
959.052	876.53
959.225	612.34
959.398	1040.37
959.572	1069.04
959.745	698.36
959.918	868.34
960.091	931.83
960.264	1093.62
960.438	634.87
960.611	651.25
960.784	1079.28
960.957	907.25
961.13	1163.25
961.303	602.1
961.476	1030.13
961.649	1165.29
961.822	630.77
961.995	741.36
962.168	1036.27
962.341	1021.94
962.514	780.28
962.686	716.79
962.859	960.5
963.032	1097.71
963.205	681.97
963.378	602.1
963.551	1105.9
963.723	905.2
963.896	819.19
964.069	940.02
964.242	868.34
964.414	1193.97
964.587	864.24
964.76	841.72
964.932	1069.04
965.105	868.34
965.278	720.88
965.45	692.21
965.623	1060.85
965.795	1107.95
965.968	854
966.14	757.75
966.313	937.97
966.485	946.16
966.658	778.23
966.83	598.01
967.003	1263.6
967.175	1058.8
967.348	745.46
967.52	718.84
967.692	1296.36
967.865	1040.37
968.037	770.04
968.209	1030.13
968.382	958.45
968.554	1241.07
968.726	731.12
968.898	722.93
969.071	1048.56
969.243	1144.81
969.415	796.66
969.587	866.29
969.759	1400.81
969.932	1126.38
970.104	690.17
970.276	430.07
970.448	808.95
970.62	804.85
970.792	827.38
970.964	772.08
971.136	1431.53
971.308	1021.94
971.48	755.7
971.652	657.4
971.824	1296.36
971.996	864.24
972.168	743.41
972.339	788.47
972.511	1177.58
972.683	880.63
972.855	993.26
973.027	804.85
973.199	907.25
973.37	1140.72
973.542	837.62
973.714	767.99
973.886	1089.52
974.057	1030.13
974.229	669.69
974.401	710.65
974.572	669.69
974.744	489.46
974.915	669.69
975.087	620.53
975.259	1271.79
975.43	837.62
975.602	634.87
975.773	569.34
975.945	776.18
976.116	1167.34
976.288	690.17
976.459	929.78
976.63	970.74
976.802	1050.61
976.973	720.88
977.145	905.2
977.316	1423.34
977.487	1026.03
977.659	854
977.83	772.08
978.001	1277.93
978.172	892.91
978.344	636.92
978.515	767.99
978.686	767.99
978.857	1277.93
979.028	700.41
979.2	569.34
979.371	1163.25
979.542	944.11
979.713	802.8
979.884	221.18
980.055	739.32
980.226	772.08
980.397	593.91
980.568	612.34
980.739	1118.19
980.91	862.19
981.081	804.85
981.252	571.38
981.423	1034.22
981.594	1046.51
981.765	600.05
981.936	729.08
982.106	870.39
982.277	1204.21
982.448	589.81
982.619	880.63
982.79	776.18
982.96	1191.92
983.131	659.45
983.302	413.69
983.472	782.32
983.643	964.59
983.814	704.5
983.984	503.8
984.155	790.52
984.326	1091.57
984.496	702.45
984.667	638.97
984.837	735.22
985.008	1013.74
985.178	770.04
985.349	624.63
985.519	804.85
985.69	632.82
985.86	616.44
986.031	514.04
986.201	870.39
986.371	993.26
986.542	446.46
986.712	526.33
986.882	962.55
987.053	858.1
987.223	524.28
987.393	698.36
987.563	745.46
987.734	1044.46
987.904	931.83
988.074	579.58
988.244	919.54
988.414	829.43
988.585	520.18
988.755	649.21
988.925	774.13
989.095	1239.02
989.265	514.04
989.435	618.49
989.605	1040.37
989.775	976.88
989.945	792.56
990.115	522.23
990.285	892.91
990.455	921.59
990.625	555
990.795	528.38
990.965	1140.72
991.134	622.58
991.304	530.42
991.474	509.94
991.644	886.77
991.814	1150.96
991.984	462.84
992.153	421.88
992.323	770.04
992.493	786.42
992.662	368.63
992.832	757.75
993.002	923.63
993.171	911.35
993.341	401.4
993.511	688.12
993.68	745.46
993.85	892.91
994.019	413.69
994.189	380.92
994.358	919.54
994.528	632.82
994.697	192.51
994.867	389.11
995.036	915.44
995.206	620.53
995.375	385.02
995.544	653.3
995.714	784.37
995.883	708.6
996.052	612.34
996.222	282.62
996.391	1284.08
996.56	874.48
996.73	413.69
996.899	419.83
997.068	1073.14
997.237	798.71
997.406	485.37
997.576	335.87
997.745	802.8
997.914	782.32
998.083	243.71
998.252	397.31
998.421	747.51
998.59	538.62
998.759	370.68
998.928	188.41
999.097	1042.42
999.266	712.69
999.435	507.9
999.604	231.42
999.773	1161.2
999.942	647.16
1000.111	292.86
1000.28	247.8
1000.448	491.51
1000.617	514.04
1000.786	575.48
1000.955	264.19
1001.124	638.97
1001.292	1415.15
1001.461	364.54
1001.63	399.35
1001.798	1099.76
1001.967	987.12
1002.136	141.31
1002.304	292.86
1002.473	739.32
1002.642	796.66
1002.81	419.83
1002.979	321.53
1003.147	802.8
1003.316	1251.31
1003.484	339.96
1003.653	286.72
1003.821	880.63
1003.99	712.69
1004.158	395.26
1004.327	356.35
1004.495	735.22
1004.663	419.83
1004.832	485.37
1005	153.6
1005.168	772.08
1005.337	585.72
1005.505	165.89
1005.673	477.18
1005.842	671.73
1006.01	833.52
1006.178	153.6
1006.346	419.83
1006.514	727.03
1006.683	907.25
1006.851	219.13
1007.019	202.75
1007.187	448.51
1007.355	217.08
1007.523	71.68
1007.691	180.22
1007.859	337.91
1008.027	903.15
1008.195	376.83
1008.363	206.84
1008.531	757.75
1008.699	458.74
1008.867	106.49
1009.035	268.28
1009.203	892.91
1009.37	620.53
1009.538	243.71
1009.706	710.65
1009.874	649.21
1010.042	542.71
1010.209	141.31
1010.377	161.79
1010.545	745.46
1010.713	598.01
1010.88	202.75
1011.048	321.53
1011.216	550.9
1011.383	970.74
1011.551	194.56
1011.718	172.03
1011.886	823.28
1012.054	628.73
1012.221	159.74
1012.389	184.32
1012.556	524.28
1012.724	1062.9
1012.891	348.15
1013.058	67.58
1013.226	776.18
1013.393	743.41
1013.561	124.93
1013.728	67.58
1013.895	813.04
1014.063	690.17
1014.23	75.77
1014.397	225.28
1014.565	729.08
1014.732	497.66
1014.899	196.61
1015.066	75.77
1015.233	567.29
1015.401	770.04
1015.568	239.61
1015.735	282.62
1015.902	628.73
1016.069	604.15
1016.236	278.52
1016.403	51.2
1016.57	256
1016.737	716.79
1016.904	229.37
1017.071	106.49
1017.238	405.5
1017.405	667.64
1017.572	194.56
1017.739	446.46
1017.906	665.59
1018.073	718.84
1018.24	112.64
1018.407	206.84
1018.573	755.7
1018.74	387.07
1018.907	315.39
1019.074	124.93
1019.241	731.12
1019.407	538.62
1019.574	122.88
1019.741	-30.72
1019.907	724.98
1020.074	704.5
1020.241	34.82
1020.407	133.12
1020.574	550.9
1020.74	624.63
1020.907	137.21
1021.073	112.64
1021.24	976.88
1021.406	792.56
1021.573	149.5
1021.739	6.14
1021.906	722.93
1022.072	460.79
1022.239	65.53
1022.405	180.22
1022.571	497.66
1022.738	313.34
1022.904	81.92
1023.07	221.18
1023.237	499.7
1023.403	714.74
1023.569	120.83
1023.735	161.79
1023.902	507.9
1024.068	561.14
1024.234	126.97
1024.4	79.87
1024.566	563.19
1024.732	581.62
1024.898	143.36
1025.065	-88.06
1025.231	727.03
1025.397	370.68
1025.563	135.17
1025.729	10.24
1025.895	43.01
1026.061	280.57
1026.227	10.24
1026.392	184.32
1026.558	751.6
1026.724	536.57
1026.89	90.11
1027.056	210.94
1027.222	548.86
1027.388	313.34
1027.553	120.83
1027.719	-20.48
1027.885	892.91
1028.051	567.29
1028.216	-118.78
1028.382	114.69
1028.548	653.3
1028.713	378.87
1028.879	-30.72
1029.045	208.89
1029.21	800.76
1029.376	591.86
1029.541	176.13
1029.707	200.7
1029.873	563.19
1030.038	602.1
1030.204	69.63
1030.369	153.6
1030.534	669.69
1030.7	294.91
1030.865	106.49
1031.031	-83.97
1031.196	614.39
1031.361	520.18
1031.527	12.29
1031.692	-69.63
1031.857	65.53
1032.023	624.63
1032.188	-22.53
1032.353	26.62
1032.518	804.85
1032.684	546.81
1032.849	-81.92
1033.014	83.97
1033.179	575.48
1033.344	511.99
1033.509	94.21
1033.674	155.65
1033.839	587.77
1034.004	622.58
1034.17	26.62
1034.335	-53.25
1034.5	299
1034.664	288.76
1034.829	20.48
1034.994	59.39
1035.159	471.03
1035.324	563.19
1035.489	53.25
1035.654	6.14
1035.819	772.08
1035.984	389.11
1036.148	106.49
1036.313	59.39
1036.478	671.73
1036.643	419.83
1036.807	55.3
1036.972	-40.96
1037.137	827.38
1037.301	471.03
1037.466	-147.45
1037.631	83.97
1037.795	665.59
1037.96	313.34
1038.124	178.17
1038.289	14.34
1038.454	532.47
1038.618	526.33
1038.783	86.01
1038.947	43.01
1039.111	444.41
1039.276	249.85
1039.44	-53.25
1039.605	485.37
1039.769	282.62
1039.933	362.49
1040.098	102.4
1040.262	301.05
1040.426	651.25
1040.591	569.34
1040.755	-6.14
1040.919	6.14
1041.083	501.75
1041.248	305.15
1041.412	-163.84
1041.576	53.25
1041.74	382.97
1041.904	606.2
1042.068	-133.12
1042.232	51.2
1042.397	604.15
1042.561	493.56
1042.725	-159.74
1042.889	163.84
1043.053	546.81
1043.217	454.65
1043.381	141.31
1043.544	-133.12
1043.708	606.2
1043.872	165.89
1044.036	-221.18
1044.2	-169.98
1044.364	729.08
1044.528	706.55
1044.691	3254.22
1044.855	-153.6
1045.019	641.01
1045.183	616.44
1045.346	65.53
1045.51	-49.15
1045.674	511.99
1045.837	460.79
1046.001	12.29
1046.165	-30.72
1046.328	894.96
1046.492	589.81
1046.655	110.59
1046.819	126.97
1046.983	210.94
1047.146	477.18
1047.31	45.06
1047.473	-147.45
1047.636	346.11
1047.8	135.17
1047.963	75.77
1048.127	-94.21
1048.29	231.42
