Data from Ink_Intensity_USB4F045381__39__00039.txt Node

Date: Mon Jul 17 09:53:14 EDT 2023
User: mmckonesweet
Spectrometer: USB4F04538
Trigger mode: 4
Integration Time (sec): 9.000000E-1
Scans to average: 1
Electric dark correction enabled: true
Nonlinearity correction enabled: false
Boxcar width: 0
XAxis mode: Wavelengths
Number of Pixels in Spectrum: 3648
>>>>>Begin Spectral Data<<<<<
345.52	-939.34
345.736	-939.34
345.952	-939.34
346.168	-998.73
346.384	-920.9
346.6	-150.87
346.816	-247.12
347.032	-130.39
347.248	330.41
347.464	-265.55
347.68	-118.1
347.896	80.55
348.112	346.79
348.328	-81.24
348.544	-50.52
348.76	-7.51
348.975	293.54
349.191	-251.22
349.407	-187.73
349.623	-58.71
349.839	-116.05
350.055	-126.29
350.27	-15.7
350.486	156.33
350.702	320.17
350.918	158.38
351.133	-220.5
351.349	74.41
351.565	281.25
351.781	-97.62
351.996	-52.56
352.212	326.31
352.428	-161.11
352.644	-159.06
352.859	-222.55
353.075	309.93
353.291	-68.95
353.506	-181.59
353.722	-277.84
353.938	-105.81
354.153	438.95
354.369	23.21
354.584	-243.03
354.8	185
355.016	-294.22
355.231	-257.36
355.447	-66.9
355.662	78.51
355.878	869.02
356.093	-365.9
356.309	-111.96
356.524	-208.21
356.74	217.77
356.955	-187.73
357.171	-101.72
357.386	217.77
357.602	-265.55
357.817	-144.72
358.033	-138.58
358.248	307.88
358.464	37.55
358.679	-189.78
358.895	-234.83
359.11	-58.71
359.325	293.54
359.541	242.34
359.756	33.45
359.972	-312.66
360.187	127.66
360.402	-249.17
360.618	-214.35
360.833	899.74
361.048	123.56
361.264	-193.87
361.479	-73.04
361.694	-138.58
361.909	205.48
362.125	-99.67
362.34	-107.86
362.555	127.66
362.77	-48.47
362.986	-281.94
363.201	-187.73
363.416	115.37
363.631	-54.61
363.847	-169.3
364.062	-140.63
364.277	162.47
364.492	72.36
364.707	-130.39
364.922	-331.09
365.138	225.96
365.353	322.21
365.568	-277.84
365.783	-159.06
365.998	62.12
366.213	527.01
366.428	-302.42
366.643	68.27
366.858	295.59
367.073	205.48
367.288	-120.15
367.503	-257.36
367.718	49.83
367.933	277.16
368.148	-304.46
368.363	-126.29
368.578	19.11
368.793	369.32
369.008	-202.07
369.223	-257.36
369.438	170.66
369.653	383.65
369.868	-206.16
370.083	-261.46
370.298	68.27
370.513	404.13
370.728	-1.37
370.943	-144.72
371.157	-144.72
371.372	512.67
371.587	-269.65
371.802	-236.88
372.017	10.92
372.232	410.28
372.446	-1.37
372.661	-304.46
372.876	174.76
373.091	80.55
373.306	-114
373.52	-234.83
373.735	-136.53
373.95	377.51
374.165	-95.57
374.379	-173.39
374.594	-187.73
374.809	107.18
375.023	-52.56
375.238	-249.17
375.453	223.91
375.667	-271.7
375.882	-107.86
376.097	-161.11
376.311	35.5
376.526	-40.28
376.741	-157.01
376.955	90.79
377.17	461.48
377.384	496.29
377.599	-195.92
377.813	-253.27
378.028	527.01
378.242	166.57
378.457	-173.39
378.672	-339.28
378.886	115.37
379.101	12.97
379.315	-324.94
379.53	-120.15
379.744	156.33
379.958	209.58
380.173	-185.68
380.387	-181.59
380.602	113.32
380.816	-187.73
381.031	-109.91
381.245	-191.83
381.459	193.19
381.674	2566.79
381.888	-230.74
382.103	10.92
382.317	-214.35
382.531	434.85
382.746	-105.81
382.96	-189.78
383.174	-138.58
383.388	418.47
383.603	19.11
383.817	-206.16
384.031	195.24
384.246	527.01
384.46	-19.8
384.674	221.86
384.888	-1.37
385.103	31.4
385.317	-286.03
385.531	-34.13
385.745	303.78
385.959	219.82
386.174	-279.89
386.388	-249.17
386.602	29.35
386.816	-118.1
387.03	-5.46
387.244	-66.9
387.458	47.79
387.672	314.02
387.887	-243.03
388.101	-324.94
388.315	250.53
388.529	117.42
388.743	-136.53
388.957	-220.5
389.171	221.86
389.385	-189.78
389.599	-77.14
389.813	45.74
390.027	146.09
390.241	666.27
390.455	-91.48
390.669	-107.86
390.883	-144.72
391.097	377.51
391.311	37.55
391.525	-220.5
391.738	144.04
391.952	180.9
392.166	-42.32
392.38	-202.07
392.594	201.38
392.808	346.79
393.022	-142.68
393.236	-134.48
393.449	152.23
393.663	107.18
393.877	-286.03
394.091	-71
394.305	-111.96
394.518	-118.1
394.732	-331.09
394.946	-173.39
395.16	346.79
395.373	78.51
395.587	-220.5
395.801	-245.07
396.015	86.7
396.228	92.84
396.442	-216.4
396.656	-339.28
396.869	291.49
397.083	438.95
397.297	-68.95
397.51	-116.05
397.724	402.08
397.938	29.35
398.151	-312.66
398.365	-271.7
398.578	193.19
398.792	418.47
399.005	-27.99
399.219	-73.04
399.433	66.22
399.646	123.56
399.86	0.68
400.073	-40.28
400.287	211.62
400.5	-152.91
400.714	-21.85
400.927	-114
401.141	170.66
401.354	969.37
401.567	236.2
401.781	-200.02
401.994	266.92
402.208	596.64
402.421	-144.72
402.635	-73.04
402.848	29.35
403.061	209.58
403.275	-46.42
403.488	-277.84
403.701	498.34
403.915	201.38
404.128	109.22
404.341	-161.11
404.555	131.75
404.768	2.73
404.981	66.22
405.195	-173.39
405.408	473.76
405.621	191.14
405.834	35.5
406.048	-249.17
406.261	354.98
406.474	428.71
406.687	-288.08
406.9	-19.8
407.114	33.45
407.327	72.36
407.54	-281.94
407.753	-259.41
407.966	-183.63
408.179	133.8
408.392	-202.07
408.605	-281.94
408.819	92.84
409.032	72.36
409.245	-226.64
409.458	-15.7
409.671	213.67
409.884	168.62
410.097	-290.13
410.31	2.73
410.523	187.05
410.736	-87.38
410.949	-48.47
411.162	-122.2
411.375	387.75
411.588	348.84
411.801	8.87
412.014	-212.31
412.227	-21.85
412.44	-42.32
412.653	-138.58
412.865	-25.94
413.078	187.05
413.291	199.34
413.504	-83.28
413.717	-202.07
413.93	213.67
414.143	-206.16
414.356	-122.2
414.568	-263.51
414.781	320.17
414.994	103.08
415.207	-23.89
415.42	-77.14
415.632	197.29
415.845	395.94
416.058	-378.19
416.271	-333.14
416.483	-38.23
416.696	402.08
416.909	-212.31
417.121	-232.79
417.334	90.79
417.547	412.32
417.759	-157.01
417.972	-222.55
418.185	-103.76
418.397	219.82
418.61	-159.06
418.823	-214.35
419.035	377.51
419.248	-87.38
419.46	-154.96
419.673	-58.71
419.885	148.14
420.098	-9.56
420.311	-101.72
420.523	-367.95
420.736	174.76
420.948	-38.23
421.161	-134.48
421.373	-410.96
421.586	68.27
421.798	-111.96
422.01	-345.42
422.223	-68.95
422.435	-58.71
422.648	205.48
422.86	-181.59
423.073	-185.68
423.285	305.83
423.497	-216.4
423.71	-216.4
423.922	-304.46
424.134	150.18
424.347	338.6
424.559	15.02
424.771	105.13
424.984	-124.24
425.196	12.97
425.408	-312.66
425.621	-238.93
425.833	240.3
426.045	303.78
426.257	-236.88
426.47	-197.97
426.682	164.52
426.894	127.66
427.106	-185.68
427.318	-126.29
427.531	-62.8
427.743	215.72
427.955	-245.07
428.167	338.6
428.379	182.95
428.591	25.26
428.804	-107.86
429.016	-306.51
429.228	-48.47
429.44	88.75
429.652	29.35
429.864	-347.47
430.076	-81.24
430.288	-124.24
430.5	-114
430.712	-120.15
430.924	238.25
431.136	37.55
431.348	-380.24
431.56	-181.59
431.772	-9.56
431.984	-152.91
432.196	-259.41
432.408	-157.01
432.62	-46.42
432.832	41.64
433.044	49.83
433.256	-93.52
433.468	174.76
433.679	-343.38
433.891	-247.12
434.103	53.93
434.315	256.68
434.527	248.49
434.739	-91.48
434.95	-181.59
435.162	254.63
435.374	-165.2
435.586	-68.95
435.798	-228.69
436.009	-243.03
436.221	6.83
436.433	-181.59
436.645	-118.1
436.856	-101.72
437.068	258.73
437.28	-263.51
437.491	109.22
437.703	193.19
437.915	74.41
438.126	-159.06
438.338	109.22
438.55	31.4
438.761	168.62
438.973	-140.63
439.184	-202.07
439.396	39.59
439.608	146.09
439.819	-294.22
440.031	-81.24
440.242	158.38
440.454	228.01
440.665	-185.68
440.877	-73.04
441.088	27.31
441.3	-91.48
441.511	-294.22
441.723	-249.17
441.934	225.96
442.146	127.66
442.357	-111.96
442.569	158.38
442.78	64.17
442.991	420.52
443.203	98.99
443.414	-304.46
443.626	309.93
443.837	-169.3
444.048	-279.89
444.26	-341.33
444.471	55.98
444.682	238.25
444.894	-316.75
445.105	-363.86
445.316	199.34
445.528	131.75
445.739	-157.01
445.95	-169.3
446.161	133.8
446.373	277.16
446.584	-173.39
446.795	-185.68
447.006	88.75
447.217	389.8
447.429	-404.82
447.64	-245.07
447.851	223.91
448.062	49.83
448.273	-378.19
448.484	-251.22
448.695	131.75
448.907	-128.34
449.118	-138.58
449.329	-17.75
449.54	-128.34
449.751	-306.51
449.962	-191.83
450.173	-224.59
450.384	256.68
450.595	293.54
450.806	-212.31
451.017	-120.15
451.228	318.12
451.439	170.66
451.65	-128.34
451.861	-372.05
452.072	-220.5
452.283	-52.56
452.494	39.59
452.705	-220.5
452.915	367.27
453.126	72.36
453.337	-259.41
453.548	-288.08
453.759	262.82
453.97	527.01
454.181	-19.8
454.391	-183.63
454.602	29.35
454.813	133.8
455.024	-103.76
455.235	-210.26
455.445	78.51
455.656	96.94
455.867	-62.8
456.078	-206.16
456.288	-105.81
456.499	131.75
456.71	-283.99
456.921	6.83
457.131	84.65
457.342	66.22
457.553	-146.77
457.763	-212.31
457.974	125.61
458.184	197.29
458.395	-283.99
458.606	-378.19
458.816	236.2
459.027	481.96
459.237	-118.1
459.448	-476.49
459.659	334.5
459.869	404.13
460.08	-398.67
460.29	-111.96
460.501	395.94
460.711	-83.28
460.922	-253.27
461.132	-257.36
461.343	664.22
461.553	-277.84
461.764	-218.45
461.974	-279.89
462.184	180.9
462.395	176.81
462.605	-200.02
462.816	-259.41
463.026	64.17
463.236	238.25
463.447	-234.83
463.657	-232.79
463.867	150.18
464.078	-163.15
464.288	-165.2
464.498	-345.42
464.709	80.55
464.919	-64.85
465.129	-218.45
465.339	-245.07
465.55	182.95
465.76	258.73
465.97	-179.54
466.18	-197.97
466.391	228.01
466.601	105.13
466.811	-126.29
467.021	-249.17
467.231	109.22
467.441	268.97
467.651	-126.29
467.862	-423.25
468.072	-25.94
468.282	340.65
468.492	-243.03
468.702	-177.49
468.912	19.11
469.122	518.82
469.332	72.36
469.542	-238.93
469.752	76.46
469.962	60.07
470.172	-300.37
470.382	-281.94
470.592	133.8
470.802	293.54
471.012	-19.8
471.222	-273.75
471.432	281.25
471.642	78.51
471.852	-111.96
472.062	-318.8
472.272	-5.46
472.482	-224.59
472.691	-288.08
472.901	-292.18
473.111	64.17
473.321	555.68
473.531	-335.18
473.741	-146.77
473.95	146.09
474.16	127.66
474.37	-154.96
474.58	-335.18
474.79	393.89
474.999	137.9
475.209	-265.55
475.419	-224.59
475.628	-126.29
475.838	250.53
476.048	-152.91
476.258	-357.71
476.467	295.59
476.677	-148.82
476.886	-73.04
477.096	-62.8
477.306	-144.72
477.515	346.79
477.725	-165.2
477.935	-93.52
478.144	389.8
478.354	-193.87
478.563	-259.41
478.773	-326.99
478.982	170.66
479.192	277.16
479.401	-103.76
479.611	-275.79
479.82	-152.91
480.03	66.22
480.239	-267.6
480.449	-281.94
480.658	350.89
480.868	-165.2
481.077	-171.35
481.287	-218.45
481.496	64.17
481.705	332.45
481.915	10.92
482.124	19.11
482.333	21.16
482.543	291.49
482.752	-165.2
482.961	-261.46
483.171	109.22
483.38	-54.61
483.589	-197.97
483.799	-255.31
484.008	10.92
484.217	240.3
484.426	-224.59
484.636	-230.74
484.845	105.13
485.054	-236.88
485.263	23.21
485.472	-111.96
485.682	449.19
485.891	96.94
486.1	-292.18
486.309	-175.44
486.518	82.6
486.727	264.87
486.936	-320.85
487.146	-230.74
487.355	295.59
487.564	-152.91
487.773	-210.26
487.982	-210.26
488.191	-91.48
488.4	47.79
488.609	-183.63
488.818	-195.92
489.027	590.5
489.236	373.41
489.445	-167.25
489.654	-294.22
489.863	182.95
490.072	-3.41
490.281	80.55
490.49	-245.07
490.698	455.33
490.907	359.08
491.116	-148.82
491.325	-406.86
491.534	383.65
491.743	60.07
491.952	-177.49
492.16	-179.54
492.369	98.99
492.578	250.53
492.787	-185.68
492.996	-279.89
493.204	-25.94
493.413	455.33
493.622	-423.25
493.831	-349.52
494.039	266.92
494.248	-216.4
494.457	-275.79
494.665	-361.81
494.874	58.03
495.083	400.04
495.291	-118.1
495.5	-257.36
495.709	201.38
495.917	148.14
496.126	-132.44
496.335	-202.07
496.543	-126.29
496.752	82.6
496.96	-50.52
497.169	-378.19
497.377	-1.37
497.586	271.01
497.794	-21.85
498.003	-447.82
498.211	-91.48
498.42	379.56
498.628	-130.39
498.837	-326.99
499.045	43.69
499.254	64.17
499.462	-296.27
499.671	-214.35
499.879	479.91
500.087	199.34
500.296	-286.03
500.504	-157.01
500.713	64.17
500.921	502.43
501.129	-339.28
501.338	-161.11
501.546	103.08
501.754	117.42
501.962	-281.94
502.171	-304.46
502.379	78.51
502.587	473.76
502.795	-197.97
503.004	-130.39
503.212	31.4
503.42	293.54
503.628	-154.96
503.837	-99.67
504.045	189.1
504.253	391.84
504.461	-320.85
504.669	-427.34
504.877	137.9
505.085	361.13
505.294	-398.67
505.502	-5.46
505.71	23.21
505.918	248.49
506.126	-275.79
506.334	-263.51
506.542	-66.9
506.75	-11.61
506.958	-146.77
507.166	-187.73
507.374	-126.29
507.582	352.93
507.79	-136.53
507.998	-275.79
508.206	182.95
508.414	109.22
508.622	-238.93
508.83	-210.26
509.037	342.69
509.245	31.4
509.453	-294.22
509.661	-357.71
509.869	66.22
510.077	-25.94
510.285	-85.33
510.492	-525.65
510.7	576.16
510.908	-50.52
511.116	-146.77
511.324	-279.89
511.531	-32.08
511.739	80.55
511.947	-118.1
512.155	76.46
512.362	78.51
512.57	-243.03
512.778	-261.46
512.985	-417.1
513.193	340.65
513.401	291.49
513.608	-218.45
513.816	-243.03
514.024	82.6
514.231	316.07
514.439	-245.07
514.646	-222.55
514.854	264.87
515.061	289.45
515.269	-279.89
515.477	-204.11
515.684	-204.11
515.892	291.49
516.099	-337.23
516.307	-380.24
516.514	195.24
516.722	318.12
516.929	-232.79
517.136	-335.18
517.344	340.65
517.551	68.27
517.759	-224.59
517.966	-167.25
518.173	-132.44
518.381	-1.37
518.588	-128.34
518.796	-288.08
519.003	203.43
519.21	23.21
519.418	-236.88
519.625	25.26
519.832	-3.41
520.039	115.37
520.247	-390.48
520.454	-339.28
520.661	230.06
520.868	109.22
521.076	-130.39
521.283	-173.39
521.49	555.68
521.697	150.18
521.904	-64.85
522.112	-200.02
522.319	144.04
522.526	53.93
522.733	-245.07
522.94	-275.79
523.147	51.88
523.354	236.2
523.561	-372.05
523.768	-79.19
523.975	199.34
524.183	76.46
524.39	-202.07
524.597	-331.09
524.804	6.83
525.011	-197.97
525.218	-251.22
525.425	-220.5
525.632	330.41
525.838	-152.91
526.045	-232.79
526.252	-245.07
526.459	1077.91
526.666	699.04
526.873	-253.27
527.08	-271.7
527.287	344.74
527.494	189.1
527.701	-335.18
527.907	-298.32
528.114	174.76
528.321	-15.7
528.528	-148.82
528.735	-193.87
528.941	-75.09
529.148	-30.04
529.355	-138.58
529.562	-304.46
529.768	453.28
529.975	10.92
530.182	-144.72
530.388	-255.31
530.595	244.39
530.802	-189.78
531.008	-52.56
531.215	-189.78
531.422	748.19
531.628	737.95
531.835	-126.29
532.042	-167.25
532.248	-99.67
532.455	115.37
532.661	-226.64
532.868	-245.07
533.074	92.84
533.281	260.77
533.487	-183.63
533.694	-322.9
533.9	-111.96
534.107	162.47
534.313	-224.59
534.52	-310.61
534.726	219.82
534.933	467.62
535.139	-329.04
535.345	-314.7
535.552	90.79
535.758	2.73
535.965	-150.87
536.171	-218.45
536.377	90.79
536.584	436.9
536.79	-230.74
536.996	-173.39
537.203	139.94
537.409	96.94
537.615	-177.49
537.821	-109.91
538.028	88.75
538.234	174.76
538.44	-216.4
538.646	-97.62
538.853	225.96
539.059	-91.48
539.265	228.01
539.471	-453.97
539.677	268.97
539.883	-30.04
540.09	-267.6
540.296	121.51
540.502	15.02
540.708	-157.01
540.914	-124.24
541.12	-183.63
541.326	223.91
541.532	-58.71
541.738	-146.77
541.944	-130.39
542.15	248.49
542.356	-21.85
542.562	-240.98
542.768	-132.44
542.974	705.18
543.18	541.35
543.386	-234.83
543.592	-390.48
543.798	303.78
544.004	283.3
544.21	-253.27
544.415	-177.49
544.621	86.7
544.827	285.35
545.033	-304.46
545.239	6.83
545.445	-185.68
545.651	137.9
545.856	-304.46
546.062	-296.27
546.268	-81.24
546.474	49.83
546.679	-146.77
546.885	-167.25
547.091	-109.91
547.297	514.72
547.502	-111.96
547.708	-279.89
547.914	-101.72
548.119	225.96
548.325	-345.42
548.531	-230.74
548.736	385.7
548.942	-195.92
549.147	-214.35
549.353	15.02
549.559	277.16
549.764	82.6
549.97	-206.16
550.175	-224.59
550.381	209.58
550.586	-144.72
550.792	-116.05
550.997	-169.3
551.203	51.88
551.408	166.57
551.614	-314.7
551.819	-243.03
552.025	426.66
552.23	551.59
552.435	-259.41
552.641	-71
552.846	-144.72
553.052	307.88
553.257	15.02
553.462	-218.45
553.668	-136.53
553.873	238.25
554.078	-283.99
554.283	-267.6
554.489	98.99
554.694	68.27
554.899	-228.69
555.105	29.35
555.31	213.67
555.515	228.01
555.72	-95.57
555.925	-273.75
556.131	254.63
556.336	-101.72
556.541	-169.3
556.746	-326.99
556.951	363.17
557.156	469.67
557.361	-46.42
557.567	-79.19
557.772	649.89
557.977	170.66
558.182	-165.2
558.387	-185.68
558.592	31.4
558.797	385.7
559.002	-89.43
559.207	-66.9
559.412	76.46
559.617	516.77
559.822	-181.59
560.027	-236.88
560.232	168.62
560.437	248.49
560.642	-275.79
560.847	-212.31
561.051	117.42
561.256	101.03
561.461	-93.52
561.666	-279.89
561.871	123.56
562.076	260.77
562.281	-118.1
562.485	-304.46
562.69	244.39
562.895	215.72
563.1	-206.16
563.305	-253.27
563.509	432.8
563.714	586.4
563.919	-302.42
564.123	-157.01
564.328	-1.37
564.533	379.56
564.737	-56.66
564.942	-142.68
565.147	445.09
565.351	594.59
565.556	-54.61
565.761	23.21
565.965	135.85
566.17	-122.2
566.374	-124.24
566.579	-316.75
566.784	197.29
566.988	-13.65
567.193	-322.9
567.397	-222.55
567.602	-159.06
567.806	17.07
568.011	-226.64
568.215	-120.15
568.42	-32.08
568.624	17.07
568.828	-193.87
569.033	-48.47
569.237	133.8
569.442	103.08
569.646	-288.08
569.85	-105.81
570.055	-7.51
570.259	228.01
570.463	-5.46
570.668	-109.91
570.872	49.83
571.076	29.35
571.281	-103.76
571.485	-128.34
571.689	39.59
571.893	215.72
572.098	19.11
572.302	-118.1
572.506	189.1
572.71	156.33
572.914	-177.49
573.119	-175.44
573.323	434.85
573.527	408.23
573.731	-206.16
573.935	-218.45
574.139	66.22
574.343	-187.73
574.547	-204.11
574.751	-134.48
574.955	391.84
575.159	402.08
575.364	-169.3
575.568	-243.03
575.772	96.94
575.976	397.99
576.18	-197.97
576.383	-316.75
576.587	430.76
576.791	223.91
576.995	-331.09
577.199	-365.9
577.403	350.89
577.607	406.18
577.811	-314.7
578.015	-34.13
578.219	170.66
578.422	332.45
578.626	-124.24
578.83	58.03
579.034	344.74
579.238	101.03
579.442	-200.02
579.645	180.9
579.849	-9.56
580.053	156.33
580.257	-116.05
580.46	-120.15
580.664	234.15
580.868	193.19
581.071	37.55
581.275	64.17
581.479	-247.12
581.682	219.82
581.886	-222.55
582.09	10.92
582.293	367.27
582.497	252.58
582.7	51.88
582.904	-193.87
583.107	90.79
583.311	35.5
583.515	-71
583.718	-30.04
583.922	150.18
584.125	531.11
584.329	-202.07
584.532	-64.85
584.735	377.51
584.939	215.72
585.142	-222.55
585.346	-259.41
585.549	240.3
585.753	-75.09
585.956	-185.68
586.159	-48.47
586.363	481.96
586.566	176.81
586.769	-206.16
586.973	-275.79
587.176	318.12
587.379	350.89
587.582	125.61
587.786	152.23
587.989	96.94
588.192	606.88
588.395	10.92
588.599	189.1
588.802	172.71
589.005	293.54
589.208	-83.28
589.411	-87.38
589.615	275.11
589.818	443.04
590.021	64.17
590.224	-66.9
590.427	305.83
590.63	295.59
590.833	-187.73
591.036	-185.68
591.239	8.87
591.442	8.87
591.645	135.85
591.848	-128.34
592.051	217.77
592.254	215.72
592.457	-99.67
592.66	-154.96
592.863	31.4
593.066	193.19
593.269	-42.32
593.472	-27.99
593.675	-103.76
593.878	326.31
594.081	-11.61
594.284	-240.98
594.486	295.59
594.689	162.47
594.892	-19.8
595.095	-128.34
595.298	150.18
595.5	49.83
595.703	23.21
595.906	-64.85
596.109	498.34
596.311	297.64
596.514	-386.38
596.717	-5.46
596.92	387.75
597.122	283.3
597.325	-384.34
597.528	-122.2
597.73	498.34
597.933	117.42
598.136	-226.64
598.338	-466.25
598.541	232.1
598.743	238.25
598.946	-122.2
599.148	-89.43
599.351	309.93
599.554	264.87
599.756	45.74
599.959	-52.56
600.161	305.83
600.363	660.13
600.566	121.51
600.768	-107.86
600.971	539.3
601.173	340.65
601.376	-140.63
601.578	-75.09
601.78	293.54
601.983	641.7
602.185	-187.73
602.388	117.42
602.59	182.95
602.792	29.35
602.995	101.03
603.197	-9.56
603.399	354.98
603.601	164.52
603.804	-23.89
604.006	-138.58
604.208	66.22
604.41	-249.17
604.613	158.38
604.815	-140.63
605.017	641.7
605.219	-13.65
605.421	242.34
605.623	-105.81
605.826	467.62
606.028	461.48
606.23	-79.19
606.432	-75.09
606.634	545.44
606.836	459.43
607.038	-222.55
607.24	88.75
607.442	172.71
607.644	111.27
607.846	51.88
608.048	-97.62
608.25	324.26
608.452	35.5
608.654	-48.47
608.856	-273.75
609.058	109.22
609.26	291.49
609.462	92.84
609.664	-27.99
609.866	576.16
610.067	295.59
610.269	115.37
610.471	-60.76
610.673	119.46
610.875	336.55
611.077	-218.45
611.278	51.88
611.48	162.47
611.682	615.07
611.884	74.41
612.085	-52.56
612.287	8.87
612.489	205.48
612.69	-234.83
612.892	88.75
613.094	324.26
613.295	264.87
613.497	-189.78
613.699	-32.08
613.9	567.97
614.102	344.74
614.304	27.31
614.505	-286.03
614.707	119.46
614.908	139.94
615.11	-183.63
615.311	27.31
615.513	379.56
615.714	277.16
615.916	-71
616.117	27.31
616.319	60.07
616.52	332.45
616.722	-25.94
616.923	6.83
617.124	430.76
617.326	363.17
617.527	146.09
617.729	193.19
617.93	246.44
618.131	352.93
618.333	-30.04
618.534	68.27
618.735	-19.8
618.937	486.05
619.138	-226.64
619.339	-152.91
619.54	266.92
619.742	72.36
619.943	96.94
620.144	-13.65
620.345	443.04
620.546	432.8
620.748	-101.72
620.949	-126.29
621.15	221.86
621.351	250.53
621.552	-15.7
621.753	-243.03
621.954	-52.56
622.155	690.85
622.356	-114
622.558	64.17
622.759	232.1
622.96	670.37
623.161	27.31
623.362	58.03
623.563	139.94
623.764	217.77
623.965	39.59
624.166	154.28
624.366	117.42
624.567	221.86
624.768	-343.38
624.969	-71
625.17	133.8
625.371	381.6
625.572	27.31
625.773	-128.34
625.973	436.9
626.174	338.6
626.375	105.13
626.576	43.69
626.777	348.84
626.977	817.82
627.178	-34.13
627.379	78.51
627.58	211.62
627.78	248.49
627.981	27.31
628.182	121.51
628.382	527.01
628.583	-66.9
628.784	-224.59
628.984	150.18
629.185	465.57
629.386	361.13
629.586	55.98
629.787	-150.87
629.987	449.19
630.188	277.16
630.388	55.98
630.589	88.75
630.79	744.1
630.99	156.33
631.191	10.92
631.391	64.17
631.591	354.98
631.792	660.13
631.992	66.22
632.193	-30.04
632.393	703.14
632.594	172.71
632.794	0.68
632.994	49.83
633.195	197.29
633.395	262.82
633.595	-77.14
633.796	238.25
633.996	78.51
634.196	510.63
634.397	-218.45
634.597	43.69
634.797	111.27
634.997	563.87
635.198	228.01
635.398	-48.47
635.598	285.35
635.798	514.72
635.998	445.09
636.199	-46.42
636.399	166.57
636.599	103.08
636.799	8.87
636.999	221.86
637.199	363.17
637.399	365.22
637.599	2.73
637.799	113.32
637.999	107.18
638.199	608.93
638.399	17.07
638.599	23.21
638.799	277.16
638.999	764.57
639.199	195.24
639.399	66.22
639.599	602.79
639.799	27.31
639.999	2.73
640.199	-81.24
640.399	248.49
640.599	326.31
640.799	162.47
640.998	154.28
641.198	473.76
641.398	432.8
641.598	213.67
641.798	55.98
641.997	1149.59
642.197	232.1
642.397	131.75
642.597	107.18
642.796	346.79
642.996	805.53
643.196	254.63
643.395	-75.09
643.595	445.09
643.795	-146.77
643.994	4.78
644.194	31.4
644.394	383.65
644.593	256.68
644.793	-122.2
644.992	158.38
645.192	369.32
645.392	-73.04
645.591	105.13
645.791	113.32
645.99	479.91
646.19	197.29
646.389	107.18
646.589	64.17
646.788	459.43
646.987	346.79
647.187	262.82
647.386	228.01
647.586	228.01
647.785	531.11
647.984	135.85
648.184	53.93
648.383	193.19
648.582	252.58
648.782	152.23
648.981	228.01
649.18	41.64
649.38	369.32
649.579	-15.7
649.778	-44.37
649.977	369.32
650.177	375.46
650.376	6.83
650.575	-25.94
650.774	699.04
650.973	33.45
651.173	-79.19
651.372	182.95
651.571	322.21
651.77	508.58
651.969	-25.94
652.168	187.05
652.367	47.79
652.566	262.82
652.765	-17.75
652.964	256.68
653.163	811.68
653.362	273.06
653.561	60.07
653.76	8.87
653.959	225.96
654.158	490.15
654.357	252.58
654.556	27.31
654.755	492.2
654.954	422.56
655.153	84.65
655.352	115.37
655.551	504.48
655.749	27.31
655.948	49.83
656.147	164.52
656.346	457.38
656.545	217.77
656.743	146.09
656.942	232.1
657.141	330.41
657.34	129.7
657.538	144.04
657.737	109.22
657.936	180.9
658.135	461.48
658.333	62.12
658.532	170.66
658.731	701.09
658.929	514.72
659.128	369.32
659.326	35.5
659.525	610.98
659.724	246.44
659.922	-161.11
660.121	76.46
660.319	434.85
660.518	105.13
660.716	19.11
660.915	2.73
661.113	668.32
661.312	-34.13
661.51	293.54
661.709	-40.28
661.907	473.76
662.105	684.7
662.304	55.98
662.502	105.13
662.701	610.98
662.899	262.82
663.097	432.8
663.296	-130.39
663.494	631.46
663.692	717.47
663.891	31.4
664.089	21.16
664.287	279.21
664.485	727.71
664.684	2.73
664.882	176.81
665.08	262.82
665.278	242.34
665.476	-54.61
665.675	410.28
665.873	725.66
666.071	541.35
666.269	68.27
666.467	340.65
666.665	357.03
666.863	307.88
667.061	242.34
667.259	92.84
667.457	295.59
667.655	479.91
667.853	-21.85
668.051	211.62
668.249	66.22
668.447	406.18
668.645	60.07
668.843	305.83
669.041	383.65
669.239	252.58
669.437	215.72
669.635	258.73
669.833	258.73
670.031	465.57
670.229	318.12
670.426	215.72
670.624	230.06
670.822	107.18
671.02	107.18
671.218	203.43
671.415	113.32
671.613	342.69
671.811	279.21
672.009	205.48
672.206	447.14
672.404	324.26
672.602	410.28
672.799	275.11
672.997	359.08
673.195	582.31
673.392	283.3
673.59	-1.37
673.788	539.3
673.985	-46.42
674.183	205.48
674.38	135.85
674.578	514.72
674.775	137.9
674.973	-7.51
675.17	139.94
675.368	725.66
675.565	379.56
675.763	39.59
675.96	12.97
676.158	570.02
676.355	281.25
676.553	117.42
676.75	209.58
676.947	416.42
677.145	314.02
677.342	209.58
677.539	174.76
677.737	387.75
677.934	864.93
678.131	289.45
678.329	162.47
678.526	666.27
678.723	473.76
678.92	264.87
679.118	41.64
679.315	-3.41
679.512	717.47
679.709	92.84
679.906	293.54
680.104	533.15
680.301	303.78
680.498	115.37
680.695	39.59
680.892	170.66
681.089	203.43
681.286	215.72
681.483	49.83
681.68	557.73
681.877	504.48
682.075	203.43
682.272	318.12
682.469	434.85
682.665	232.1
682.862	98.99
683.059	-42.32
683.256	481.96
683.453	395.94
683.65	232.1
683.847	234.15
684.044	406.18
684.241	82.6
684.438	223.91
684.635	70.31
684.831	797.34
685.028	901.79
685.225	121.51
685.422	293.54
685.619	379.56
685.815	430.76
686.012	271.01
686.209	217.77
686.405	125.61
686.602	590.5
686.799	68.27
686.996	45.74
687.192	115.37
687.389	785.05
687.586	117.42
687.782	127.66
687.979	670.37
688.175	604.83
688.372	244.39
688.568	123.56
688.765	260.77
688.962	651.94
689.158	275.11
689.355	-1.37
689.551	496.29
689.748	127.66
689.944	240.3
690.14	84.65
690.337	572.07
690.533	162.47
690.73	295.59
690.926	158.38
691.123	524.96
691.319	289.45
691.515	76.46
691.712	275.11
691.908	522.91
692.104	391.84
692.301	334.5
692.497	58.03
692.693	668.32
692.889	570.02
693.086	348.84
693.282	8.87
693.478	330.41
693.674	770.72
693.87	221.86
694.067	-30.04
694.263	490.15
694.459	289.45
694.655	346.79
694.851	303.78
695.047	502.43
695.243	596.64
695.439	424.61
695.635	148.14
695.831	541.35
696.027	326.31
696.224	148.14
696.42	406.18
696.615	703.14
696.811	465.57
697.007	60.07
697.203	185
697.399	567.97
697.595	752.29
697.791	123.56
697.987	369.32
698.183	166.57
698.379	217.77
698.575	203.43
698.77	203.43
698.966	602.79
699.162	641.7
699.358	197.29
699.554	254.63
699.749	465.57
699.945	555.68
700.141	203.43
700.337	242.34
700.532	332.45
700.728	195.24
700.924	160.42
701.119	39.59
701.315	535.2
701.511	324.26
701.706	316.07
701.902	-9.56
702.097	391.84
702.293	531.11
702.489	352.93
702.684	240.3
702.88	326.31
703.075	289.45
703.271	230.06
703.466	70.31
703.662	457.38
703.857	553.63
704.053	182.95
704.248	164.52
704.443	508.58
704.639	598.69
704.834	213.67
705.03	121.51
705.225	563.87
705.42	692.9
705.616	410.28
705.811	90.79
706.006	211.62
706.202	279.21
706.397	400.04
706.592	76.46
706.787	484
706.983	436.9
707.178	443.04
707.373	266.92
707.568	559.78
707.763	682.66
707.959	109.22
708.154	199.34
708.349	522.91
708.544	500.39
708.739	416.42
708.934	152.23
709.129	539.3
709.324	631.46
709.519	76.46
709.714	170.66
709.909	658.08
710.104	549.54
710.299	178.86
710.494	314.02
710.689	518.82
710.884	404.13
711.079	318.12
711.274	373.41
711.469	576.16
711.664	432.8
711.859	185
712.054	342.69
712.249	694.94
712.443	750.24
712.638	119.46
712.833	187.05
713.028	404.13
713.223	391.84
713.417	449.19
713.612	287.4
713.807	582.31
714.002	993.95
714.196	359.08
714.391	279.21
714.586	588.45
714.78	369.32
714.975	250.53
715.17	191.14
715.364	252.58
715.559	699.04
715.754	-38.23
715.948	164.52
716.143	834.21
716.337	522.91
716.532	510.63
716.726	166.57
716.921	555.68
717.115	909.98
717.31	41.64
717.504	619.17
717.699	273.06
717.893	600.74
718.088	189.1
718.282	84.65
718.476	498.34
718.671	506.53
718.865	223.91
719.059	334.5
719.254	352.93
719.448	711.33
719.642	1485.46
719.837	19.11
720.031	547.49
720.225	696.99
720.419	334.5
720.614	189.1
720.808	662.18
721.002	430.76
721.196	123.56
721.39	150.18
721.585	807.58
721.779	514.72
721.973	215.72
722.167	-77.14
722.361	522.91
722.555	711.33
722.749	211.62
722.943	133.8
723.137	123.56
723.331	510.63
723.525	221.86
723.719	252.58
723.913	520.87
724.107	733.86
724.301	62.12
724.495	273.06
724.689	799.39
724.883	715.42
725.077	207.53
725.271	271.01
725.465	649.89
725.659	469.67
725.853	402.08
726.046	96.94
726.24	268.97
726.434	740
726.628	234.15
726.822	287.4
727.015	727.71
727.209	707.23
727.403	297.64
727.596	72.36
727.79	522.91
727.984	672.42
728.177	248.49
728.371	354.98
728.565	586.4
728.758	174.76
728.952	-9.56
729.146	217.77
729.339	690.85
729.533	318.12
729.726	250.53
729.92	211.62
730.113	778.91
730.307	510.63
730.5	141.99
730.694	262.82
730.887	416.42
731.081	647.84
731.274	131.75
731.468	240.3
731.661	406.18
731.854	316.07
732.048	297.64
732.241	154.28
732.435	309.93
732.628	484
732.821	248.49
733.014	152.23
733.208	115.37
733.401	584.35
733.594	311.97
733.788	260.77
733.981	662.18
734.174	567.97
734.367	256.68
734.56	391.84
734.754	551.59
734.947	393.89
735.14	152.23
735.333	268.97
735.526	606.88
735.719	342.69
735.912	203.43
736.105	154.28
736.298	447.14
736.491	195.24
736.684	201.38
736.877	160.42
737.07	488.1
737.263	737.95
737.456	256.68
737.649	135.85
737.842	250.53
738.035	463.52
738.228	266.92
738.421	342.69
738.614	696.99
738.807	586.4
739	37.55
739.192	148.14
739.385	461.48
739.578	588.45
739.771	481.96
739.964	275.11
740.156	490.15
740.349	393.89
740.542	367.27
740.735	217.77
740.927	98.99
741.12	223.91
741.313	150.18
741.505	281.25
741.698	414.37
741.891	602.79
742.083	354.98
742.276	273.06
742.468	426.66
742.661	387.75
742.854	334.5
743.046	228.01
743.239	805.53
743.431	344.74
743.624	322.21
743.816	121.51
744.009	408.23
744.201	551.59
744.393	522.91
744.586	172.71
744.778	674.46
744.971	379.56
745.163	377.51
745.355	389.8
745.548	512.67
745.74	273.06
745.932	295.59
746.125	254.63
746.317	998.04
746.509	516.77
746.702	191.14
746.894	246.44
747.086	518.82
747.278	608.93
747.471	434.85
747.663	287.4
747.855	477.86
748.047	809.63
748.239	191.14
748.431	148.14
748.623	754.34
748.815	760.48
749.008	158.38
749.2	123.56
749.392	574.11
749.584	623.27
749.776	359.08
749.968	348.84
750.16	846.49
750.352	471.72
750.544	246.44
750.736	197.29
750.928	527.01
751.12	461.48
751.311	350.89
751.503	266.92
751.695	574.11
751.887	436.9
752.079	-11.61
752.271	238.25
752.463	1270.42
752.654	656.03
752.846	266.92
753.038	291.49
753.23	348.84
753.421	660.13
753.613	252.58
753.805	397.99
753.997	649.89
754.188	637.6
754.38	223.91
754.572	285.35
754.763	426.66
754.955	692.9
755.146	322.21
755.338	281.25
755.53	549.54
755.721	430.76
755.913	203.43
756.104	113.32
756.296	354.98
756.487	604.83
756.679	203.43
756.87	309.93
757.062	240.3
757.253	621.22
757.445	240.3
757.636	334.5
757.827	422.56
758.019	1026.71
758.21	185
758.401	217.77
758.593	815.77
758.784	848.54
758.975	146.09
759.167	125.61
759.358	453.28
759.549	723.62
759.74	228.01
759.932	213.67
760.123	733.86
760.314	322.21
760.505	342.69
760.696	232.1
760.888	856.73
761.079	410.28
761.27	187.05
761.461	43.69
761.652	955.04
761.843	400.04
762.034	195.24
762.225	420.52
762.416	486.05
762.607	518.82
762.798	293.54
762.989	203.43
763.18	1233.56
763.371	311.97
763.562	252.58
763.753	365.22
763.944	596.64
764.135	701.09
764.326	369.32
764.517	221.86
764.708	518.82
764.899	574.11
765.089	205.48
765.28	45.74
765.471	588.45
765.662	572.07
765.853	291.49
766.043	117.42
766.234	608.93
766.425	617.12
766.615	246.44
766.806	107.18
766.997	711.33
767.187	445.09
767.378	170.66
767.569	39.59
767.759	553.63
767.95	514.72
768.141	283.3
768.331	236.2
768.522	406.18
768.712	647.84
768.903	117.42
769.093	172.71
769.284	893.6
769.474	445.09
769.665	55.98
769.855	37.55
770.046	590.5
770.236	326.31
770.426	365.22
770.617	96.94
770.807	594.59
770.998	381.6
771.188	283.3
771.378	182.95
771.569	557.73
771.759	584.35
771.949	115.37
772.139	-5.46
772.33	461.48
772.52	735.9
772.71	96.94
772.9	84.65
773.09	807.58
773.281	785.05
773.471	160.42
773.661	191.14
773.851	621.22
774.041	336.55
774.231	137.9
774.421	400.04
774.611	772.77
774.802	457.38
774.992	328.36
775.182	139.94
775.372	451.24
775.562	629.41
775.752	246.44
775.942	203.43
776.131	696.99
776.321	537.25
776.511	293.54
776.701	111.27
776.891	721.57
777.081	168.62
777.271	330.41
777.461	141.99
777.651	602.79
777.84	678.56
778.03	352.93
778.22	189.1
778.41	721.57
778.599	238.25
778.789	244.39
778.979	141.99
779.169	570.02
779.358	453.28
779.548	494.24
779.738	62.12
779.927	502.43
780.117	225.96
780.307	170.66
780.496	-9.56
780.686	541.35
780.875	801.44
781.065	162.47
781.254	189.1
781.444	535.2
781.633	436.9
781.823	146.09
782.012	141.99
782.202	352.93
782.391	443.04
782.581	121.51
782.77	268.97
782.96	613.03
783.149	422.56
783.338	178.86
783.528	43.69
783.717	733.86
783.906	678.56
784.096	436.9
784.285	107.18
784.474	295.59
784.663	299.69
784.853	283.3
785.042	262.82
785.231	219.82
785.42	625.31
785.61	352.93
785.799	117.42
785.988	332.45
786.177	447.14
786.366	242.34
786.555	307.88
786.744	703.14
786.933	436.9
787.122	53.93
787.312	88.75
787.501	338.6
787.69	522.91
787.879	131.75
788.068	90.79
788.257	176.81
788.445	297.64
788.634	271.01
788.823	150.18
789.012	1094.3
789.201	793.25
789.39	281.25
789.579	121.51
789.768	469.67
789.957	518.82
790.145	209.58
790.334	-105.81
790.523	381.6
790.712	285.35
790.9	244.39
791.089	55.98
791.278	592.55
791.467	400.04
791.655	387.75
791.844	617.12
792.033	256.68
792.221	379.56
792.41	281.25
792.599	113.32
792.787	563.87
792.976	576.16
793.164	119.46
793.353	279.21
793.541	602.79
793.73	535.2
793.918	254.63
794.107	148.14
794.295	400.04
794.484	410.28
794.672	268.97
794.861	232.1
795.049	621.22
795.238	817.82
795.426	70.31
795.614	287.4
795.803	406.18
795.991	729.76
796.179	228.01
796.368	201.38
796.556	813.73
796.744	166.57
796.932	125.61
797.121	125.61
797.309	412.32
797.497	660.13
797.685	268.97
797.874	197.29
798.062	354.98
798.25	658.08
798.438	150.18
798.626	185
798.814	602.79
799.002	1061.53
799.19	336.55
799.378	309.93
799.566	606.88
799.755	690.85
799.943	342.69
800.131	187.05
800.318	557.73
800.506	477.86
800.694	199.34
800.882	467.62
801.07	750.24
801.258	346.79
801.446	230.06
801.634	121.51
801.822	438.95
802.01	416.42
802.197	201.38
802.385	338.6
802.573	385.7
802.761	191.14
802.949	277.16
803.136	96.94
803.324	660.13
803.512	412.32
803.699	314.02
803.887	-27.99
804.075	795.29
804.262	377.51
804.45	94.89
804.638	203.43
804.825	244.39
805.013	271.01
805.201	264.87
805.388	207.53
805.576	348.84
805.763	815.77
805.951	213.67
806.138	287.4
806.326	891.55
806.513	553.63
806.701	146.09
806.888	98.99
807.075	416.42
807.263	860.83
807.45	12.97
807.638	311.97
807.825	889.5
808.012	590.5
808.2	219.82
808.387	416.42
808.574	563.87
808.761	803.49
808.949	195.24
809.136	238.25
809.323	371.36
809.51	338.6
809.698	481.96
809.885	391.84
810.072	588.45
810.259	656.03
810.446	256.68
810.633	205.48
810.82	721.57
811.008	809.63
811.195	324.26
811.382	217.77
811.569	457.38
811.756	164.52
811.943	211.62
812.13	281.25
812.317	330.41
812.504	268.97
812.691	268.97
812.878	236.2
813.064	807.58
813.251	418.47
813.438	117.42
813.625	383.65
813.812	455.33
813.999	326.31
814.186	311.97
814.372	271.01
814.559	406.18
814.746	694.94
814.933	217.77
815.12	426.66
815.306	373.41
815.493	203.43
815.68	199.34
815.866	293.54
816.053	733.86
816.24	912.03
816.426	275.11
816.613	166.57
816.799	649.89
816.986	776.86
817.173	121.51
817.359	180.9
817.546	557.73
817.732	152.23
817.919	-48.47
818.105	332.45
818.292	391.84
818.478	510.63
818.665	389.8
818.851	158.38
819.037	959.13
819.224	477.86
819.41	201.38
819.597	248.49
819.783	932.51
819.969	567.97
820.156	369.32
820.342	72.36
820.528	1104.54
820.714	445.09
820.901	522.91
821.087	305.83
821.273	791.2
821.459	438.95
821.646	211.62
821.832	213.67
822.018	416.42
822.204	391.84
822.39	223.91
822.576	111.27
822.762	584.35
822.948	512.67
823.134	324.26
823.32	293.54
823.507	211.62
823.693	412.32
823.879	516.77
824.065	166.57
824.25	481.96
824.436	236.2
824.622	228.01
824.808	115.37
824.994	395.94
825.18	246.44
825.366	152.23
825.552	254.63
825.738	383.65
825.923	613.03
826.109	408.23
826.295	164.52
826.481	262.82
826.667	408.23
826.852	324.26
827.038	201.38
827.224	727.71
827.409	850.59
827.595	133.8
827.781	377.51
827.966	715.42
828.152	637.6
828.338	277.16
828.523	84.65
828.709	279.21
828.894	733.86
829.08	258.73
829.266	277.16
829.451	363.17
829.637	699.04
829.822	293.54
830.008	182.95
830.193	584.35
830.378	742.05
830.564	234.15
830.749	94.89
830.935	629.41
831.12	615.07
831.305	131.75
831.491	391.84
831.676	209.58
831.861	653.98
832.047	230.06
832.232	86.7
832.417	633.51
832.602	453.28
832.788	178.86
832.973	148.14
833.158	404.13
833.343	357.03
833.528	277.16
833.714	330.41
833.899	664.22
834.084	918.17
834.269	371.36
834.454	256.68
834.639	682.66
834.824	406.18
835.009	357.03
835.194	342.69
835.379	670.37
835.564	756.38
835.749	332.45
835.934	113.32
836.119	625.31
836.304	457.38
836.489	195.24
836.674	502.43
836.859	334.5
837.044	719.52
837.228	293.54
837.413	221.86
837.598	553.63
837.783	719.52
837.968	197.29
838.152	45.74
838.337	-3.41
838.522	682.66
838.707	658.08
838.891	465.57
839.076	539.3
839.261	715.42
839.445	234.15
839.63	305.83
839.815	838.3
839.999	451.24
840.184	180.9
840.368	228.01
840.553	647.84
840.737	742.05
840.922	182.95
841.106	152.23
841.291	201.38
841.475	567.97
841.66	182.95
841.844	234.15
842.029	1180.31
842.213	228.01
842.397	279.21
842.582	166.57
842.766	658.08
842.951	658.08
843.135	170.66
843.319	289.45
843.504	535.2
843.688	600.74
843.872	68.27
844.056	217.77
844.241	688.8
844.425	412.32
844.609	449.19
844.793	64.17
844.977	690.85
845.161	420.52
845.346	168.62
845.53	191.14
845.714	420.52
845.898	842.4
846.082	86.7
846.266	221.86
846.45	473.76
846.634	412.32
846.818	166.57
847.002	320.17
847.186	658.08
847.37	225.96
847.554	62.12
847.738	342.69
847.922	516.77
848.106	555.68
848.29	74.41
848.473	180.9
848.657	649.89
848.841	410.28
849.025	340.65
849.209	51.88
849.392	524.96
849.576	363.17
849.76	101.03
849.944	391.84
850.127	793.25
850.311	170.66
850.495	141.99
850.678	2.73
850.862	750.24
851.046	869.02
851.229	447.14
851.413	193.19
851.596	418.47
851.78	465.57
851.964	334.5
852.147	246.44
852.331	1159.83
852.514	656.03
852.698	303.78
852.881	88.75
853.065	701.09
853.248	350.89
853.431	344.74
853.615	307.88
853.798	991.9
853.982	572.07
854.165	377.51
854.348	219.82
854.532	193.19
854.715	275.11
854.898	293.54
855.081	244.39
855.265	821.92
855.448	877.21
855.631	217.77
855.814	254.63
855.997	662.18
856.181	385.7
856.364	262.82
856.547	156.33
856.73	529.06
856.913	531.11
857.096	70.31
857.279	373.41
857.462	385.7
857.645	668.32
857.828	379.56
858.011	389.8
858.194	289.45
858.377	686.75
858.56	111.27
858.743	264.87
858.926	168.62
859.109	596.64
859.292	148.14
859.475	101.03
859.658	674.46
859.841	578.21
860.023	0.68
860.206	180.9
860.389	492.2
860.572	696.99
860.755	240.3
860.937	189.1
861.12	469.67
861.303	445.09
861.486	346.79
861.668	293.54
861.851	553.63
862.034	492.2
862.216	363.17
862.399	31.4
862.581	572.07
862.764	871.07
862.947	289.45
863.129	154.28
863.312	213.67
863.494	787.1
863.677	549.54
863.859	31.4
864.042	668.32
864.224	866.97
864.406	320.17
864.589	74.41
864.771	512.67
864.954	209.58
865.136	125.61
865.318	15.02
865.501	555.68
865.683	58.03
865.865	156.33
866.048	137.9
866.23	490.15
866.412	426.66
866.594	94.89
866.777	303.78
866.959	649.89
867.141	301.73
867.323	463.52
867.505	336.55
867.687	391.84
867.869	449.19
868.052	244.39
868.234	166.57
868.416	500.39
868.598	635.55
868.78	219.82
868.962	80.55
869.144	596.64
869.326	662.18
869.508	246.44
869.69	131.75
869.872	262.82
870.054	688.8
870.236	90.79
870.417	191.14
870.599	322.21
870.781	832.16
870.963	230.06
871.145	228.01
871.327	125.61
871.508	713.38
871.69	174.76
871.872	256.68
872.054	359.08
872.235	580.26
872.417	287.4
872.599	195.24
872.78	715.42
872.962	402.08
873.144	115.37
873.325	228.01
873.507	842.4
873.689	477.86
873.87	31.4
874.052	232.1
874.233	492.2
874.415	651.94
874.596	219.82
874.778	170.66
874.959	400.04
875.141	674.46
875.322	289.45
875.503	139.94
875.685	494.24
875.866	53.93
876.048	45.74
876.229	127.66
876.41	465.57
876.592	484
876.773	162.47
876.954	25.26
877.136	715.42
877.317	363.17
877.498	-7.51
877.679	318.12
877.86	604.83
878.042	432.8
878.223	199.34
878.404	461.48
878.585	567.97
878.766	830.11
878.947	375.46
879.128	303.78
879.309	598.69
879.49	692.9
879.672	318.12
879.853	260.77
880.034	207.53
880.215	320.17
880.396	307.88
880.576	195.24
880.757	174.76
880.938	836.25
881.119	101.03
881.3	150.18
881.481	342.69
881.662	1161.88
881.843	60.07
882.023	45.74
882.204	537.25
882.385	406.18
882.566	180.9
882.747	180.9
882.927	402.08
883.108	465.57
883.289	137.9
883.469	383.65
883.65	326.31
883.831	445.09
884.011	320.17
884.192	197.29
884.373	670.37
884.553	477.86
884.734	484
884.914	410.28
885.095	1096.35
885.275	862.88
885.456	447.14
885.636	-3.41
885.817	330.41
885.997	467.62
886.178	146.09
886.358	252.58
886.538	475.81
886.719	1299.09
886.899	260.77
887.08	271.01
887.26	662.18
887.44	154.28
887.621	187.05
887.801	357.03
887.981	993.95
888.161	658.08
888.342	174.76
888.522	283.3
888.702	662.18
888.882	672.42
889.062	344.74
889.242	-103.76
889.423	748.19
889.603	563.87
889.783	342.69
889.963	279.21
890.143	559.78
890.323	666.27
890.503	225.96
890.683	185
890.863	455.33
891.043	506.53
891.223	420.52
891.403	543.39
891.583	486.05
891.763	527.01
891.943	324.26
892.122	170.66
892.302	443.04
892.482	436.9
892.662	346.79
892.842	385.7
893.022	561.83
893.201	262.82
893.381	457.38
893.561	307.88
893.741	600.74
893.92	651.94
894.1	346.79
894.28	338.6
894.459	752.29
894.639	666.27
894.819	260.77
894.998	383.65
895.178	570.02
895.357	510.63
895.537	207.53
895.716	154.28
895.896	541.35
896.075	731.81
896.255	191.14
896.434	113.32
896.614	643.74
896.793	772.77
896.973	397.99
897.152	357.03
897.331	592.55
897.511	666.27
897.69	55.98
897.87	354.98
898.049	662.18
898.228	514.72
898.407	461.48
898.587	350.89
898.766	342.69
898.945	653.98
899.124	510.63
899.304	387.75
899.483	604.83
899.662	946.84
899.841	320.17
900.02	240.3
900.199	715.42
900.378	574.11
900.557	174.76
900.737	185
900.916	541.35
901.095	740
901.274	508.58
901.453	84.65
901.632	320.17
901.811	393.89
901.989	158.38
902.168	211.62
902.347	602.79
902.526	354.98
902.705	182.95
902.884	391.84
903.063	723.62
903.242	846.49
903.42	135.85
903.599	422.56
903.778	660.13
903.957	844.45
904.135	469.67
904.314	342.69
904.493	610.98
904.672	662.18
904.85	328.36
905.029	322.21
905.207	572.07
905.386	1176.22
905.565	107.18
905.743	314.02
905.922	414.37
906.1	758.43
906.279	170.66
906.457	219.82
906.636	342.69
906.814	361.13
906.993	275.11
907.171	232.1
907.35	615.07
907.528	600.74
907.707	469.67
907.885	207.53
908.063	940.7
908.242	367.27
908.42	164.52
908.598	29.35
908.777	688.8
908.955	391.84
909.133	314.02
909.311	82.6
909.49	451.24
909.668	383.65
909.846	379.56
910.024	2.73
910.202	580.26
910.38	615.07
910.559	84.65
910.737	187.05
910.915	502.43
911.093	512.67
911.271	236.2
911.449	434.85
911.627	680.61
911.805	985.76
911.983	258.73
912.161	207.53
912.339	486.05
912.517	658.08
912.695	408.23
912.872	301.73
913.05	281.25
913.228	531.11
913.406	230.06
913.584	193.19
913.762	723.62
913.939	428.71
914.117	211.62
914.295	12.97
914.473	666.27
914.65	592.55
914.828	195.24
915.006	287.4
915.184	207.53
915.361	639.65
915.539	418.47
915.716	473.76
915.894	608.93
916.072	535.2
916.249	488.1
916.427	494.24
916.604	105.13
916.782	572.07
916.959	123.56
917.137	176.81
917.314	477.86
917.492	567.97
917.669	318.12
917.847	293.54
918.024	504.48
918.201	289.45
918.379	318.12
918.556	266.92
918.733	797.34
918.911	481.96
919.088	324.26
919.265	199.34
919.442	524.96
919.62	443.04
919.797	166.57
919.974	205.48
920.151	541.35
920.328	420.52
920.506	324.26
920.683	350.89
920.86	285.35
921.037	262.82
921.214	387.75
921.391	158.38
921.568	725.66
921.745	207.53
921.922	318.12
922.099	223.91
922.276	727.71
922.453	596.64
922.63	133.8
922.807	508.58
922.984	514.72
923.161	397.99
923.338	250.53
923.514	260.77
923.691	418.47
923.868	580.26
924.045	187.05
924.222	172.71
924.399	455.33
924.575	682.66
924.752	352.93
924.929	311.97
925.105	588.45
925.282	230.06
925.459	234.15
925.635	297.64
925.812	416.42
925.989	264.87
926.165	334.5
926.342	101.03
926.518	252.58
926.695	498.34
926.871	182.95
927.048	158.38
927.224	615.07
927.401	381.6
927.577	256.68
927.754	92.84
927.93	690.85
928.107	617.12
928.283	105.13
928.459	299.69
928.636	484
928.812	375.46
928.988	68.27
929.165	60.07
929.341	326.31
929.517	428.71
929.693	473.76
929.87	-54.61
930.046	580.26
930.222	334.5
930.398	133.8
930.574	316.07
930.751	367.27
930.927	209.58
931.103	209.58
931.279	268.97
931.455	182.95
931.631	484
931.807	29.35
931.983	82.6
932.159	125.61
932.335	475.81
932.511	311.97
932.687	33.45
932.863	471.72
933.039	404.13
933.215	39.59
933.391	74.41
933.566	332.45
933.742	402.08
933.918	197.29
934.094	47.79
934.27	447.14
934.445	375.46
934.621	383.65
934.797	127.66
934.973	615.07
935.148	492.2
935.324	39.59
935.5	-91.48
935.675	625.31
935.851	395.94
936.027	187.05
936.202	172.71
936.378	436.9
936.553	391.84
936.729	500.39
936.904	-7.51
937.08	68.27
937.255	160.42
937.431	51.88
937.606	6.83
937.782	223.91
937.957	264.87
938.133	197.29
938.308	-3.41
938.483	328.36
938.659	123.56
938.834	92.84
939.009	25.26
939.185	219.82
939.36	209.58
939.535	-197.97
939.71	211.62
939.886	522.91
940.061	410.28
940.236	264.87
940.411	86.7
940.586	332.45
940.761	445.09
940.937	62.12
941.112	-30.04
941.287	266.92
941.462	219.82
941.637	-42.32
941.812	10.92
941.987	354.98
942.162	203.43
942.337	160.42
942.512	70.31
942.687	490.15
942.862	494.24
943.037	-40.28
943.212	-210.26
943.386	240.3
943.561	264.87
943.736	213.67
943.911	346.79
944.086	346.79
944.26	324.26
944.435	113.32
944.61	166.57
944.785	580.26
944.959	641.7
945.134	96.94
945.309	-50.52
945.483	182.95
945.658	445.09
945.833	-154.96
946.007	-23.89
946.182	623.27
946.357	6.83
946.531	78.51
946.706	29.35
946.88	-189.78
947.055	279.21
947.229	10.92
947.404	-83.28
947.578	524.96
947.752	221.86
947.927	-150.87
948.101	-116.05
948.276	246.44
948.45	348.84
948.624	141.99
948.799	-54.61
948.973	285.35
949.147	-42.32
949.321	113.32
949.496	72.36
949.67	422.56
949.844	189.1
950.018	31.4
950.193	-30.04
950.367	752.29
950.541	152.23
950.715	113.32
950.889	144.04
951.063	101.03
951.237	486.05
951.411	-283.99
951.585	-212.31
951.759	346.79
951.933	228.01
952.107	-32.08
952.281	209.58
952.455	520.87
952.629	397.99
952.803	-87.38
952.977	-17.75
953.151	410.28
953.325	348.84
953.499	223.91
953.672	-130.39
953.846	-5.46
954.02	86.7
954.194	-150.87
954.368	-75.09
954.541	291.49
954.715	41.64
954.889	96.94
955.062	-103.76
955.236	182.95
955.41	92.84
955.583	98.99
955.757	-173.39
955.93	76.46
956.104	-23.89
956.278	-42.32
956.451	-48.47
956.625	240.3
956.798	666.27
956.972	223.91
957.145	-91.48
957.319	221.86
957.492	105.13
957.665	146.09
957.839	-56.66
958.012	328.36
958.185	60.07
958.359	-25.94
958.532	129.7
958.705	449.19
958.879	260.77
959.052	66.22
959.225	-130.39
959.398	156.33
959.572	311.97
959.745	-97.62
959.918	27.31
960.091	141.99
960.264	334.5
960.438	-7.51
960.611	-116.05
960.784	391.84
960.957	-38.23
961.13	287.4
961.303	-7.51
961.476	125.61
961.649	299.69
961.822	-132.44
961.995	133.8
962.168	287.4
962.341	217.77
962.514	80.55
962.686	-99.67
962.859	293.54
963.032	238.25
963.205	0.68
963.378	-185.68
963.551	279.21
963.723	219.82
963.896	180.9
964.069	82.6
964.242	164.52
964.414	377.51
964.587	55.98
964.76	-5.46
964.932	256.68
965.105	117.42
965.278	-3.41
965.45	-71
965.623	240.3
965.795	318.12
965.968	19.11
966.14	-46.42
966.313	166.57
966.485	209.58
966.658	96.94
966.83	-66.9
967.003	391.84
967.175	359.08
967.348	29.35
967.52	25.26
967.692	397.99
967.865	264.87
968.037	-7.51
968.209	285.35
968.382	98.99
968.554	381.6
968.726	-48.47
968.898	25.26
969.071	318.12
969.243	320.17
969.415	64.17
969.587	35.5
969.759	666.27
969.932	387.75
970.104	72.36
970.276	-208.21
970.448	76.46
970.62	39.59
970.792	37.55
970.964	131.75
971.136	645.79
971.308	330.41
971.48	17.07
971.652	-5.46
971.824	580.26
971.996	31.4
972.168	90.79
972.339	10.92
972.511	473.76
972.683	187.05
972.855	205.48
973.027	-19.8
973.199	182.95
973.37	211.62
973.542	148.14
973.714	146.09
973.886	203.43
974.057	469.67
974.229	-23.89
974.401	-89.43
974.572	0.68
974.744	-200.02
974.915	-105.81
975.087	-66.9
975.259	580.26
975.43	55.98
975.602	-1.37
975.773	-64.85
975.945	-25.94
976.116	334.5
976.288	-169.3
976.459	178.86
976.63	113.32
976.802	330.41
976.973	-66.9
977.145	105.13
977.316	531.11
977.487	529.06
977.659	-3.41
977.83	-19.8
978.001	508.58
978.172	182.95
978.344	-32.08
978.515	-9.56
978.686	21.16
978.857	471.72
979.028	53.93
979.2	-83.28
979.371	512.67
979.542	180.9
979.713	148.14
979.884	-374.1
980.055	21.16
980.226	105.13
980.397	10.92
980.568	-118.1
980.739	412.32
980.91	129.7
981.081	107.18
981.252	-124.24
981.423	318.12
981.594	412.32
981.765	-114
981.936	78.51
982.106	166.57
982.277	451.24
982.448	-81.24
982.619	117.42
982.79	174.76
982.96	434.85
983.131	39.59
983.302	-185.68
983.472	47.79
983.643	305.83
983.814	74.41
983.984	23.21
984.155	68.27
984.326	387.75
984.496	107.18
984.667	-42.32
984.837	-5.46
985.008	539.3
985.178	105.13
985.349	62.12
985.519	197.29
985.69	-52.56
985.86	15.02
986.031	-109.91
986.201	264.87
986.371	373.41
986.542	-118.1
986.712	-210.26
986.882	256.68
987.053	293.54
987.223	-116.05
987.393	43.69
987.563	2.73
987.734	354.98
987.904	350.89
988.074	-99.67
988.244	268.97
988.414	64.17
988.585	-73.04
988.755	80.55
988.925	189.1
989.095	498.34
989.265	-130.39
989.435	64.17
989.605	225.96
989.775	271.01
989.945	228.01
990.115	-118.1
990.285	264.87
990.455	260.77
990.625	12.97
990.795	-71
990.965	461.48
991.134	-30.04
991.304	-116.05
991.474	-54.61
991.644	305.83
991.814	516.77
991.984	-195.92
992.153	-97.62
992.323	113.32
992.493	109.22
992.662	-275.79
992.832	146.09
993.002	187.05
993.171	195.24
993.341	-243.03
993.511	146.09
993.68	64.17
993.85	336.55
994.019	-220.5
994.189	-163.15
994.358	230.06
994.528	4.78
994.697	-218.45
994.867	-195.92
995.036	305.83
995.206	150.18
995.375	-118.1
995.544	0.68
995.714	209.58
995.883	70.31
996.052	160.42
996.222	-337.23
996.391	615.07
996.56	252.58
996.73	-148.82
996.899	-202.07
997.068	418.47
997.237	146.09
997.406	-93.52
997.576	-165.2
997.745	264.87
997.914	256.68
998.083	-267.6
998.252	-103.76
998.421	191.14
998.59	-73.04
998.759	-214.35
998.928	-226.64
999.097	387.75
999.266	168.62
999.435	-19.8
999.604	-222.55
999.773	676.51
999.942	90.79
1000.111	-238.93
1000.28	-265.55
1000.448	-60.76
1000.617	-79.19
1000.786	35.5
1000.955	-212.31
1001.124	187.05
1001.292	725.66
1001.461	-202.07
1001.63	-152.91
1001.798	389.8
1001.967	383.65
1002.136	-394.58
1002.304	-177.49
1002.473	236.2
1002.642	180.9
1002.81	-73.04
1002.979	-183.63
1003.147	322.21
1003.316	666.27
1003.484	-189.78
1003.653	-175.44
1003.821	432.8
1003.99	37.55
1004.158	-124.24
1004.327	-56.66
1004.495	256.68
1004.663	-1.37
1004.832	-58.71
1005	-314.7
1005.168	170.66
1005.337	180.9
1005.505	-322.9
1005.673	68.27
1005.842	307.88
1006.01	271.01
1006.178	-337.23
1006.346	-99.67
1006.514	264.87
1006.683	322.21
1006.851	-212.31
1007.019	-306.51
1007.187	-167.25
1007.355	-394.58
1007.523	-423.25
1007.691	-290.13
1007.859	-220.5
1008.027	420.52
1008.195	-202.07
1008.363	-277.84
1008.531	387.75
1008.699	68.27
1008.867	-345.42
1009.035	-120.15
1009.203	328.36
1009.37	53.93
1009.538	-103.76
1009.706	283.3
1009.874	62.12
1010.042	105.13
1010.209	-343.38
1010.377	-245.07
1010.545	383.65
1010.713	82.6
1010.88	-259.41
1011.048	-157.01
1011.216	70.31
1011.383	443.04
1011.551	-200.02
1011.718	-296.27
1011.886	279.21
1012.054	2.73
1012.221	-245.07
1012.389	-206.16
1012.556	119.46
1012.724	481.96
1012.891	-132.44
1013.058	-292.18
1013.226	215.72
1013.393	236.2
1013.561	-314.7
1013.728	-365.9
1013.895	309.93
1014.063	240.3
1014.23	-361.81
1014.397	-245.07
1014.565	268.97
1014.732	10.92
1014.899	-292.18
1015.066	-275.79
1015.233	127.66
1015.401	283.3
1015.568	-220.5
1015.735	-56.66
1015.902	123.56
1016.069	115.37
1016.236	-245.07
1016.403	-275.79
1016.57	-114
1016.737	207.53
1016.904	-222.55
1017.071	-292.18
1017.238	-118.1
1017.405	291.49
1017.572	-296.27
1017.739	-36.18
1017.906	291.49
1018.073	283.3
1018.24	-249.17
1018.407	-157.01
1018.573	387.75
1018.74	68.27
1018.907	-193.87
1019.074	-294.22
1019.241	314.02
1019.407	195.24
1019.574	-224.59
1019.741	-312.66
1019.907	201.38
1020.074	318.12
1020.241	-419.15
1020.407	-261.46
1020.574	148.14
1020.74	228.01
1020.907	-116.05
1021.073	-240.98
1021.24	625.31
1021.406	467.62
1021.573	-216.4
1021.739	-224.59
1021.906	273.06
1022.072	125.61
1022.239	-220.5
1022.405	-187.73
1022.571	213.67
1022.738	-32.08
1022.904	-273.75
1023.07	-132.44
1023.237	185
1023.403	412.32
1023.569	-161.11
1023.735	-224.59
1023.902	174.76
1024.068	219.82
1024.234	-226.64
1024.4	-195.92
1024.566	236.2
1024.732	330.41
1024.898	-212.31
1025.065	-300.37
1025.231	311.97
1025.397	74.41
1025.563	-247.12
1025.729	-296.27
1025.895	-318.8
1026.061	-66.9
1026.227	-345.42
1026.392	-230.74
1026.558	305.83
1026.724	215.72
1026.89	-308.56
1027.056	-75.09
1027.222	209.58
1027.388	0.68
1027.553	-234.83
1027.719	-302.42
1027.885	508.58
1028.051	160.42
1028.216	-363.86
1028.382	-185.68
1028.548	346.79
1028.713	2.73
1028.879	-253.27
1029.045	-101.72
1029.21	465.57
1029.376	373.41
1029.541	-169.3
1029.707	-189.78
1029.873	289.45
1030.038	381.6
1030.204	-249.17
1030.369	-146.77
1030.534	404.13
1030.7	-5.46
1030.865	-175.44
1031.031	-216.4
1031.196	258.73
1031.361	223.91
1031.527	-224.59
1031.692	-273.75
1031.857	-290.13
1032.023	240.3
1032.188	-367.95
1032.353	-189.78
1032.518	529.06
1032.684	133.8
1032.849	-331.09
1033.014	-212.31
1033.179	344.74
1033.344	217.77
1033.509	-134.48
1033.674	-204.11
1033.839	322.21
1034.004	309.93
1034.17	-218.45
1034.335	-370
1034.5	55.98
1034.664	-40.28
1034.829	-230.74
1034.994	-177.49
1035.159	232.1
1035.324	187.05
1035.489	-179.54
1035.654	-255.31
1035.819	449.19
1035.984	193.19
1036.148	-116.05
1036.313	-152.91
1036.478	359.08
1036.643	137.9
1036.807	-163.15
1036.972	-310.61
1037.137	451.24
1037.301	78.51
1037.466	-398.67
1037.631	-128.34
1037.795	363.17
1037.96	185
1038.124	-5.46
1038.289	-355.66
1038.454	281.25
1038.618	293.54
1038.783	-144.72
1038.947	-116.05
1039.111	193.19
1039.276	-21.85
1039.44	-220.5
1039.605	234.15
1039.769	119.46
1039.933	176.81
1040.098	-148.82
1040.262	6.83
1040.426	373.41
1040.591	334.5
1040.755	-132.44
1040.919	-157.01
1041.083	168.62
1041.248	131.75
1041.412	-312.66
1041.576	-247.12
1041.74	94.89
1041.904	379.56
1042.068	-181.59
1042.232	-103.76
1042.397	371.36
1042.561	271.01
1042.725	-384.34
1042.889	-19.8
1043.053	348.84
1043.217	316.07
1043.381	-36.18
1043.544	-273.75
1043.708	408.23
1043.872	-177.49
1044.036	-392.53
1044.2	-296.27
1044.364	481.96
1044.528	500.39
1044.691	2591.36
1044.855	-290.13
1045.019	393.89
1045.183	410.28
1045.346	-130.39
1045.51	-296.27
1045.674	287.4
1045.837	371.36
1046.001	-140.63
1046.165	-195.92
1046.328	723.62
1046.492	326.31
1046.655	-27.99
1046.819	-136.53
1046.983	43.69
1047.146	354.98
1047.31	-101.72
1047.473	-378.19
1047.636	137.9
1047.8	-89.43
1047.963	-193.87
1048.127	-249.17
1048.29	-60.76
