Data from Ink_Intensity_USB4F045381__200__00200.txt Node

Date: Mon Jul 17 11:48:19 EDT 2023
User: mmckonesweet
Spectrometer: USB4F04538
Trigger mode: 4
Integration Time (sec): 9.000000E-1
Scans to average: 1
Electric dark correction enabled: true
Nonlinearity correction enabled: false
Boxcar width: 0
XAxis mode: Wavelengths
Number of Pixels in Spectrum: 3648
>>>>>Begin Spectral Data<<<<<
345.52	-1038.66
345.736	-1038.66
345.952	-1038.66
346.168	-971.08
346.384	-1034.57
346.6	-123.22
346.816	-227.67
347.032	-205.14
347.248	386.72
347.464	-235.86
347.68	-119.12
347.896	77.48
348.112	366.25
348.328	-82.26
348.544	-119.12
348.76	9.9
348.975	272.04
349.191	-256.34
349.407	-221.52
349.623	-16.73
349.839	-78.16
350.055	-207.19
350.27	22.19
350.486	91.82
350.702	251.56
350.918	181.93
351.133	-194.9
351.349	100.01
351.565	327.33
351.781	-221.52
351.996	63.15
352.212	265.89
352.428	-135.51
352.644	-170.32
352.859	-188.75
353.075	310.95
353.291	106.15
353.506	-76.12
353.722	-285.01
353.938	16.04
354.153	472.74
354.369	42.67
354.584	-153.94
354.8	276.13
355.016	-262.48
355.231	-285.01
355.447	-72.02
355.662	161.45
355.878	753.31
356.093	-315.73
356.309	-41.3
356.524	-258.39
356.74	278.18
356.955	-252.24
357.171	-22.87
357.386	151.21
357.602	-260.43
357.817	-61.78
358.033	-217.43
358.248	321.19
358.464	186.02
358.679	-190.8
358.895	-352.59
359.11	-35.16
359.325	302.76
359.541	-8.53
359.756	42.67
359.972	-346.45
360.187	87.72
360.402	-190.8
360.618	-219.47
360.833	1056.41
361.048	100.01
361.264	-227.67
361.479	-12.63
361.694	-102.74
361.909	200.36
362.125	-166.23
362.34	-164.18
362.555	300.71
362.77	63.15
362.986	-272.72
363.201	-63.83
363.416	196.26
363.631	57
363.847	-178.51
364.062	-147.8
364.277	190.12
364.492	54.95
364.707	-176.47
364.922	-403.79
365.138	216.74
365.353	241.32
365.568	-201.04
365.783	-223.57
365.998	106.15
366.213	591.52
366.428	-280.91
366.643	54.95
366.858	216.74
367.073	198.31
367.288	-123.22
367.503	-203.09
367.718	46.76
367.933	313
368.148	-303.44
368.363	-137.56
368.578	-53.59
368.793	458.4
369.008	-151.89
369.223	-268.63
369.438	202.41
369.653	403.11
369.868	-254.29
370.083	-248.15
370.298	91.82
370.513	360.1
370.728	3.75
370.943	-201.04
371.157	-166.23
371.372	411.3
371.587	-293.2
371.802	-291.15
372.017	112.3
372.232	388.77
372.446	-88.4
372.661	-299.34
372.876	192.17
373.091	171.69
373.306	-176.47
373.52	-237.91
373.735	-172.37
373.95	427.68
374.165	-160.08
374.379	-182.61
374.594	-158.03
374.809	71.34
375.023	9.9
375.238	-332.11
375.453	212.65
375.667	-244.05
375.882	-184.66
376.097	-280.91
376.311	32.43
376.526	-145.75
376.741	-301.39
376.955	124.58
377.17	517.79
377.384	503.46
377.599	28.33
377.813	-373.07
378.028	589.47
378.242	157.35
378.457	-139.6
378.672	-373.07
378.886	50.86
379.101	-72.02
379.315	-395.6
379.53	-96.6
379.744	106.15
379.958	151.21
380.173	-219.47
380.387	-190.8
380.602	210.6
380.816	-162.13
381.031	-166.23
381.245	-153.94
381.459	194.22
381.674	2598.53
381.888	-342.35
382.103	118.44
382.317	-170.32
382.531	435.88
382.746	-55.64
382.96	-164.18
383.174	-82.26
383.388	360.1
383.603	11.95
383.817	-338.26
384.031	108.2
384.246	394.92
384.46	-12.63
384.674	272.04
384.888	1.71
385.103	54.95
385.317	-309.58
385.531	-69.97
385.745	382.63
385.959	333.48
386.174	-219.47
386.388	-375.12
386.602	-63.83
386.816	-121.17
387.03	-143.7
387.244	-162.13
387.458	-4.44
387.672	304.81
387.887	-282.96
388.101	-264.53
388.315	274.09
388.529	-22.87
388.743	-258.39
388.957	-223.57
389.171	304.81
389.385	-170.32
389.599	-196.95
389.813	-26.96
390.027	167.59
390.241	638.62
390.455	-180.56
390.669	-127.32
390.883	-74.07
391.097	333.48
391.311	3.75
391.525	-276.82
391.738	175.78
391.952	153.26
392.166	-74.07
392.38	-268.63
392.594	165.54
392.808	278.18
393.022	-160.08
393.236	-184.66
393.449	196.26
393.663	147.11
393.877	-307.54
394.091	-194.9
394.305	-76.12
394.518	-127.32
394.732	-311.63
394.946	-172.37
395.16	474.79
395.373	20.14
395.587	-205.14
395.801	-227.67
396.015	222.89
396.228	190.12
396.442	-274.77
396.656	-414.03
396.869	304.81
397.083	392.87
397.297	-184.66
397.51	-137.56
397.724	378.53
397.938	179.88
398.151	-293.2
398.365	-348.5
398.578	194.22
398.792	296.61
399.005	18.09
399.219	-172.37
399.433	186.02
399.646	231.08
399.86	-4.44
400.073	-55.64
400.287	173.74
400.5	-18.77
400.714	-35.16
400.927	-72.02
401.141	190.12
401.354	1087.13
401.567	190.12
401.781	-235.86
401.994	247.46
402.208	540.32
402.421	-121.17
402.635	-184.66
402.848	-29.01
403.061	339.62
403.275	-76.12
403.488	-270.67
403.701	472.74
403.915	249.51
404.128	-14.68
404.341	-160.08
404.555	102.06
404.768	-80.21
404.981	-22.87
405.195	-235.86
405.408	431.78
405.621	239.27
405.834	-31.06
406.048	-291.15
406.261	351.91
406.474	433.83
406.687	-262.48
406.9	-84.31
407.114	30.38
407.327	202.41
407.54	-344.4
407.753	-375.12
407.966	-221.52
408.179	153.26
408.392	-254.29
408.605	-364.88
408.819	177.83
409.032	118.44
409.245	-276.82
409.458	-51.54
409.671	179.88
409.884	194.22
410.097	-309.58
410.31	-20.82
410.523	110.25
410.736	-35.16
410.949	-115.03
411.162	-117.08
411.375	366.25
411.588	290.47
411.801	3.75
412.014	-256.34
412.227	-6.49
412.44	-33.11
412.653	-272.72
412.865	-35.16
413.078	245.41
413.291	229.03
413.504	-67.92
413.717	-227.67
413.93	226.98
414.143	-155.99
414.356	-160.08
414.568	-309.58
414.781	226.98
414.994	83.63
415.207	-139.6
415.42	-59.73
415.632	300.71
415.845	460.45
416.058	-342.35
416.271	-311.63
416.483	42.67
416.696	370.34
416.909	-182.61
417.121	-252.24
417.334	87.72
417.547	485.03
417.759	-235.86
417.972	-280.91
418.185	-149.84
418.397	198.31
418.61	-76.12
418.823	-229.71
419.035	394.92
419.248	-47.44
419.46	-192.85
419.673	-69.97
419.885	165.54
420.098	-8.53
420.311	-190.8
420.523	-375.12
420.736	241.32
420.948	63.15
421.161	-231.76
421.373	-422.22
421.586	132.78
421.798	-115.03
422.01	-352.59
422.223	-96.6
422.435	-203.09
422.648	192.17
422.86	-153.94
423.073	-211.28
423.285	218.79
423.497	-237.91
423.71	-256.34
423.922	-278.87
424.134	120.49
424.347	462.5
424.559	-2.39
424.771	136.87
424.984	9.9
425.196	214.7
425.408	-393.55
425.621	-344.4
425.833	251.56
426.045	313
426.257	-319.82
426.47	-170.32
426.682	59.05
426.894	165.54
427.106	-121.17
427.318	-168.27
427.531	-129.36
427.743	179.88
427.955	-170.32
428.167	208.55
428.379	104.11
428.591	-35.16
428.804	-119.12
429.016	-215.38
429.228	-82.26
429.44	112.3
429.652	5.8
429.864	-387.41
430.076	95.91
430.288	-20.82
430.5	-88.4
430.712	-143.7
430.924	265.89
431.136	110.25
431.348	-405.84
431.56	-289.1
431.772	-10.58
431.984	-137.56
432.196	-229.71
432.408	-94.55
432.62	-123.22
432.832	87.72
433.044	34.47
433.256	-131.41
433.468	190.12
433.679	-252.24
433.891	-268.63
434.103	102.06
434.315	388.77
434.527	159.4
434.739	-182.61
434.95	-235.86
435.162	286.37
435.374	-69.97
435.586	-168.27
435.798	-244.05
436.009	-217.43
436.221	-22.87
436.433	-133.46
436.645	-192.85
436.856	-178.51
437.068	276.13
437.28	-303.44
437.491	52.91
437.703	116.39
437.915	100.01
438.126	-137.56
438.338	50.86
438.55	7.85
438.761	106.15
438.973	-219.47
439.184	-186.71
439.396	16.04
439.608	196.26
439.819	-264.53
440.031	-129.36
440.242	175.78
440.454	149.16
440.665	-137.56
440.877	-186.71
441.088	210.6
441.3	-137.56
441.511	-375.12
441.723	-274.77
441.934	145.06
442.146	13.99
442.357	-18.77
442.569	46.76
442.78	97.96
442.991	435.88
443.203	95.91
443.414	-315.73
443.626	323.24
443.837	-141.65
444.048	-266.58
444.26	-375.12
444.471	26.28
444.682	202.41
444.894	-407.89
445.105	-403.79
445.316	345.77
445.528	57
445.739	-90.45
445.95	-151.89
446.161	147.11
446.373	292.52
446.584	-172.37
446.795	-217.43
447.006	206.5
447.217	356.01
447.429	-385.36
447.64	-223.57
447.851	298.66
448.062	46.76
448.273	-457.04
448.484	-317.78
448.695	116.39
448.907	-45.4
449.118	-102.74
449.329	26.28
449.54	-33.11
449.751	-217.43
449.962	-205.14
450.173	-233.81
450.384	302.76
450.595	317.09
450.806	-246.1
451.017	-143.7
451.228	370.34
451.439	222.89
451.65	-155.99
451.861	-422.22
452.072	-278.87
452.283	48.81
452.494	-16.73
452.705	-219.47
452.915	380.58
453.126	93.87
453.337	-127.32
453.548	-305.49
453.759	378.53
453.97	495.27
454.181	102.06
454.391	-237.91
454.602	-0.34
454.813	163.5
455.024	-170.32
455.235	-276.82
455.445	106.15
455.656	46.76
455.867	-47.44
456.078	-239.95
456.288	-59.73
456.499	77.48
456.71	-313.68
456.921	26.28
457.131	67.24
457.342	22.19
457.553	-72.02
457.763	-295.25
457.974	212.65
458.184	202.41
458.395	-301.39
458.606	-305.49
458.816	251.56
459.027	382.63
459.237	-78.16
459.448	-317.78
459.659	235.18
459.869	550.56
460.08	-407.89
460.29	-29.01
460.501	468.64
460.711	-106.84
460.922	-358.74
461.132	-309.58
461.343	704.16
461.553	-315.73
461.764	-201.04
461.974	-301.39
462.184	317.09
462.395	114.34
462.605	-203.09
462.816	-301.39
463.026	118.44
463.236	218.79
463.447	-313.68
463.657	-282.96
463.867	95.91
464.078	-57.68
464.288	-184.66
464.498	-213.33
464.709	44.71
464.919	-39.25
465.129	-233.81
465.339	-328.02
465.55	91.82
465.76	290.47
465.97	-166.23
466.18	-276.82
466.391	190.12
466.601	116.39
466.811	-211.28
467.021	-328.02
467.231	95.91
467.441	343.72
467.651	-170.32
467.862	-446.8
468.072	42.67
468.282	366.25
468.492	-252.24
468.702	-223.57
468.912	50.86
469.122	583.33
469.332	-92.5
469.542	-368.98
469.752	130.73
469.962	3.75
470.172	-348.5
470.382	-366.93
470.592	175.78
470.802	237.22
471.012	-72.02
471.222	-260.43
471.432	222.89
471.642	171.69
471.852	-176.47
472.062	-352.59
472.272	3.75
472.482	-260.43
472.691	-307.54
472.901	-420.17
473.111	42.67
473.321	558.75
473.531	-299.34
473.741	-184.66
473.95	132.78
474.16	239.27
474.37	-76.12
474.58	-360.78
474.79	460.45
474.999	159.4
475.209	-239.95
475.419	-227.67
475.628	-94.55
475.838	331.43
476.048	-225.62
476.258	-332.11
476.467	218.79
476.677	-125.27
476.886	-45.4
477.096	-239.95
477.306	-139.6
477.515	292.52
477.725	-178.51
477.935	-137.56
478.144	222.89
478.354	-123.22
478.563	-227.67
478.773	-252.24
478.982	169.64
479.192	263.85
479.401	-104.79
479.611	-303.44
479.82	-182.61
480.03	-8.53
480.239	-270.67
480.449	-454.99
480.658	452.26
480.868	-166.23
481.077	-121.17
481.287	-248.15
481.496	93.87
481.705	386.72
481.915	69.29
482.124	89.77
482.333	91.82
482.543	435.88
482.752	-172.37
482.961	-323.92
483.171	186.02
483.38	-96.6
483.589	-100.69
483.799	-342.35
484.008	-39.25
484.217	198.31
484.426	-223.57
484.636	-399.7
484.845	18.09
485.054	-268.63
485.263	-20.82
485.472	-258.39
485.682	417.44
485.891	-67.92
486.1	-366.93
486.309	-231.76
486.518	138.92
486.727	378.53
486.936	-305.49
487.146	-74.07
487.355	380.58
487.564	-217.43
487.773	-235.86
487.982	-272.72
488.191	-112.98
488.4	-6.49
488.609	-244.05
488.818	-205.14
489.027	507.55
489.236	349.86
489.445	-201.04
489.654	-321.87
489.863	239.27
490.072	-4.44
490.281	59.05
490.49	-223.57
490.698	392.87
490.907	288.42
491.116	-237.91
491.325	-346.45
491.534	351.91
491.743	71.34
491.952	-135.51
492.16	-192.85
492.369	202.41
492.578	288.42
492.787	-129.36
492.996	-338.26
493.204	-143.7
493.413	460.45
493.622	-471.37
493.831	-461.13
494.039	290.47
494.248	-221.52
494.457	-278.87
494.665	-459.09
494.874	126.63
495.083	566.95
495.291	-198.99
495.5	-325.97
495.709	292.52
495.917	34.47
496.126	-201.04
496.335	-323.92
496.543	-55.64
496.752	59.05
496.96	20.14
497.169	-393.55
497.377	97.96
497.586	265.89
497.794	-108.88
498.003	-463.18
498.211	9.9
498.42	351.91
498.628	-158.03
498.837	-332.11
499.045	118.44
499.254	24.23
499.462	-317.78
499.671	-287.06
499.879	517.79
500.087	257.7
500.296	-342.35
500.504	-213.33
500.713	120.49
500.921	501.41
501.129	-252.24
501.338	-309.58
501.546	-35.16
501.754	7.85
501.962	-225.62
502.171	-307.54
502.379	173.74
502.587	390.82
502.795	-209.23
503.004	-260.43
503.212	-14.68
503.42	263.85
503.628	-252.24
503.837	-194.9
504.045	247.46
504.253	390.82
504.461	-305.49
504.669	-448.85
504.877	108.2
505.085	372.39
505.294	-399.7
505.502	-102.74
505.71	54.95
505.918	239.27
506.126	-454.99
506.334	-309.58
506.542	-47.44
506.75	36.52
506.958	-149.84
507.166	-203.09
507.374	-92.5
507.582	513.7
507.79	-211.28
507.998	-334.16
508.206	95.91
508.414	124.58
508.622	-287.06
508.83	-315.73
509.037	403.11
509.245	-108.88
509.453	-293.2
509.661	-354.64
509.869	245.41
510.077	-74.07
510.285	-112.98
510.492	-584.01
510.7	603.81
510.908	-84.31
511.116	-223.57
511.324	-334.16
511.531	-16.73
511.739	175.78
511.947	-14.68
512.155	59.05
512.362	48.81
512.57	-244.05
512.778	-303.44
512.985	-498
513.193	269.99
513.401	405.16
513.608	-223.57
513.816	-268.63
514.024	110.25
514.231	351.91
514.439	-309.58
514.646	-293.2
514.854	177.83
515.061	376.48
515.269	-246.1
515.477	-268.63
515.684	-209.23
515.892	145.06
516.099	-495.95
516.307	-389.46
516.514	231.08
516.722	439.97
516.929	-242
517.136	-383.31
517.344	437.92
517.551	108.2
517.759	-248.15
517.966	-313.68
518.173	-26.96
518.381	-10.58
518.588	-145.75
518.796	-389.46
519.003	173.74
519.21	-2.39
519.418	-358.74
519.625	3.75
519.832	67.24
520.039	71.34
520.247	-399.7
520.454	-287.06
520.661	257.7
520.868	140.97
521.076	-313.68
521.283	-244.05
521.49	607.91
521.697	52.91
521.904	-276.82
522.112	-260.43
522.319	247.46
522.526	161.45
522.733	-371.02
522.94	-356.69
523.147	36.52
523.354	249.51
523.561	-375.12
523.768	-176.47
523.975	239.27
524.183	34.47
524.39	-162.13
524.597	-399.7
524.804	75.43
525.011	-123.22
525.218	-317.78
525.425	-278.87
525.632	341.67
525.838	-141.65
526.045	-248.15
526.252	-328.02
526.459	1070.75
526.666	861.85
526.873	-379.22
527.08	-248.15
527.287	407.2
527.494	239.27
527.701	-418.13
527.907	-403.79
528.114	108.2
528.321	-10.58
528.528	-213.33
528.735	-403.79
528.941	-182.61
529.148	-78.16
529.355	-190.8
529.562	-285.01
529.768	349.86
529.975	-35.16
530.182	-203.09
530.388	-334.16
530.595	226.98
530.802	-266.58
531.008	-98.64
531.215	-276.82
531.422	376.48
531.628	738.98
531.835	-194.9
532.042	-223.57
532.248	-149.84
532.455	48.81
532.661	-217.43
532.868	-264.53
533.074	59.05
533.281	292.52
533.487	-186.71
533.694	-334.16
533.9	-229.71
534.107	149.16
534.313	-323.92
534.52	-346.45
534.726	183.98
534.933	532.13
535.139	-399.7
535.345	-420.17
535.552	112.3
535.758	-24.92
535.965	-252.24
536.171	-248.15
536.377	208.55
536.584	321.19
536.79	-334.16
536.996	-198.99
537.203	95.91
537.409	190.12
537.615	-262.48
537.821	-153.94
538.028	202.41
538.234	194.22
538.44	-342.35
538.646	-242
538.853	108.2
539.059	-39.25
539.265	91.82
539.471	-432.46
539.677	255.65
539.883	-80.21
540.09	-276.82
540.296	83.63
540.502	79.53
540.708	-86.36
540.914	-112.98
541.12	-334.16
541.326	161.45
541.532	9.9
541.738	-215.38
541.944	-272.72
542.15	282.28
542.356	-35.16
542.562	-418.13
542.768	-315.73
542.974	575.14
543.18	577.19
543.386	-330.06
543.592	-500.05
543.798	339.62
544.004	335.53
544.21	-313.68
544.415	-223.57
544.621	77.48
544.827	345.77
545.033	-358.74
545.239	-35.16
545.445	-223.57
545.651	126.63
545.856	-297.3
546.062	-305.49
546.268	-100.69
546.474	-22.87
546.679	-227.67
546.885	-203.09
547.091	-145.75
547.297	468.64
547.502	-213.33
547.708	-391.5
547.914	-201.04
548.119	298.66
548.325	-334.16
548.531	-280.91
548.736	382.63
548.942	-141.65
549.147	-299.34
549.353	-112.98
549.559	341.67
549.764	149.16
549.97	-315.73
550.175	-244.05
550.381	122.54
550.586	-119.12
550.792	-321.87
550.997	-289.1
551.203	159.4
551.408	169.64
551.614	-385.36
551.819	-356.69
552.025	382.63
552.23	468.64
552.435	-358.74
552.641	-172.37
552.846	-190.8
553.052	317.09
553.257	-98.64
553.462	-276.82
553.668	-145.75
553.873	145.06
554.078	-375.12
554.283	-305.49
554.489	63.15
554.694	-18.77
554.899	-350.54
555.105	-67.92
555.31	112.3
555.515	173.74
555.72	-186.71
555.925	-391.5
556.131	149.16
556.336	-125.27
556.541	-364.88
556.746	-422.22
556.951	343.72
557.156	403.11
557.361	-194.9
557.567	-129.36
557.772	534.18
557.977	120.49
558.182	-295.25
558.387	-344.4
558.592	-174.42
558.797	263.85
559.002	-166.23
559.207	-223.57
559.412	30.38
559.617	470.69
559.822	-270.67
560.027	-340.3
560.232	69.29
560.437	214.7
560.642	-420.17
560.847	-385.36
561.051	59.05
561.256	71.34
561.461	-244.05
561.666	-373.07
561.871	71.34
562.076	194.22
562.281	-266.58
562.485	-414.03
562.69	128.68
562.895	192.17
563.1	-303.44
563.305	-454.99
563.509	386.72
563.714	517.79
563.919	-338.26
564.123	-221.52
564.328	-14.68
564.533	278.18
564.737	-186.71
564.942	-317.78
565.147	380.58
565.351	435.88
565.556	-219.47
565.761	-211.28
565.965	104.11
566.17	-123.22
566.374	-215.38
566.579	-276.82
566.784	110.25
566.988	-41.3
567.193	-389.46
567.397	-291.15
567.602	-268.63
567.806	28.33
568.011	-321.87
568.215	-250.19
568.42	-55.64
568.624	26.28
568.828	-293.2
569.033	-162.13
569.237	210.6
569.442	143.02
569.646	-373.07
569.85	-221.52
570.055	-18.77
570.259	50.86
570.463	-98.64
570.668	-264.53
570.872	-41.3
571.076	-57.68
571.281	-100.69
571.485	-137.56
571.689	95.91
571.893	208.55
572.098	-158.03
572.302	-313.68
572.506	73.39
572.71	87.72
572.914	-198.99
573.119	-268.63
573.323	356.01
573.527	329.38
573.731	-280.91
573.935	-405.84
574.139	-2.39
574.343	-201.04
574.547	-252.24
574.751	-313.68
574.955	327.33
575.159	255.65
575.364	-293.2
575.568	-393.55
575.772	-67.92
575.976	345.77
576.18	-362.83
576.383	-407.89
576.587	366.25
576.791	100.01
576.995	-502.09
577.199	-477.52
577.403	241.32
577.607	282.28
577.811	-416.08
578.015	-203.09
578.219	100.01
578.422	190.12
578.626	-184.66
578.83	-155.99
579.034	286.37
579.238	42.67
579.442	-375.12
579.645	85.67
579.849	-0.34
580.053	83.63
580.257	-266.58
580.46	-176.47
580.664	188.07
580.868	128.68
581.071	-137.56
581.275	-143.7
581.479	-373.07
581.682	204.46
581.886	-270.67
582.09	-215.38
582.293	194.22
582.497	233.13
582.7	-106.84
582.904	-340.3
583.107	77.48
583.311	-82.26
583.515	-239.95
583.718	-198.99
583.922	140.97
584.125	403.11
584.329	-358.74
584.532	-133.46
584.735	327.33
584.939	173.74
585.142	-399.7
585.346	-297.3
585.549	73.39
585.753	-104.79
585.956	-258.39
586.159	-160.08
586.363	386.72
586.566	159.4
586.769	-330.06
586.973	-325.97
587.176	85.67
587.379	255.65
587.582	-26.96
587.786	-6.49
587.989	-16.73
588.192	657.06
588.395	-268.63
588.599	-22.87
588.802	100.01
589.005	177.83
589.208	-217.43
589.411	-235.86
589.615	212.65
589.818	405.16
590.021	5.8
590.224	-104.79
590.427	224.94
590.63	282.28
590.833	-469.33
591.036	-276.82
591.239	-43.35
591.442	-65.88
591.645	-102.74
591.848	-262.48
592.051	79.53
592.254	181.93
592.457	-246.1
592.66	-217.43
592.863	-14.68
593.066	79.53
593.269	-260.43
593.472	-227.67
593.675	-194.9
593.878	261.8
594.081	-112.98
594.284	-350.54
594.486	169.64
594.689	100.01
594.892	-209.23
595.095	-160.08
595.298	171.69
595.5	-31.06
595.703	-166.23
595.906	-203.09
596.109	374.44
596.311	282.28
596.514	-424.27
596.717	-203.09
596.92	333.48
597.122	161.45
597.325	-483.66
597.528	-368.98
597.73	282.28
597.933	34.47
598.136	-196.95
598.338	-440.65
598.541	93.87
598.743	319.14
598.946	-270.67
599.148	-219.47
599.351	347.81
599.554	257.7
599.756	-121.17
599.959	-176.47
600.161	222.89
600.363	579.23
600.566	20.14
600.768	-242
600.971	417.44
601.173	255.65
601.376	-285.01
601.578	-254.29
601.78	136.87
601.983	566.95
602.185	-262.48
602.388	13.99
602.59	42.67
602.792	44.71
602.995	65.19
603.197	-323.92
603.399	325.29
603.601	126.63
603.804	-256.34
604.006	-282.96
604.208	-0.34
604.41	-366.93
604.613	-53.59
604.815	-256.34
605.017	546.47
605.219	-121.17
605.421	220.84
605.623	-145.75
605.826	386.72
606.028	368.29
606.23	-248.15
606.432	-260.43
606.634	442.02
606.836	456.36
607.038	-446.8
607.24	-47.44
607.442	87.72
607.644	77.48
607.846	-108.88
608.048	-299.34
608.25	378.53
608.452	-158.03
608.654	-211.28
608.856	-403.79
609.058	-6.49
609.26	81.58
609.462	-121.17
609.664	-239.95
609.866	489.12
610.067	302.76
610.269	-47.44
610.471	-219.47
610.673	-53.59
610.875	210.6
611.077	-371.02
611.278	-88.4
611.48	24.23
611.682	509.6
611.884	-104.79
612.085	-141.65
612.287	-153.94
612.489	161.45
612.69	-362.83
612.892	-162.13
613.094	317.09
613.295	222.89
613.497	-330.06
613.699	-149.84
613.9	415.4
614.102	323.24
614.304	-221.52
614.505	-366.93
614.707	-20.82
614.908	16.04
615.11	-315.73
615.311	-143.7
615.513	237.22
615.714	231.08
615.916	-411.98
616.117	-186.71
616.319	36.52
616.52	216.74
616.722	-178.51
616.923	-203.09
617.124	304.81
617.326	214.7
617.527	-90.45
617.729	145.06
617.93	140.97
618.131	181.93
618.333	-149.84
618.534	-293.2
618.735	-12.63
618.937	401.06
619.138	-354.64
619.339	-307.54
619.54	196.26
619.742	-84.31
619.943	-35.16
620.144	-139.6
620.345	229.03
620.546	278.18
620.748	-307.54
620.949	-231.76
621.15	145.06
621.351	81.58
621.552	-330.06
621.753	-371.02
621.954	-186.71
622.155	548.51
622.356	-389.46
622.558	-22.87
622.759	104.11
622.96	470.69
623.161	-188.75
623.362	-184.66
623.563	20.14
623.764	122.54
623.965	-149.84
624.166	-72.02
624.366	-6.49
624.567	87.72
624.768	-514.38
624.969	-225.62
625.17	24.23
625.371	247.46
625.572	-184.66
625.773	-297.3
625.973	288.42
626.174	229.03
626.375	-168.27
626.576	-117.08
626.777	239.27
626.977	583.33
627.178	-248.15
627.379	-129.36
627.58	-6.49
627.78	34.47
627.981	-139.6
628.182	-74.07
628.382	366.25
628.583	-246.1
628.784	-305.49
628.984	22.19
629.185	253.61
629.386	188.07
629.586	-127.32
629.787	-276.82
629.987	177.83
630.188	18.09
630.388	-133.46
630.589	-26.96
630.79	648.86
630.99	97.96
631.191	-153.94
631.391	-143.7
631.591	122.54
631.792	452.26
631.992	-0.34
632.193	-170.32
632.393	452.26
632.594	71.34
632.794	-149.84
632.994	-147.8
633.195	46.76
633.395	13.99
633.595	-203.09
633.796	-8.53
633.996	-84.31
634.196	388.77
634.397	-391.5
634.597	-139.6
634.797	-117.08
634.997	390.82
635.198	-18.77
635.398	-330.06
635.598	128.68
635.798	386.72
635.998	206.5
636.199	-223.57
636.399	-88.4
636.599	-194.9
636.799	-211.28
636.999	87.72
637.199	159.4
637.399	272.04
637.599	-153.94
637.799	-63.83
637.999	-35.16
638.199	427.68
638.399	-225.62
638.599	-205.14
638.799	237.22
638.999	532.13
639.199	-47.44
639.399	-22.87
639.599	337.57
639.799	-67.92
639.999	-196.95
640.199	-307.54
640.399	67.24
640.599	130.73
640.799	-102.74
640.998	-35.16
641.198	335.53
641.398	132.78
641.598	-33.11
641.798	-108.88
641.997	1011.36
642.197	145.06
642.397	-37.2
642.597	-186.71
642.796	179.88
642.996	444.07
643.196	13.99
643.395	-248.15
643.595	194.22
643.795	-338.26
643.994	-192.85
644.194	-76.12
644.394	263.85
644.593	186.02
644.793	-379.22
644.992	-63.83
645.192	155.3
645.392	-276.82
645.591	7.85
645.791	-84.31
645.99	134.82
646.19	-16.73
646.389	-110.93
646.589	-92.5
646.788	206.5
646.987	190.12
647.187	44.71
647.386	-59.73
647.586	-12.63
647.785	335.53
647.984	-135.51
648.184	-112.98
648.383	-84.31
648.582	-12.63
648.782	-117.08
648.981	-59.73
649.18	-31.06
649.38	97.96
649.579	-176.47
649.778	-125.27
649.977	196.26
650.177	196.26
650.376	-209.23
650.575	-244.05
650.774	493.22
650.973	16.04
651.173	-307.54
651.372	-69.97
651.571	206.5
651.77	288.42
651.969	-192.85
652.168	-37.2
652.367	-207.19
652.566	257.7
652.765	-213.33
652.964	171.69
653.163	640.67
653.362	48.81
653.561	-164.18
653.76	-108.88
653.959	57
654.158	202.41
654.357	83.63
654.556	-100.69
654.755	89.77
654.954	288.42
655.153	-96.6
655.352	-45.4
655.551	476.84
655.749	-141.65
655.948	-112.98
656.147	-108.88
656.346	118.44
656.545	46.76
656.743	-84.31
656.942	-229.71
657.141	81.58
657.34	-82.26
657.538	16.04
657.737	-117.08
657.936	20.14
658.135	306.85
658.333	-112.98
658.532	-55.64
658.731	536.23
658.929	360.1
659.128	100.01
659.326	-162.13
659.525	306.85
659.724	100.01
659.922	-344.4
660.121	-258.39
660.319	132.78
660.518	13.99
660.716	-264.53
660.915	-248.15
661.113	472.74
661.312	-119.12
661.51	5.8
661.709	-164.18
661.907	259.75
662.105	476.84
662.304	-203.09
662.502	-125.27
662.701	372.39
662.899	-0.34
663.097	181.93
663.296	-315.73
663.494	429.73
663.692	468.64
663.891	-258.39
664.089	-180.56
664.287	177.83
664.485	446.12
664.684	-184.66
664.882	40.62
665.08	52.91
665.278	128.68
665.476	-211.28
665.675	222.89
665.873	579.23
666.071	394.92
666.269	-203.09
666.467	83.63
666.665	177.83
666.863	-2.39
667.061	-10.58
667.259	-145.75
667.457	89.77
667.655	284.33
667.853	-198.99
668.051	87.72
668.249	-133.46
668.447	220.84
668.645	-153.94
668.843	136.87
669.041	399.01
669.239	38.57
669.437	22.19
669.635	-41.3
669.833	-26.96
670.031	362.15
670.229	-20.82
670.426	-51.54
670.624	1.71
670.822	20.14
671.02	-207.19
671.218	-125.27
671.415	-20.82
671.613	188.07
671.811	-14.68
672.009	-129.36
672.206	304.81
672.404	136.87
672.602	87.72
672.799	-6.49
672.997	239.27
673.195	376.48
673.392	116.39
673.59	-207.19
673.788	341.67
673.985	-358.74
674.183	16.04
674.38	-123.22
674.578	294.57
674.775	-49.49
674.973	-194.9
675.17	-137.56
675.368	542.37
675.565	226.98
675.763	-117.08
675.96	-188.75
676.158	427.68
676.355	73.39
676.553	-131.41
676.75	-84.31
676.947	167.59
677.145	71.34
677.342	7.85
677.539	102.06
677.737	181.93
677.934	595.62
678.131	85.67
678.329	-59.73
678.526	536.23
678.723	300.71
678.92	-112.98
679.118	-20.82
679.315	-88.4
679.512	542.37
679.709	1.71
679.906	36.52
680.104	476.84
680.301	157.35
680.498	-205.14
680.695	-192.85
680.892	11.95
681.089	-14.68
681.286	-20.82
681.483	-196.95
681.68	224.94
681.877	337.57
682.075	-26.96
682.272	153.26
682.469	214.7
682.665	-18.77
682.862	-108.88
683.059	-203.09
683.256	216.74
683.453	87.72
683.65	-4.44
683.847	-78.16
684.044	106.15
684.241	-78.16
684.438	16.04
684.635	-145.75
684.831	616.1
685.028	605.86
685.225	-92.5
685.422	89.77
685.619	114.34
685.815	124.58
686.012	38.57
686.209	-26.96
686.405	-100.69
686.602	335.53
686.799	-282.96
686.996	-174.42
687.192	-115.03
687.389	575.14
687.586	-43.35
687.782	-88.4
687.979	542.37
688.175	378.53
688.372	26.28
688.568	-76.12
688.765	69.29
688.962	431.78
689.158	81.58
689.355	-223.57
689.551	255.65
689.748	46.76
689.944	7.85
690.14	-170.32
690.337	327.33
690.533	26.28
690.73	198.31
690.926	-47.44
691.123	290.47
691.319	190.12
691.515	-231.76
691.712	93.87
691.908	319.14
692.104	186.02
692.301	-14.68
692.497	-133.46
692.693	378.53
692.889	439.97
693.086	52.91
693.282	-182.61
693.478	233.13
693.674	532.13
693.87	-14.68
694.067	-201.04
694.263	237.22
694.459	149.16
694.655	67.24
694.851	36.52
695.047	374.44
695.243	300.71
695.439	108.2
695.635	-55.64
695.831	313
696.027	290.47
696.224	-61.78
696.42	386.72
696.615	431.78
696.811	345.77
697.007	-174.42
697.203	20.14
697.399	218.79
697.595	442.02
697.791	-76.12
697.987	128.68
698.183	-160.08
698.379	20.14
698.575	-10.58
698.77	26.28
698.966	407.2
699.162	485.03
699.358	100.01
699.554	-22.87
699.749	308.9
699.945	378.53
700.141	104.11
700.337	149.16
700.532	87.72
700.728	13.99
700.924	-98.64
701.119	-166.23
701.315	378.53
701.511	155.3
701.706	7.85
701.902	-246.1
702.097	169.64
702.293	300.71
702.489	9.9
702.684	-69.97
702.88	157.35
703.075	104.11
703.271	5.8
703.466	-203.09
703.662	198.31
703.857	374.44
704.053	-35.16
704.248	16.04
704.443	333.48
704.639	259.75
704.834	-31.06
705.03	-20.82
705.225	380.58
705.42	489.12
705.616	83.63
705.811	-174.42
706.006	167.59
706.202	177.83
706.397	95.91
706.592	-231.76
706.787	276.13
706.983	204.46
707.178	257.7
707.373	26.28
707.568	409.25
707.763	517.79
707.959	-45.4
708.154	-117.08
708.349	280.23
708.544	247.46
708.739	124.58
708.934	-94.55
709.129	343.72
709.324	417.44
709.519	-37.2
709.714	-121.17
709.909	566.95
710.104	337.57
710.299	-0.34
710.494	147.11
710.689	331.43
710.884	235.18
711.079	59.05
711.274	222.89
711.469	284.33
711.664	304.81
711.859	-33.11
712.054	91.82
712.249	300.71
712.443	523.94
712.638	-166.23
712.833	-98.64
713.028	257.7
713.223	171.69
713.417	251.56
713.612	-16.73
713.807	315.05
714.002	818.85
714.196	183.98
714.391	-59.73
714.586	368.29
714.78	161.45
714.975	28.33
715.17	-14.68
715.364	186.02
715.559	542.37
715.754	-256.34
715.948	-59.73
716.143	745.12
716.337	263.85
716.532	310.95
716.726	-84.31
716.921	370.34
717.115	693.92
717.31	-137.56
717.504	448.16
717.699	77.48
717.893	460.45
718.088	-100.69
718.282	-88.4
718.476	327.33
718.671	323.24
718.865	-8.53
719.059	-41.3
719.254	226.98
719.448	536.23
719.642	1392.28
719.837	-227.67
720.031	501.41
720.225	499.36
720.419	106.15
720.614	71.34
720.808	444.07
721.002	169.64
721.196	-26.96
721.39	-67.92
721.585	620.19
721.779	362.15
721.973	28.33
722.167	-149.84
722.361	243.37
722.555	532.13
722.749	18.09
722.943	18.09
723.137	-35.16
723.331	263.85
723.525	75.43
723.719	57
723.913	339.62
724.107	603.81
724.301	-55.64
724.495	91.82
724.689	724.64
724.883	587.43
725.077	-39.25
725.271	-31.06
725.465	495.27
725.659	208.55
725.853	163.5
726.046	-74.07
726.24	30.38
726.434	460.45
726.628	-59.73
726.822	69.29
727.015	525.99
727.209	503.46
727.403	67.24
727.596	-174.42
727.79	448.16
727.984	485.03
728.177	22.19
728.371	67.24
728.565	571.04
728.758	3.75
728.952	-86.36
729.146	42.67
729.339	476.84
729.533	181.93
729.726	26.28
729.92	-82.26
730.113	573.09
730.307	321.19
730.5	54.95
730.694	5.8
730.887	118.44
731.081	333.48
731.274	-135.51
731.468	-10.58
731.661	364.2
731.854	147.11
732.048	-12.63
732.241	-137.56
732.435	63.15
732.628	224.94
732.821	159.4
733.014	-59.73
733.208	-0.34
733.401	427.68
733.594	36.52
733.788	-4.44
733.981	585.38
734.174	396.96
734.367	52.91
734.56	155.3
734.754	493.22
734.947	226.98
735.14	-35.16
735.333	83.63
735.526	468.64
735.719	179.88
735.912	-45.4
736.105	-16.73
736.298	333.48
736.491	190.12
736.684	-47.44
736.877	-41.3
737.07	378.53
737.263	556.71
737.456	-31.06
737.649	3.75
737.842	169.64
738.035	196.26
738.228	59.05
738.421	241.32
738.614	560.8
738.807	556.71
739	-176.47
739.192	-29.01
739.385	360.1
739.578	425.64
739.771	331.43
739.964	48.81
740.156	403.11
740.349	216.74
740.542	206.5
740.735	28.33
740.927	30.38
741.12	104.11
741.313	-104.79
741.505	108.2
741.698	409.25
741.891	431.78
742.083	278.18
742.276	-29.01
742.468	317.09
742.661	251.56
742.854	87.72
743.046	34.47
743.239	603.81
743.431	235.18
743.624	38.57
743.816	-104.79
744.009	190.12
744.201	347.81
744.393	308.9
744.586	-29.01
744.778	521.89
744.971	296.61
745.163	108.2
745.355	173.74
745.548	241.32
745.74	241.32
745.932	100.01
746.125	-18.77
746.317	816.8
746.509	321.19
746.702	46.76
746.894	224.94
747.086	439.97
747.278	616.1
747.471	231.08
747.663	89.77
747.855	437.92
748.047	583.33
748.239	-47.44
748.431	1.71
748.623	689.82
748.815	759.46
749.008	30.38
749.2	9.9
749.392	454.31
749.584	396.96
749.776	155.3
749.968	145.06
750.16	743.07
750.352	171.69
750.544	91.82
750.736	-78.16
750.928	464.55
751.12	323.24
751.311	52.91
751.503	67.24
751.695	505.51
751.887	315.05
752.079	-92.5
752.271	77.48
752.463	1070.75
752.654	573.09
752.846	120.49
753.038	30.38
753.23	206.5
753.421	452.26
753.613	124.58
753.805	313
753.997	583.33
754.188	575.14
754.38	7.85
754.572	102.06
754.763	288.42
754.955	589.47
755.146	165.54
755.338	136.87
755.53	501.41
755.721	259.75
755.913	-53.59
756.104	44.71
756.296	315.05
756.487	521.89
756.679	71.34
756.87	100.01
757.062	274.09
757.253	435.88
757.445	120.49
757.636	251.56
757.827	323.24
758.019	841.37
758.21	22.19
758.401	-10.58
758.593	853.66
758.784	622.24
758.975	-6.49
759.167	-10.58
759.358	368.29
759.549	581.28
759.74	171.69
759.932	42.67
760.123	683.68
760.314	171.69
760.505	251.56
760.696	30.38
760.888	763.55
761.079	321.19
761.27	-35.16
761.461	-63.83
761.652	612
761.843	278.18
762.034	143.02
762.225	444.07
762.416	321.19
762.607	372.39
762.798	165.54
762.989	87.72
763.18	1234.58
763.371	272.04
763.562	100.01
763.753	93.87
763.944	630.43
764.135	542.37
764.326	214.7
764.517	116.39
764.708	427.68
764.899	548.51
765.089	1.71
765.28	-39.25
765.471	460.45
765.662	468.64
765.853	143.02
766.043	-88.4
766.234	499.36
766.425	562.85
766.615	100.01
766.806	5.8
766.997	650.91
767.187	419.49
767.378	67.24
767.569	-53.59
767.759	499.36
767.95	431.78
768.141	231.08
768.331	13.99
768.522	388.77
768.712	534.18
768.903	46.76
769.093	-55.64
769.284	681.63
769.474	495.27
769.665	-125.27
769.855	-18.77
770.046	431.78
770.236	263.85
770.426	263.85
770.617	-22.87
770.807	476.84
770.998	290.47
771.188	255.65
771.378	42.67
771.569	523.94
771.759	495.27
771.949	-2.39
772.139	-141.65
772.33	401.06
772.52	763.55
772.71	3.75
772.9	-84.31
773.09	769.69
773.281	734.88
773.471	87.72
773.661	155.3
773.851	554.66
774.041	241.32
774.231	50.86
774.421	263.85
774.611	743.07
774.802	366.25
774.992	151.21
775.182	38.57
775.372	298.66
775.562	536.23
775.752	59.05
775.942	155.3
776.131	718.5
776.321	499.36
776.511	124.58
776.701	-12.63
776.891	620.19
777.081	202.41
777.271	151.21
777.461	54.95
777.651	646.82
777.84	644.77
778.03	229.03
778.22	118.44
778.41	738.98
778.599	110.25
778.789	151.21
778.979	9.9
779.169	442.02
779.358	362.15
779.548	439.97
779.738	18.09
779.927	425.64
780.117	198.31
780.307	181.93
780.496	-131.41
780.686	517.79
780.875	822.94
781.065	89.77
781.254	100.01
781.444	341.67
781.633	433.83
781.823	89.77
782.012	145.06
782.202	290.47
782.391	437.92
782.581	-80.21
782.77	278.18
782.96	564.9
783.149	263.85
783.338	36.52
783.528	-49.49
783.717	599.71
783.906	607.91
784.096	143.02
784.285	91.82
784.474	245.41
784.663	186.02
784.853	216.74
785.042	222.89
785.231	329.38
785.42	591.52
785.61	194.22
785.799	-18.77
785.988	194.22
786.177	429.73
786.366	83.63
786.555	296.61
786.744	616.1
786.933	345.77
787.122	-82.26
787.312	-190.8
787.501	306.85
787.69	517.79
787.879	116.39
788.068	126.63
788.257	124.58
788.445	282.28
788.634	167.59
788.823	28.33
789.012	1001.12
789.201	792.22
789.39	169.64
789.579	100.01
789.768	337.57
789.957	380.58
790.145	143.02
790.334	-198.99
790.523	337.57
790.712	325.29
790.9	169.64
791.089	-14.68
791.278	657.06
791.467	405.16
791.655	376.48
791.844	616.1
792.033	269.99
792.221	319.14
792.41	317.09
792.599	5.8
792.787	573.09
792.976	587.43
793.164	18.09
793.353	153.26
793.541	583.33
793.73	429.73
793.918	173.74
794.107	124.58
794.295	368.29
794.484	444.07
794.672	173.74
794.861	134.82
795.049	519.84
795.238	788.13
795.426	63.15
795.614	192.17
795.803	505.51
795.991	642.72
796.179	91.82
796.368	153.26
796.556	601.76
796.744	216.74
796.932	75.43
797.121	54.95
797.309	409.25
797.497	579.23
797.685	149.16
797.874	11.95
798.062	407.2
798.25	755.36
798.438	48.81
798.626	26.28
798.814	337.57
799.002	954.01
799.19	290.47
799.378	65.19
799.566	714.4
799.755	675.49
799.943	405.16
800.131	151.21
800.318	460.45
800.506	507.55
800.694	157.35
800.882	296.61
801.07	720.54
801.258	370.34
801.446	120.49
801.634	124.58
801.822	343.72
802.01	353.96
802.197	163.5
802.385	294.57
802.573	519.84
802.761	304.81
802.949	155.3
803.136	9.9
803.324	632.48
803.512	421.54
803.699	255.65
803.887	-12.63
804.075	759.46
804.262	448.16
804.45	-12.63
804.638	306.85
804.825	192.17
805.013	403.11
805.201	222.89
805.388	26.28
805.576	442.02
805.763	802.46
805.951	75.43
806.138	304.81
806.326	810.65
806.513	595.62
806.701	173.74
806.888	67.24
807.075	468.64
807.263	829.09
807.45	40.62
807.638	370.34
807.825	886.43
808.012	757.41
808.2	259.75
808.387	403.11
808.574	566.95
808.761	865.95
808.949	104.11
809.136	286.37
809.323	278.18
809.51	427.68
809.698	462.5
809.885	288.42
810.072	605.86
810.259	657.06
810.446	321.19
810.633	239.27
810.82	704.16
811.008	810.65
811.195	358.05
811.382	296.61
811.569	356.01
811.756	122.54
811.943	233.13
812.13	138.92
812.317	341.67
812.504	298.66
812.691	226.98
812.878	337.57
813.064	755.36
813.251	417.44
813.438	30.38
813.625	308.9
813.812	485.03
813.999	403.11
814.186	210.6
814.372	261.8
814.559	521.89
814.746	747.17
814.933	212.65
815.12	376.48
815.306	431.78
815.493	263.85
815.68	235.18
815.866	175.78
816.053	781.98
816.24	945.82
816.426	302.76
816.613	149.16
816.799	583.33
816.986	716.45
817.173	218.79
817.359	171.69
817.546	568.99
817.732	224.94
817.919	-35.16
818.105	341.67
818.292	292.52
818.478	558.75
818.665	405.16
818.851	145.06
819.037	1001.12
819.224	485.03
819.41	83.63
819.597	143.02
819.783	870.05
819.969	642.72
820.156	325.29
820.342	183.98
820.528	1164.95
820.714	423.59
820.901	462.5
821.087	272.04
821.273	853.66
821.459	421.54
821.646	26.28
821.832	140.97
822.018	478.88
822.204	519.84
822.39	288.42
822.576	100.01
822.762	685.73
822.948	577.19
823.134	446.12
823.32	302.76
823.507	278.18
823.693	624.29
823.879	626.34
824.065	239.27
824.25	542.37
824.436	272.04
824.622	159.4
824.808	124.58
824.994	341.67
825.18	360.1
825.366	132.78
825.552	161.45
825.738	472.74
825.923	685.73
826.109	431.78
826.295	282.28
826.481	431.78
826.667	413.35
826.852	321.19
827.038	95.91
827.224	753.31
827.409	900.76
827.595	104.11
827.781	401.06
827.966	685.73
828.152	761.5
828.338	308.9
828.523	93.87
828.709	378.53
828.894	755.36
829.08	353.96
829.266	100.01
829.451	399.01
829.637	736.93
829.822	339.62
830.008	214.7
830.193	716.45
830.378	929.44
830.564	284.33
830.749	194.22
830.935	679.58
831.12	743.07
831.305	216.74
831.491	319.14
831.676	325.29
831.861	771.74
832.047	347.81
832.232	186.02
832.417	913.05
832.602	548.51
832.788	120.49
832.973	161.45
833.158	511.65
833.343	497.32
833.528	366.25
833.714	339.62
833.899	790.17
834.084	1031.83
834.269	513.7
834.454	286.37
834.639	796.32
834.824	470.69
835.009	509.6
835.194	435.88
835.379	620.19
835.564	880.29
835.749	339.62
835.934	93.87
836.119	738.98
836.304	532.13
836.489	247.46
836.674	548.51
836.859	382.63
837.044	849.57
837.228	319.14
837.413	186.02
837.598	630.43
837.783	695.97
837.968	349.86
838.152	167.59
838.337	151.21
838.522	947.87
838.707	714.4
838.891	446.12
839.076	669.34
839.261	724.64
839.445	231.08
839.63	403.11
839.815	1001.12
839.999	517.79
840.184	245.41
840.368	292.52
840.553	800.41
840.737	786.08
840.922	274.09
841.106	186.02
841.291	351.91
841.475	618.15
841.66	235.18
841.844	306.85
842.029	1259.16
842.213	243.37
842.397	329.38
842.582	91.82
842.766	863.9
842.951	814.75
843.135	300.71
843.319	372.39
843.504	536.23
843.688	718.5
843.872	157.35
844.056	179.88
844.241	763.55
844.425	573.09
844.609	540.32
844.793	118.44
844.977	722.59
845.161	571.04
845.346	157.35
845.53	282.28
845.714	462.5
845.898	956.06
846.082	108.2
846.266	313
846.45	497.32
846.634	661.15
846.818	229.03
847.002	519.84
847.186	829.09
847.37	399.01
847.554	300.71
847.738	360.1
847.922	560.8
848.106	716.45
848.29	214.7
848.473	306.85
848.657	790.17
848.841	517.79
849.025	292.52
849.209	120.49
849.392	679.58
849.576	546.47
849.76	50.86
849.944	407.2
850.127	822.94
850.311	272.04
850.495	177.83
850.678	75.43
850.862	855.71
851.046	964.25
851.229	583.33
851.413	171.69
851.596	595.62
851.78	528.03
851.964	462.5
852.147	394.92
852.331	1457.81
852.514	954.01
852.698	390.82
852.881	206.5
853.065	745.12
853.248	542.37
853.431	511.65
853.615	317.09
853.798	1197.72
853.982	607.91
854.165	515.75
854.348	321.19
854.532	360.1
854.715	421.54
854.898	411.3
855.081	347.81
855.265	904.86
855.448	968.35
855.631	325.29
855.814	294.57
855.997	779.93
856.181	564.9
856.364	425.64
856.547	161.45
856.73	624.29
856.913	558.75
857.096	204.46
857.279	446.12
857.462	468.64
857.645	890.53
857.828	446.12
858.011	427.68
858.194	513.7
858.377	779.93
858.56	282.28
858.743	321.19
858.926	349.86
859.109	763.55
859.292	249.51
859.475	106.15
859.658	857.76
859.841	759.46
860.023	163.5
860.206	231.08
860.389	581.28
860.572	870.05
860.755	321.19
860.937	282.28
861.12	642.72
861.303	655.01
861.486	382.63
861.668	161.45
861.851	802.46
862.034	681.63
862.216	423.59
862.399	161.45
862.581	761.5
862.764	1130.14
862.947	458.4
863.129	216.74
863.312	364.2
863.494	1017.5
863.677	573.09
863.859	173.74
864.042	765.6
864.224	935.58
864.406	339.62
864.589	97.96
864.771	712.35
864.954	403.11
865.136	313
865.318	198.31
865.501	773.79
865.683	196.26
865.865	390.82
866.048	292.52
866.23	640.67
866.412	612
866.594	272.04
866.777	464.55
866.959	818.85
867.141	405.16
867.323	583.33
867.505	478.88
867.687	505.51
867.869	624.29
868.052	370.34
868.234	317.09
868.416	493.22
868.598	820.89
868.78	259.75
868.962	218.79
869.144	896.67
869.326	839.33
869.508	376.48
869.69	310.95
869.872	462.5
870.054	874.14
870.236	233.13
870.417	296.61
870.599	489.12
870.781	935.58
870.963	482.98
871.145	214.7
871.327	362.15
871.508	855.71
871.69	235.18
871.872	401.06
872.054	558.75
872.235	790.17
872.417	403.11
872.599	274.09
872.78	1101.47
872.962	683.68
873.144	196.26
873.325	321.19
873.507	1025.69
873.689	704.16
873.87	226.98
874.052	417.44
874.233	587.43
874.415	886.43
874.596	368.29
874.778	292.52
874.959	642.72
875.141	822.94
875.322	405.16
875.503	290.47
875.685	630.43
875.866	169.64
876.048	288.42
876.229	165.54
876.41	583.33
876.592	704.16
876.773	226.98
876.954	116.39
877.136	923.29
877.317	456.36
877.498	226.98
877.679	372.39
877.86	700.06
878.042	509.6
878.223	321.19
878.404	599.71
878.585	853.66
878.766	1156.76
878.947	573.09
879.128	497.32
879.309	775.84
879.49	906.91
879.672	448.16
879.853	403.11
880.034	499.36
880.215	558.75
880.396	349.86
880.576	362.15
880.757	405.16
880.938	964.25
881.119	319.14
881.3	390.82
881.481	407.2
881.662	1455.76
881.843	292.52
882.023	155.3
882.204	833.18
882.385	562.85
882.566	360.1
882.747	284.33
882.927	577.19
883.108	681.63
883.289	292.52
883.469	482.98
883.65	521.89
883.831	636.58
884.011	587.43
884.192	394.92
884.373	853.66
884.553	730.78
884.734	399.01
884.914	650.91
885.095	1193.62
885.275	1013.4
885.456	755.36
885.636	214.7
885.817	663.2
885.997	568.99
886.178	272.04
886.358	480.93
886.538	730.78
886.719	1549.97
886.899	401.06
887.08	472.74
887.26	1003.16
887.44	525.99
887.621	206.5
887.801	552.61
887.981	1230.49
888.161	956.06
888.342	505.51
888.522	454.31
888.702	839.33
888.882	1021.6
889.062	581.28
889.242	134.82
889.423	1074.84
889.603	720.54
889.783	597.67
889.963	394.92
890.143	890.53
890.323	929.44
890.503	349.86
890.683	491.17
890.863	675.49
891.043	796.32
891.223	499.36
891.403	698.02
891.583	738.98
891.763	743.07
891.943	456.36
892.122	468.64
892.302	743.07
892.482	679.58
892.662	607.91
892.842	499.36
893.022	843.42
893.201	622.24
893.381	620.19
893.561	532.13
893.741	804.51
893.92	937.63
894.1	587.43
894.28	679.58
894.459	958.11
894.639	820.89
894.819	468.64
894.998	646.82
895.178	788.13
895.357	777.89
895.537	509.6
895.716	308.9
895.896	708.26
896.075	1134.23
896.255	452.26
896.434	249.51
896.614	968.35
896.793	1044.12
896.973	698.02
897.152	534.18
897.331	878.24
897.511	1011.36
897.69	341.67
897.87	626.34
898.049	945.82
898.228	687.78
898.407	665.25
898.587	642.72
898.766	624.29
898.945	1007.26
899.124	648.86
899.304	706.21
899.483	941.72
899.662	1230.49
899.841	532.13
900.02	429.73
900.199	988.83
900.378	921.24
900.557	419.49
900.737	423.59
900.916	837.28
901.095	992.92
901.274	755.36
901.453	439.97
901.632	601.76
901.811	566.95
901.989	530.08
902.168	462.5
902.347	906.91
902.526	704.16
902.705	564.9
902.884	612
903.063	1093.27
903.242	1107.61
903.42	519.84
903.599	599.71
903.778	1001.12
903.957	1156.76
904.135	554.66
904.314	583.33
904.493	919.2
904.672	902.81
904.85	452.26
905.029	487.08
905.207	872.09
905.386	1480.34
905.565	427.68
905.743	546.47
905.922	702.11
906.1	980.64
906.279	427.68
906.457	532.13
906.636	652.96
906.814	675.49
906.993	525.99
907.171	501.41
907.35	964.25
907.528	945.82
907.707	767.65
907.885	378.53
908.063	1189.53
908.242	532.13
908.42	485.03
908.598	317.09
908.777	894.62
908.955	747.17
909.133	706.21
909.311	460.45
909.49	693.92
909.668	693.92
909.846	571.04
910.024	360.1
910.202	685.73
910.38	824.99
910.559	444.07
910.737	444.07
910.915	837.28
911.093	863.9
911.271	501.41
911.449	712.35
911.627	861.85
911.805	1324.69
911.983	532.13
912.161	401.06
912.339	888.48
912.517	927.39
912.695	732.83
912.872	521.89
913.05	595.62
913.228	808.61
913.406	497.32
913.584	442.02
913.762	986.78
913.939	609.95
914.117	435.88
914.295	339.62
914.473	943.77
914.65	845.47
914.828	525.99
915.006	511.65
915.184	591.52
915.361	779.93
915.539	609.95
915.716	751.26
915.894	970.4
916.072	876.19
916.249	790.17
916.427	648.86
916.604	470.69
916.782	859.81
916.959	435.88
917.137	509.6
917.314	798.37
917.492	931.48
917.669	603.81
917.847	493.22
918.024	1027.74
918.201	519.84
918.379	632.48
918.556	620.19
918.733	1015.45
918.911	652.96
919.088	681.63
919.265	480.93
919.442	845.47
919.62	765.6
919.797	403.11
919.974	394.92
920.151	775.84
920.328	888.48
920.506	435.88
920.683	763.55
920.86	560.8
921.037	607.91
921.214	556.71
921.391	493.22
921.568	994.97
921.745	640.67
921.922	505.51
922.099	392.87
922.276	1027.74
922.453	894.62
922.63	458.4
922.807	861.85
922.984	792.22
923.161	534.18
923.338	534.18
923.514	472.74
923.691	788.13
923.868	923.29
924.045	431.78
924.222	460.45
924.399	781.98
924.575	1050.27
924.752	583.33
924.929	532.13
925.105	839.33
925.282	407.2
925.459	530.08
925.635	468.64
925.812	708.26
925.989	558.75
926.165	566.95
926.342	380.58
926.518	454.31
926.695	734.88
926.871	515.75
927.048	366.25
927.224	894.62
927.401	603.81
927.577	556.71
927.754	280.23
927.93	1013.4
928.107	931.48
928.283	341.67
928.459	607.91
928.636	779.93
928.812	689.82
928.988	419.49
929.165	257.7
929.341	681.63
929.517	757.41
929.693	767.65
929.87	304.81
930.046	771.74
930.222	525.99
930.398	362.15
930.574	552.61
930.751	704.16
930.927	560.8
931.103	403.11
931.279	503.46
931.455	444.07
931.631	822.94
931.807	163.5
931.983	323.24
932.159	347.81
932.335	661.15
932.511	407.2
932.687	444.07
932.863	730.78
933.039	624.29
933.215	331.43
933.391	325.29
933.566	558.75
933.742	691.87
933.918	429.73
934.094	226.98
934.27	601.76
934.445	724.64
934.621	431.78
934.797	286.37
934.973	763.55
935.148	704.16
935.324	263.85
935.5	161.45
935.675	919.2
935.851	724.64
936.027	304.81
936.202	407.2
936.378	661.15
936.553	519.84
936.729	700.06
936.904	218.79
937.08	392.87
937.255	442.02
937.431	218.79
937.606	259.75
937.782	448.16
937.957	538.27
938.133	214.7
938.308	292.52
938.483	620.19
938.659	261.8
938.834	374.44
939.009	167.59
939.185	431.78
939.36	267.94
939.535	-6.49
939.71	372.39
939.886	732.83
940.061	562.85
940.236	509.6
940.411	263.85
940.586	630.43
940.761	550.56
940.937	183.98
941.112	163.5
941.287	515.75
941.462	505.51
941.637	77.48
941.812	288.42
941.987	597.67
942.162	372.39
942.337	243.37
942.512	145.06
942.687	616.1
942.862	671.39
943.037	65.19
943.212	-139.6
943.386	362.15
943.561	442.02
943.736	353.96
943.911	450.21
944.086	480.93
944.26	550.56
944.435	186.02
944.61	247.46
944.785	640.67
944.959	802.46
945.134	210.6
945.309	116.39
945.483	165.54
945.658	667.3
945.833	-104.79
946.007	50.86
946.182	769.69
946.357	181.93
946.531	95.91
946.706	87.72
946.88	40.62
947.055	515.75
947.229	5.8
947.404	42.67
947.578	525.99
947.752	263.85
947.927	-41.3
948.101	-12.63
948.276	341.67
948.45	423.59
948.624	329.38
948.799	91.82
948.973	476.84
949.147	128.68
949.321	118.44
949.496	161.45
949.67	655.01
949.844	317.09
950.018	181.93
950.193	165.54
950.367	888.48
950.541	280.23
950.715	198.31
950.889	257.7
951.063	290.47
951.237	536.23
951.411	-55.64
951.585	9.9
951.759	515.75
951.933	394.92
952.107	77.48
952.281	251.56
952.455	763.55
952.629	573.09
952.803	108.2
952.977	93.87
953.151	566.95
953.325	437.92
953.499	347.81
953.672	-43.35
953.846	130.73
954.02	378.53
954.194	20.14
954.368	67.24
954.541	579.23
954.715	216.74
954.889	269.99
955.062	34.47
955.236	255.65
955.41	304.81
955.583	304.81
955.757	63.15
955.93	243.37
956.104	192.17
956.278	110.25
956.451	106.15
956.625	507.55
956.798	759.46
956.972	407.2
957.145	67.24
957.319	351.91
957.492	310.95
957.665	222.89
957.839	138.92
958.012	399.01
958.185	231.08
958.359	134.82
958.532	345.77
958.705	583.33
958.879	423.59
959.052	239.27
959.225	-6.49
959.398	394.92
959.572	351.91
959.745	165.54
959.918	102.06
960.091	304.81
960.264	454.31
960.438	-10.58
960.611	40.62
960.784	605.86
960.957	239.27
961.13	489.12
961.303	106.15
961.476	331.43
961.649	601.76
961.822	95.91
961.995	192.17
962.168	532.13
962.341	450.21
962.514	177.83
962.686	87.72
962.859	390.82
963.032	474.79
963.205	50.86
963.378	-82.26
963.551	460.45
963.723	380.58
963.896	222.89
964.069	315.05
964.242	321.19
964.414	577.19
964.587	85.67
964.76	124.58
964.932	427.68
965.105	280.23
965.278	89.77
965.45	52.91
965.623	419.49
965.795	419.49
965.968	151.21
966.14	128.68
966.313	304.81
966.485	380.58
966.658	173.74
966.83	79.53
967.003	673.44
967.175	550.56
967.348	237.22
967.52	130.73
967.692	804.51
967.865	523.94
968.037	143.02
968.209	489.12
968.382	343.72
968.554	534.18
968.726	171.69
968.898	118.44
969.071	362.15
969.243	468.64
969.415	229.03
969.587	188.07
969.759	808.61
969.932	587.43
970.104	200.36
970.276	-121.17
970.448	261.8
970.62	198.31
970.792	276.13
970.964	161.45
971.136	837.28
971.308	468.64
971.48	50.86
971.652	9.9
971.824	640.67
971.996	321.19
972.168	153.26
972.339	112.3
972.511	536.23
972.683	327.33
972.855	315.05
973.027	239.27
973.199	419.49
973.37	487.08
973.542	206.5
973.714	302.76
973.886	345.77
974.057	657.06
974.229	52.91
974.401	157.35
974.572	106.15
974.744	-10.58
974.915	69.29
975.087	54.95
975.259	818.85
975.43	161.45
975.602	169.64
975.773	20.14
975.945	173.74
976.116	640.67
976.288	42.67
976.459	255.65
976.63	267.94
976.802	386.72
976.973	108.2
977.145	290.47
977.316	853.66
977.487	409.25
977.659	343.72
977.83	69.29
978.001	700.06
978.172	464.55
978.344	52.91
978.515	136.87
978.686	196.26
978.857	722.59
979.028	140.97
979.2	50.86
979.371	538.27
979.542	378.53
979.713	255.65
979.884	-278.87
980.055	128.68
980.226	280.23
980.397	175.78
980.568	44.71
980.739	618.15
980.91	333.48
981.081	282.28
981.252	118.44
981.423	517.79
981.594	546.47
981.765	-78.16
981.936	194.22
982.106	394.92
982.277	652.96
982.448	91.82
982.619	235.18
982.79	284.33
982.96	558.75
983.131	261.8
983.302	-92.5
983.472	308.9
983.643	448.16
983.814	282.28
983.984	114.34
984.155	276.13
984.326	634.53
984.496	243.37
984.667	157.35
984.837	222.89
985.008	693.92
985.178	321.19
985.349	130.73
985.519	351.91
985.69	165.54
985.86	163.5
986.031	42.67
986.201	366.25
986.371	534.18
986.542	75.43
986.712	-135.51
986.882	435.88
987.053	421.54
987.223	71.34
987.393	288.42
987.563	267.94
987.734	493.22
987.904	341.67
988.074	83.63
988.244	372.39
988.414	210.6
988.585	5.8
988.755	233.13
988.925	308.9
989.095	708.26
989.265	79.53
989.435	186.02
989.605	435.88
989.775	460.45
989.945	360.1
990.115	34.47
990.285	325.29
990.455	439.97
990.625	138.92
990.795	-22.87
990.965	726.69
991.134	124.58
991.304	30.38
991.474	100.01
991.644	517.79
991.814	763.55
991.984	46.76
992.153	108.2
992.323	399.01
992.493	396.96
992.662	-141.65
992.832	208.55
993.002	435.88
993.171	388.77
993.341	-133.46
993.511	206.5
993.68	210.6
993.85	554.66
994.019	-22.87
994.189	-67.92
994.358	308.9
994.528	251.56
994.697	-227.67
994.867	-78.16
995.036	493.22
995.206	251.56
995.375	-53.59
995.544	157.35
995.714	437.92
995.883	280.23
996.052	128.68
996.222	-164.18
996.391	800.41
996.56	421.54
996.73	-51.54
996.899	-115.03
997.068	595.62
997.237	319.14
997.406	-112.98
997.576	-112.98
997.745	331.43
997.914	288.42
998.083	-229.71
998.252	-29.01
998.421	280.23
998.59	116.39
998.759	-24.92
998.928	-219.47
999.097	603.81
999.266	323.24
999.435	132.78
999.604	-242
999.773	767.65
999.942	218.79
1000.111	-213.33
1000.28	-233.81
1000.448	18.09
1000.617	32.43
1000.786	161.45
1000.955	-63.83
1001.124	435.88
1001.292	941.72
1001.461	-51.54
1001.63	-74.07
1001.798	601.76
1001.967	579.23
1002.136	-115.03
1002.304	-55.64
1002.473	304.81
1002.642	286.37
1002.81	89.77
1002.979	-190.8
1003.147	437.92
1003.316	820.89
1003.484	-31.06
1003.653	-108.88
1003.821	581.28
1003.99	302.76
1004.158	102.06
1004.327	97.96
1004.495	382.63
1004.663	32.43
1004.832	108.2
1005	-237.91
1005.168	401.06
1005.337	298.66
1005.505	-190.8
1005.673	63.15
1005.842	349.86
1006.01	427.68
1006.178	-172.37
1006.346	-106.84
1006.514	310.95
1006.683	589.47
1006.851	-57.68
1007.019	-188.75
1007.187	7.85
1007.355	-172.37
1007.523	-244.05
1007.691	-100.69
1007.859	-47.44
1008.027	583.33
1008.195	-145.75
1008.363	-164.18
1008.531	360.1
1008.699	71.34
1008.867	-221.52
1009.035	-67.92
1009.203	464.55
1009.37	274.09
1009.538	-115.03
1009.706	310.95
1009.874	388.77
1010.042	181.93
1010.209	-162.13
1010.377	-170.32
1010.545	513.7
1010.713	153.26
1010.88	-123.22
1011.048	-67.92
1011.216	159.4
1011.383	573.09
1011.551	-115.03
1011.718	-170.32
1011.886	464.55
1012.054	280.23
1012.221	-203.09
1012.389	-155.99
1012.556	300.71
1012.724	632.48
1012.891	-86.36
1013.058	-297.3
1013.226	405.16
1013.393	427.68
1013.561	-229.71
1013.728	-258.39
1013.895	487.08
1014.063	306.85
1014.23	-174.42
1014.397	-104.79
1014.565	435.88
1014.732	216.74
1014.899	-174.42
1015.066	-188.75
1015.233	233.13
1015.401	405.16
1015.568	-133.46
1015.735	-69.97
1015.902	253.61
1016.069	321.19
1016.236	-127.32
1016.403	-201.04
1016.57	108.2
1016.737	374.44
1016.904	-31.06
1017.071	-256.34
1017.238	16.04
1017.405	489.12
1017.572	-168.27
1017.739	100.01
1017.906	370.34
1018.073	534.18
1018.24	-272.72
1018.407	-90.45
1018.573	558.75
1018.74	147.11
1018.907	-43.35
1019.074	-258.39
1019.241	464.55
1019.407	298.66
1019.574	-229.71
1019.741	-209.23
1019.907	335.53
1020.074	341.67
1020.241	-346.45
1020.407	-203.09
1020.574	382.63
1020.74	366.25
1020.907	-47.44
1021.073	-117.08
1021.24	808.61
1021.406	507.55
1021.573	-301.39
1021.739	-151.89
1021.906	493.22
1022.072	140.97
1022.239	-166.23
1022.405	-129.36
1022.571	226.98
1022.738	65.19
1022.904	-100.69
1023.07	-31.06
1023.237	253.61
1023.403	534.18
1023.569	-100.69
1023.735	-39.25
1023.902	351.91
1024.068	280.23
1024.234	-203.09
1024.4	-207.19
1024.566	296.61
1024.732	394.92
1024.898	-192.85
1025.065	-256.34
1025.231	392.87
1025.397	149.16
1025.563	-80.21
1025.729	-205.14
1025.895	-215.38
1026.061	18.09
1026.227	-307.54
1026.392	-65.88
1026.558	503.46
1026.724	333.48
1026.89	-209.23
1027.056	-137.56
1027.222	349.86
1027.388	179.88
1027.553	-133.46
1027.719	-201.04
1027.885	585.38
1028.051	343.72
1028.216	-350.54
1028.382	-186.71
1028.548	378.53
1028.713	140.97
1028.879	-227.67
1029.045	32.43
1029.21	446.12
1029.376	466.6
1029.541	-143.7
1029.707	-100.69
1029.873	284.33
1030.038	386.72
1030.204	-145.75
1030.369	-188.75
1030.534	442.02
1030.7	134.82
1030.865	-198.99
1031.031	-225.62
1031.196	304.81
1031.361	202.41
1031.527	-158.03
1031.692	-207.19
1031.857	-127.32
1032.023	294.57
1032.188	-174.42
1032.353	-141.65
1032.518	550.56
1032.684	343.72
1032.849	-295.25
1033.014	-61.78
1033.179	464.55
1033.344	347.81
1033.509	-61.78
1033.674	-215.38
1033.839	415.4
1034.004	339.62
1034.17	-215.38
1034.335	-211.28
1034.5	181.93
1034.664	61.1
1034.829	-137.56
1034.994	-158.03
1035.159	263.85
1035.324	265.89
1035.489	-205.14
1035.654	-225.62
1035.819	556.71
1035.984	253.61
1036.148	-31.06
1036.313	-100.69
1036.478	315.05
1036.643	235.18
1036.807	-215.38
1036.972	-227.67
1037.137	566.95
1037.301	276.13
1037.466	-350.54
1037.631	-31.06
1037.795	573.09
1037.96	353.96
1038.124	-49.49
1038.289	-303.44
1038.454	353.96
1038.618	343.72
1038.783	-153.94
1038.947	-80.21
1039.111	296.61
1039.276	75.43
1039.44	-223.57
1039.605	282.28
1039.769	204.46
1039.933	165.54
1040.098	-16.73
1040.262	181.93
1040.426	415.4
1040.591	261.8
1040.755	-213.33
1040.919	-215.38
1041.083	392.87
1041.248	181.93
1041.412	-235.86
1041.576	-209.23
1041.74	128.68
1041.904	415.4
1042.068	-268.63
1042.232	-76.12
1042.397	403.11
1042.561	353.96
1042.725	-282.96
1042.889	-88.4
1043.053	347.81
1043.217	362.15
1043.381	-72.02
1043.544	-268.63
1043.708	566.95
1043.872	-188.75
1044.036	-350.54
1044.2	-260.43
1044.364	411.3
1044.528	577.19
1044.691	1283.74
1044.855	-211.28
1045.019	472.74
1045.183	386.72
1045.346	-72.02
1045.51	-190.8
1045.674	315.05
1045.837	378.53
1046.001	-80.21
1046.165	-184.66
1046.328	829.09
1046.492	280.23
1046.655	-12.63
1046.819	-29.01
1046.983	85.67
1047.146	251.56
1047.31	-108.88
1047.473	-407.89
1047.636	220.84
1047.8	18.09
1047.963	-110.93
1048.127	-203.09
1048.29	69.29
