Data from Ink_Intensity_USB4F045381__166__00166.txt Node

Date: Mon Jul 17 11:35:25 EDT 2023
User: mmckonesweet
Spectrometer: USB4F04538
Trigger mode: 4
Integration Time (sec): 9.000000E-1
Scans to average: 1
Electric dark correction enabled: true
Nonlinearity correction enabled: false
Boxcar width: 0
XAxis mode: Wavelengths
Number of Pixels in Spectrum: 3648
>>>>>Begin Spectral Data<<<<<
345.52	-964.08
345.736	-964.08
345.952	-964.08
346.168	-1070.58
346.384	-1017.33
346.6	-140.8
346.816	-216.57
347.032	-183.81
347.248	283.13
347.464	-271.87
347.68	-108.03
347.896	158.21
348.112	256.51
348.328	-69.12
348.544	-42.5
348.76	35.33
348.975	299.52
349.191	-212.48
349.407	-218.62
349.623	51.71
349.839	-124.41
350.055	-235
350.27	45.57
350.486	174.59
350.702	334.33
350.918	164.35
351.133	-280.06
351.349	76.29
351.565	334.33
351.781	-226.81
351.996	-11.78
352.212	274.94
352.428	-157.18
352.644	-175.61
352.859	-218.62
353.075	242.17
353.291	133.63
353.506	-118.27
353.722	-321.02
353.938	-77.31
354.153	442.87
354.369	68.09
354.584	-200.19
354.8	213.5
355.016	-415.23
355.231	-321.02
355.447	-54.78
355.662	190.97
355.878	782.84
356.093	-394.75
356.309	-85.5
356.524	-243.2
356.74	293.37
356.955	-249.34
357.171	-69.12
357.386	121.34
357.602	-337.4
357.817	-60.93
358.033	-192
358.248	348.67
358.464	133.63
358.679	-161.28
358.895	-333.31
359.11	2.56
359.325	281.08
359.541	37.38
359.756	-9.73
359.972	-349.69
360.187	193.02
360.402	-228.86
360.618	-220.67
360.833	1010.16
361.048	152.06
361.264	-161.28
361.479	-132.61
361.694	-42.5
361.909	168.45
362.125	-157.18
362.34	-138.75
362.555	219.64
362.77	2.56
362.986	-269.82
363.201	-218.62
363.416	139.77
363.631	92.67
363.847	-210.43
364.062	-325.12
364.277	201.21
364.492	70.14
364.707	-65.02
364.922	-382.46
365.138	244.22
365.353	289.28
365.568	-310.78
365.783	-165.37
365.998	-60.93
366.213	530.94
366.428	-255.48
366.643	2.56
366.858	186.88
367.073	150.01
367.288	-222.72
367.503	-235
367.718	80.38
367.933	352.76
368.148	-407.03
368.363	-91.65
368.578	4.61
368.793	487.93
369.008	-128.51
369.223	-261.63
369.438	174.59
369.653	342.52
369.868	-210.43
370.083	-228.86
370.298	35.33
370.513	403.96
370.728	41.47
370.943	-226.81
371.157	-128.51
371.372	401.91
371.587	-224.76
371.802	-325.12
372.017	18.94
372.232	422.39
372.446	-32.26
372.661	-284.16
372.876	160.25
373.091	203.26
373.306	-48.64
373.52	-327.16
373.735	-192
373.95	408.06
374.165	-71.17
374.379	-77.31
374.594	-202.24
374.809	160.25
375.023	-9.73
375.238	-300.54
375.453	207.36
375.667	-275.96
375.882	-173.57
376.097	-257.53
376.311	51.71
376.526	-24.06
376.741	-228.86
376.955	104.96
377.17	430.59
377.384	528.89
377.599	-136.7
377.813	-249.34
378.028	649.72
378.242	145.92
378.457	-142.85
378.672	-355.83
378.886	78.33
379.101	-83.45
379.315	-366.07
379.53	-206.33
379.744	244.22
379.958	154.11
380.173	-161.28
380.387	-155.13
380.602	125.44
380.816	-101.89
381.031	-235
381.245	-183.81
381.459	182.78
381.674	2683.35
381.888	-370.17
382.103	82.43
382.317	-167.42
382.531	420.35
382.746	-97.79
382.96	-181.76
383.174	-181.76
383.388	436.73
383.603	31.23
383.817	-298.49
384.031	80.38
384.246	489.98
384.46	23.04
384.674	320
384.888	-22.02
385.103	43.52
385.317	-310.78
385.531	-93.69
385.745	332.28
385.959	268.8
386.174	-230.91
386.388	-286.2
386.602	-77.31
386.816	-126.46
387.03	-79.36
387.244	-140.8
387.458	53.76
387.672	238.08
387.887	-249.34
388.101	-275.96
388.315	336.38
388.529	88.57
388.743	-140.8
388.957	-275.96
389.171	246.27
389.385	-120.32
389.599	-185.85
389.813	23.04
390.027	150.01
390.241	635.38
390.455	-124.41
390.669	-122.37
390.883	-105.98
391.097	320
391.311	23.04
391.525	-169.47
391.738	162.3
391.952	231.93
392.166	-71.17
392.38	-216.57
392.594	264.7
392.808	324.09
393.022	-128.51
393.236	-181.76
393.449	248.32
393.663	203.26
393.877	-241.15
394.091	-142.85
394.305	-44.54
394.518	-128.51
394.732	-292.35
394.946	-165.37
395.16	410.11
395.373	170.49
395.587	-310.78
395.801	-226.81
396.015	315.9
396.228	131.58
396.442	-280.06
396.656	-380.41
396.869	406.01
397.083	422.39
397.297	-99.84
397.51	-206.33
397.724	301.56
397.938	113.15
398.151	-345.59
398.365	-288.25
398.578	170.49
398.792	305.66
399.005	-69.12
399.219	-171.52
399.433	82.43
399.646	154.11
399.86	16.9
400.073	-52.74
400.287	248.32
400.5	-95.74
400.714	-118.27
400.927	-71.17
401.141	248.32
401.354	1067.5
401.567	14.85
401.781	-304.64
401.994	211.45
402.208	602.61
402.421	-194.05
402.635	-173.57
402.848	6.66
403.061	264.7
403.275	-28.16
403.488	-321.02
403.701	422.39
403.915	242.17
404.128	-24.06
404.341	-216.57
404.555	164.35
404.768	-17.92
404.981	-58.88
405.195	-192
405.408	494.07
405.621	190.97
405.834	6.66
406.048	-312.83
406.261	338.43
406.474	444.92
406.687	-183.81
406.9	-128.51
407.114	-13.82
407.327	158.21
407.54	-345.59
407.753	-284.16
407.966	-210.43
408.179	164.35
408.392	-189.95
408.605	-370.17
408.819	129.53
409.032	76.29
409.245	-214.52
409.458	59.9
409.671	332.28
409.884	252.41
410.097	-306.68
410.31	-89.6
410.523	160.25
410.736	-58.88
410.949	-138.75
411.162	-169.47
411.375	373.24
411.588	258.56
411.801	-32.26
412.014	-196.09
412.227	-3.58
412.44	39.42
412.653	-163.33
412.865	-140.8
413.078	270.84
413.291	133.63
413.504	-99.84
413.717	-245.24
413.93	178.69
414.143	-118.27
414.356	-108.03
414.568	-318.97
414.781	188.93
414.994	227.84
415.207	-114.17
415.42	-120.32
415.632	264.7
415.845	477.69
416.058	-331.26
416.271	-275.96
416.483	47.62
416.696	502.26
416.909	-230.91
417.121	-224.76
417.334	166.4
417.547	494.07
417.759	-226.81
417.972	-251.39
418.185	-32.26
418.397	274.94
418.61	-222.72
418.823	-222.72
419.035	365.05
419.248	39.42
419.46	-99.84
419.673	-157.18
419.885	158.21
420.098	-26.11
420.311	-173.57
420.523	-347.64
420.736	123.39
420.948	72.19
421.161	-249.34
421.373	-351.74
421.586	80.38
421.798	-122.37
422.01	-390.65
422.223	-95.74
422.435	-120.32
422.648	227.84
422.86	-173.57
423.073	-177.66
423.285	307.71
423.497	-263.68
423.71	-253.44
423.922	-304.64
424.134	135.68
424.347	406.01
424.559	-83.45
424.771	119.29
424.984	-46.59
425.196	104.96
425.408	-345.59
425.621	-318.97
425.833	256.51
426.045	236.03
426.257	-232.96
426.47	-165.37
426.682	86.53
426.894	145.92
427.106	-151.04
427.318	-214.52
427.531	-112.13
427.743	233.98
427.955	-216.57
428.167	229.88
428.379	190.97
428.591	-5.63
428.804	-153.09
429.016	-212.48
429.228	-91.65
429.44	72.19
429.652	-69.12
429.864	-296.44
430.076	18.94
430.288	-13.82
430.5	-159.23
430.712	-128.51
430.924	258.56
431.136	88.57
431.348	-343.55
431.56	-284.16
431.772	-58.88
431.984	-95.74
432.196	-130.56
432.408	-251.39
432.62	-34.3
432.832	162.3
433.044	84.48
433.256	-67.07
433.468	215.55
433.679	-241.15
433.891	-288.25
434.103	8.7
434.315	383.48
434.527	193.02
434.739	-159.23
434.95	-185.85
435.162	219.64
435.374	-142.85
435.586	-173.57
435.798	-271.87
436.009	-273.92
436.221	-13.82
436.433	-241.15
436.645	-173.57
436.856	-40.45
437.068	246.27
437.28	-210.43
437.491	61.95
437.703	80.38
437.915	49.66
438.126	-144.89
438.338	20.99
438.55	31.23
438.761	199.16
438.973	-273.92
439.184	-228.86
439.396	121.34
439.608	227.84
439.819	-278.01
440.031	-120.32
440.242	217.6
440.454	217.6
440.665	-173.57
440.877	-95.74
441.088	199.16
441.3	-146.94
441.511	-323.07
441.723	-235
441.934	61.95
442.146	6.66
442.357	-30.21
442.569	-85.5
442.78	111.1
442.991	401.91
443.203	70.14
443.414	-378.36
443.626	383.48
443.837	-175.61
444.048	-302.59
444.26	-374.27
444.471	68.09
444.682	250.36
444.894	-427.51
445.105	-323.07
445.316	182.78
445.528	137.73
445.739	-40.45
445.95	-194.05
446.161	76.29
446.373	219.64
446.584	-173.57
446.795	-161.28
447.006	238.08
447.217	401.91
447.429	-329.21
447.64	-222.72
447.851	317.95
448.062	100.86
448.273	-398.84
448.484	-198.14
448.695	248.32
448.907	4.61
449.118	-155.13
449.329	70.14
449.54	-81.41
449.751	-192
449.962	-181.76
450.173	-196.09
450.384	289.28
450.595	313.85
450.806	-267.77
451.017	-155.13
451.228	317.95
451.439	246.27
451.65	-226.81
451.861	-488.95
452.072	-103.93
452.283	-38.4
452.494	-42.5
452.705	-259.58
452.915	373.24
453.126	168.45
453.337	-255.48
453.548	-157.18
453.759	184.83
453.97	498.17
454.181	-3.58
454.391	-185.85
454.602	-1.54
454.813	125.44
455.024	-194.05
455.235	-175.61
455.445	188.93
455.656	172.54
455.867	-19.97
456.078	-216.57
456.288	-40.45
456.499	80.38
456.71	-194.05
456.921	29.18
457.131	147.97
457.342	123.39
457.553	-140.8
457.763	-202.24
457.974	205.31
458.184	195.07
458.395	-353.79
458.606	-368.12
458.816	233.98
459.027	483.83
459.237	-26.11
459.448	-431.61
459.659	246.27
459.869	561.66
460.08	-374.27
460.29	-128.51
460.501	510.46
460.711	-153.09
460.922	-351.74
461.132	-241.15
461.343	666.1
461.553	-261.63
461.764	-312.83
461.974	-216.57
462.184	170.49
462.395	31.23
462.605	-255.48
462.816	-325.12
463.026	131.58
463.236	346.62
463.447	-251.39
463.657	-226.81
463.867	229.88
464.078	-60.93
464.288	-183.81
464.498	-302.59
464.709	-22.02
464.919	-58.88
465.129	-177.66
465.339	-304.64
465.55	104.96
465.76	178.69
465.97	-241.15
466.18	-296.44
466.391	315.9
466.601	113.15
466.811	-169.47
467.021	-331.26
467.231	158.21
467.441	305.66
467.651	-208.38
467.862	-505.34
468.072	-48.64
468.282	367.1
468.492	-275.96
468.702	-165.37
468.912	-62.98
469.122	604.66
469.332	20.99
469.542	-329.21
469.752	131.58
469.962	14.85
470.172	-353.79
470.382	-296.44
470.592	231.93
470.802	276.99
471.012	-120.32
471.222	-267.77
471.432	246.27
471.642	158.21
471.852	-181.76
472.062	-271.87
472.272	14.85
472.482	-247.29
472.691	-359.93
472.901	-380.41
473.111	96.77
473.321	463.35
473.531	-284.16
473.741	-185.85
473.95	133.63
474.16	193.02
474.37	-175.61
474.58	-337.4
474.79	481.78
474.999	190.97
475.209	-286.2
475.419	-263.68
475.628	-58.88
475.838	252.41
476.048	-167.42
476.258	-341.5
476.467	272.89
476.677	-181.76
476.886	-56.83
477.096	-151.04
477.306	-97.79
477.515	397.82
477.725	-167.42
477.935	-181.76
478.144	377.34
478.354	-99.84
478.563	-218.62
478.773	-232.96
478.982	223.74
479.192	195.07
479.401	-120.32
479.611	-413.18
479.82	-120.32
480.03	57.86
480.239	-247.29
480.449	-302.59
480.658	436.73
480.868	-122.37
481.077	-114.17
481.287	-255.48
481.496	137.73
481.705	508.41
481.915	43.52
482.124	33.28
482.333	102.91
482.543	320
482.752	-157.18
482.961	-243.2
483.171	172.54
483.38	-71.17
483.589	-206.33
483.799	-263.68
484.008	-73.21
484.217	184.83
484.426	-245.24
484.636	-306.68
484.845	12.8
485.054	-226.81
485.263	92.67
485.472	-257.53
485.682	403.96
485.891	64
486.1	-382.46
486.309	-312.83
486.518	92.67
486.727	395.77
486.936	-345.59
487.146	-163.33
487.355	383.48
487.564	-169.47
487.773	-222.72
487.982	-202.24
488.191	-56.83
488.4	-26.11
488.609	-228.86
488.818	-282.11
489.027	569.85
489.236	379.39
489.445	-112.13
489.654	-296.44
489.863	219.64
490.072	66.05
490.281	70.14
490.49	-185.85
490.698	367.1
490.907	430.59
491.116	-210.43
491.325	-415.23
491.534	326.14
491.743	201.21
491.952	-200.19
492.16	-146.94
492.369	199.16
492.578	244.22
492.787	-187.9
492.996	-267.77
493.204	-71.17
493.413	543.22
493.622	-351.74
493.831	-407.03
494.039	387.58
494.248	-153.09
494.457	-304.64
494.665	-437.75
494.874	211.45
495.083	412.15
495.291	-54.78
495.5	-349.69
495.709	160.25
495.917	43.52
496.126	-128.51
496.335	-261.63
496.543	-30.21
496.752	117.25
496.96	-73.21
497.169	-396.79
497.377	-13.82
497.586	246.27
497.794	-85.5
498.003	-476.66
498.211	-9.73
498.42	457.21
498.628	-198.14
498.837	-288.25
499.045	170.49
499.254	76.29
499.462	-271.87
499.671	-382.46
499.879	479.74
500.087	326.14
500.296	-298.49
500.504	-230.91
500.713	152.06
500.921	596.47
501.129	-235
501.338	-237.05
501.546	45.57
501.754	20.99
501.962	-194.05
502.171	-339.45
502.379	125.44
502.587	408.06
502.795	-153.09
503.004	-220.67
503.212	90.62
503.42	246.27
503.628	-214.52
503.837	-226.81
504.045	227.84
504.253	387.58
504.461	-275.96
504.669	-368.12
504.877	184.83
505.085	373.24
505.294	-439.8
505.502	-99.84
505.71	10.75
505.918	258.56
506.126	-278.01
506.334	-284.16
506.542	-19.97
506.75	100.86
506.958	-167.42
507.166	-175.61
507.374	-52.74
507.582	500.22
507.79	-259.58
507.998	-341.5
508.206	162.3
508.414	213.5
508.622	-288.25
508.83	-208.38
509.037	438.78
509.245	8.7
509.453	-339.45
509.661	-308.73
509.869	219.64
510.077	-19.97
510.285	-103.93
510.492	-544.25
510.7	616.95
510.908	-126.46
511.116	-206.33
511.324	-325.12
511.531	-13.82
511.739	113.15
511.947	-112.13
512.155	10.75
512.362	129.53
512.57	-218.62
512.778	-253.44
512.985	-452.09
513.193	248.32
513.401	342.52
513.608	-251.39
513.816	-267.77
514.024	193.02
514.231	338.43
514.439	-255.48
514.646	-198.14
514.854	197.12
515.061	346.62
515.269	-202.24
515.477	-228.86
515.684	-144.89
515.892	215.55
516.099	-384.51
516.307	-398.84
516.514	231.93
516.722	299.52
516.929	-181.76
517.136	-357.88
517.344	363
517.551	176.64
517.759	-306.68
517.966	-292.35
518.173	-77.31
518.381	78.33
518.588	-235
518.796	-341.5
519.003	154.11
519.21	-11.78
519.418	-312.83
519.625	43.52
519.832	-38.4
520.039	98.81
520.247	-421.37
520.454	-308.73
520.661	195.07
520.868	172.54
521.076	-212.48
521.283	-204.28
521.49	578.04
521.697	131.58
521.904	-243.2
522.112	-216.57
522.319	217.6
522.526	127.49
522.733	-413.18
522.94	-275.96
523.147	61.95
523.354	256.51
523.561	-413.18
523.768	-179.71
523.975	160.25
524.183	64
524.39	-185.85
524.597	-355.83
524.804	53.76
525.011	-122.37
525.218	-341.5
525.425	-323.07
525.632	348.67
525.838	-122.37
526.045	-261.63
526.252	-284.16
526.459	1161.71
526.666	881.14
526.873	-194.05
527.08	-308.73
527.287	381.43
527.494	252.41
527.701	-341.5
527.907	-407.03
528.114	117.25
528.321	-3.58
528.528	-128.51
528.735	-345.59
528.941	-60.93
529.148	-69.12
529.355	-159.23
529.562	-271.87
529.768	432.63
529.975	-34.3
530.182	-194.05
530.388	-341.5
530.595	266.75
530.802	-230.91
531.008	-62.98
531.215	-249.34
531.422	389.63
531.628	690.68
531.835	-142.85
532.042	-259.58
532.248	-118.27
532.455	43.52
532.661	-169.47
532.868	-265.72
533.074	117.25
533.281	309.76
533.487	-167.42
533.694	-251.39
533.9	-108.03
534.107	162.3
534.313	-251.39
534.52	-398.84
534.726	223.74
534.933	565.75
535.139	-325.12
535.345	-372.22
535.552	80.38
535.758	23.04
535.965	-237.05
536.171	-259.58
536.377	180.73
536.584	403.96
536.79	-296.44
536.996	-198.14
537.203	59.9
537.409	131.58
537.615	-214.52
537.821	-192
538.028	256.51
538.234	276.99
538.44	-220.67
538.646	-257.53
538.853	129.53
539.059	37.38
539.265	121.34
539.471	-411.13
539.677	256.51
539.883	-105.98
540.09	-216.57
540.296	172.54
540.502	-1.54
540.708	-85.5
540.914	-54.78
541.12	-263.68
541.326	156.16
541.532	41.47
541.738	-110.08
541.944	-148.99
542.15	215.55
542.356	-38.4
542.562	-382.46
542.768	-275.96
542.974	659.96
543.18	584.18
543.386	-300.54
543.592	-441.85
543.798	342.52
544.004	330.23
544.21	-294.4
544.415	-171.52
544.621	88.57
544.827	274.94
545.033	-318.97
545.239	-36.35
545.445	-194.05
545.651	137.73
545.856	-271.87
546.062	-302.59
546.268	-48.64
546.474	66.05
546.679	-210.43
546.885	-198.14
547.091	-108.03
547.297	514.55
547.502	-81.41
547.708	-267.77
547.914	-146.94
548.119	125.44
548.325	-282.11
548.531	-357.88
548.736	414.2
548.942	-169.47
549.147	-216.57
549.353	-30.21
549.559	401.91
549.764	119.29
549.97	-292.35
550.175	-230.91
550.381	176.64
550.586	-77.31
550.792	-222.72
550.997	-206.33
551.203	104.96
551.408	231.93
551.614	-321.02
551.819	-304.64
552.025	412.15
552.23	518.65
552.435	-316.92
552.641	-175.61
552.846	-192
553.052	373.24
553.257	-177.66
553.462	-316.92
553.668	-169.47
553.873	227.84
554.078	-302.59
554.283	-380.41
554.489	164.35
554.694	33.28
554.899	-296.44
555.105	-79.36
555.31	127.49
555.515	244.22
555.72	-171.52
555.925	-304.64
556.131	221.69
556.336	-128.51
556.541	-235
556.746	-314.88
556.951	346.62
557.156	391.67
557.361	-83.45
557.567	-159.23
557.772	569.85
557.977	242.17
558.182	-265.72
558.387	-275.96
558.592	16.9
558.797	383.48
559.002	-144.89
559.207	-103.93
559.412	29.18
559.617	539.13
559.822	-298.49
560.027	-294.4
560.232	137.73
560.437	231.93
560.642	-396.79
560.847	-286.2
561.051	-1.54
561.256	139.77
561.461	-173.57
561.666	-357.88
561.871	127.49
562.076	301.56
562.281	-136.7
562.485	-294.4
562.69	203.26
562.895	248.32
563.1	-235
563.305	-308.73
563.509	356.86
563.714	559.61
563.919	-290.3
564.123	-359.93
564.328	53.76
564.533	461.3
564.737	-167.42
564.942	-235
565.147	424.44
565.351	520.7
565.556	-75.26
565.761	-112.13
565.965	66.05
566.17	-44.54
566.374	-210.43
566.579	-318.97
566.784	72.19
566.988	-62.98
567.193	-378.36
567.397	-280.06
567.602	-245.24
567.806	57.86
568.011	-230.91
568.215	-251.39
568.42	-34.3
568.624	-71.17
568.828	-200.19
569.033	-67.07
569.237	242.17
569.442	258.56
569.646	-325.12
569.85	-210.43
570.055	115.2
570.259	100.86
570.463	96.77
570.668	-267.77
570.872	72.19
571.076	4.61
571.281	-153.09
571.485	-89.6
571.689	41.47
571.893	102.91
572.098	-110.08
572.302	-267.77
572.506	231.93
572.71	61.95
572.914	-159.23
573.119	-308.73
573.323	399.87
573.527	461.3
573.731	-183.81
573.935	-296.44
574.139	117.25
574.343	-46.59
574.547	-200.19
574.751	-157.18
574.955	432.63
575.159	410.11
575.364	-212.48
575.568	-290.3
575.772	16.9
575.976	311.8
576.18	-288.25
576.383	-337.4
576.587	328.19
576.791	209.4
576.995	-433.66
577.199	-460.28
577.403	272.89
577.607	420.35
577.811	-288.25
578.015	-249.34
578.219	178.69
578.422	250.36
578.626	-196.09
578.83	-83.45
579.034	381.43
579.238	164.35
579.442	-267.77
579.645	115.2
579.849	51.71
580.053	113.15
580.257	-163.33
580.46	-138.75
580.664	317.95
580.868	301.56
581.071	-13.82
581.275	-173.57
581.479	-206.33
581.682	252.41
581.886	-206.33
582.09	-181.76
582.293	309.76
582.497	248.32
582.7	-48.64
582.904	-239.1
583.107	123.39
583.311	57.86
583.515	-136.7
583.718	-185.85
583.922	178.69
584.125	543.22
584.329	-230.91
584.532	-54.78
584.735	363
584.939	186.88
585.142	-314.88
585.346	-243.2
585.549	160.25
585.753	4.61
585.956	-142.85
586.159	-42.5
586.363	465.4
586.566	186.88
586.769	-218.62
586.973	-292.35
587.176	190.97
587.379	320
587.582	150.01
587.786	47.62
587.989	96.77
588.192	815.6
588.395	-138.75
588.599	135.68
588.802	156.16
589.005	289.28
589.208	-165.37
589.411	-181.76
589.615	354.81
589.818	494.07
590.021	35.33
590.224	-101.89
590.427	311.8
590.63	297.47
590.833	-409.08
591.036	-185.85
591.239	2.56
591.442	45.57
591.645	59.9
591.848	-194.05
592.051	166.4
592.254	266.75
592.457	-112.13
592.66	-187.9
592.863	141.82
593.066	207.36
593.269	-151.04
593.472	-54.78
593.675	-65.02
593.878	293.37
594.081	-42.5
594.284	-269.82
594.486	211.45
594.689	244.22
594.892	-22.02
595.095	-99.84
595.298	213.5
595.5	55.81
595.703	-38.4
595.906	-153.09
596.109	446.97
596.311	313.85
596.514	-339.45
596.717	-134.65
596.92	412.15
597.122	188.93
597.325	-357.88
597.528	-175.61
597.73	500.22
597.933	240.12
598.136	-161.28
598.338	-355.83
598.541	207.36
598.743	383.48
598.946	-71.17
599.148	-120.32
599.351	403.96
599.554	342.52
599.756	53.76
599.959	-116.22
600.161	317.95
600.363	741.88
600.566	123.39
600.768	-187.9
600.971	516.6
601.173	309.76
601.376	-118.27
601.578	-85.5
601.78	233.98
601.983	741.88
602.185	-237.05
602.388	20.99
602.59	164.35
602.792	8.7
602.995	31.23
603.197	-95.74
603.399	395.77
603.601	287.23
603.804	-85.5
604.006	-124.41
604.208	68.09
604.41	-267.77
604.613	80.38
604.815	-126.46
605.017	688.63
605.219	90.62
605.421	367.1
605.623	-146.94
605.826	549.37
606.028	522.74
606.23	-146.94
606.432	-46.59
606.634	565.75
606.836	479.74
607.038	-226.81
607.24	51.71
607.442	172.54
607.644	133.63
607.846	-30.21
608.048	-218.62
608.25	385.53
608.452	35.33
608.654	-83.45
608.856	-308.73
609.058	133.63
609.26	242.17
609.462	-17.92
609.664	-103.93
609.866	592.37
610.067	442.87
610.269	-1.54
610.471	-54.78
610.673	133.63
610.875	389.63
611.077	-282.11
611.278	-15.87
611.48	178.69
611.682	600.57
611.884	-24.06
612.085	-3.58
612.287	-17.92
612.489	334.33
612.69	-273.92
612.892	23.04
613.094	397.82
613.295	297.47
613.497	-151.04
613.699	-19.97
613.9	522.74
614.102	444.92
614.304	-114.17
614.505	-218.62
614.707	145.92
614.908	231.93
615.11	-284.16
615.311	-46.59
615.513	395.77
615.714	348.67
615.916	-202.24
616.117	-22.02
616.319	211.45
616.52	387.58
616.722	-128.51
616.923	29.18
617.124	479.74
617.326	268.8
617.527	16.9
617.729	223.74
617.93	346.62
618.131	387.58
618.333	-13.82
618.534	35.33
618.735	94.72
618.937	586.23
619.138	-177.66
619.339	-75.26
619.54	289.28
619.742	119.29
619.943	127.49
620.144	20.99
620.345	379.39
620.546	487.93
620.748	-44.54
620.949	-17.92
621.15	285.18
621.351	244.22
621.552	-38.4
621.753	-185.85
621.954	-165.37
622.155	723.44
622.356	-103.93
622.558	158.21
622.759	186.88
622.96	676.34
623.161	0.51
623.362	-13.82
623.563	190.97
623.764	240.12
623.965	43.52
624.166	184.83
624.366	166.4
624.567	289.28
624.768	-255.48
624.969	-13.82
625.17	221.69
625.371	403.96
625.572	14.85
625.773	-142.85
625.973	471.54
626.174	371.19
626.375	12.8
626.576	51.71
626.777	420.35
626.977	764.4
627.178	-95.74
627.379	92.67
627.58	199.16
627.78	238.08
627.981	70.14
628.182	43.52
628.382	549.37
628.583	-75.26
628.784	-161.28
628.984	158.21
629.185	526.84
629.386	422.39
629.586	27.14
629.787	-192
629.987	446.97
630.188	270.84
630.388	27.14
630.589	31.23
630.79	831.99
630.99	258.56
631.191	70.14
631.391	72.19
631.591	502.26
631.792	715.25
631.992	219.64
632.193	94.72
632.393	645.62
632.594	248.32
632.794	-34.3
632.994	244.22
633.195	166.4
633.395	313.85
633.595	-65.02
633.796	266.75
633.996	92.67
634.196	516.6
634.397	-85.5
634.597	57.86
634.797	166.4
634.997	635.38
635.198	301.56
635.398	-75.26
635.598	369.15
635.798	621.05
635.998	432.63
636.199	14.85
636.399	80.38
636.599	37.38
636.799	90.62
636.999	332.28
637.199	502.26
637.399	580.09
637.599	-26.11
637.799	205.31
637.999	154.11
638.199	731.64
638.399	-26.11
638.599	37.38
638.799	498.17
638.999	739.83
639.199	197.12
639.399	137.73
639.599	719.35
639.799	49.66
639.999	-58.88
640.199	-62.98
640.399	281.08
640.599	426.49
640.799	156.16
640.998	342.52
641.198	596.47
641.398	428.54
641.598	129.53
641.798	68.09
641.997	1210.86
642.197	342.52
642.397	190.97
642.597	96.77
642.796	461.3
642.996	580.09
643.196	182.78
643.395	-65.02
643.595	387.58
643.795	-22.02
643.994	61.95
644.194	102.91
644.394	524.79
644.593	385.53
644.793	-69.12
644.992	215.55
645.192	459.26
645.392	-140.8
645.591	236.03
645.791	29.18
645.99	461.3
646.19	264.7
646.389	242.17
646.589	133.63
646.788	502.26
646.987	561.66
647.187	373.24
647.386	414.2
647.586	365.05
647.785	645.62
647.984	150.01
648.184	182.78
648.383	293.37
648.582	258.56
648.782	145.92
648.981	281.08
649.18	242.17
649.38	449.02
649.579	102.91
649.778	47.62
649.977	481.78
650.177	457.21
650.376	27.14
650.575	111.1
650.774	668.15
650.973	221.69
651.173	-103.93
651.372	176.64
651.571	389.63
651.77	551.42
651.969	164.35
652.168	297.47
652.367	166.4
652.566	444.92
652.765	180.73
652.964	420.35
653.163	831.99
653.362	381.43
653.561	109.05
653.76	104.96
653.959	332.28
654.158	530.94
654.357	436.73
654.556	129.53
654.755	367.1
654.954	545.27
655.153	147.97
655.352	217.6
655.551	649.72
655.749	272.89
655.948	190.97
656.147	240.12
656.346	401.91
656.545	332.28
656.743	262.65
656.942	223.74
657.141	412.15
657.34	178.69
657.538	166.4
657.737	184.83
657.936	334.33
658.135	496.12
658.333	135.68
658.532	299.52
658.731	977.39
658.929	653.81
659.128	510.46
659.326	109.05
659.525	739.83
659.724	340.47
659.922	-99.84
660.121	66.05
660.319	549.37
660.518	297.47
660.716	74.24
660.915	111.1
661.113	774.64
661.312	174.59
661.51	365.05
661.709	51.71
661.907	633.33
662.105	788.98
662.304	127.49
662.502	246.27
662.701	739.83
662.899	358.91
663.097	528.89
663.296	96.77
663.494	670.2
663.692	750.07
663.891	96.77
664.089	133.63
664.287	565.75
664.485	834.04
664.684	107.01
664.882	401.91
665.08	434.68
665.278	487.93
665.476	125.44
665.675	463.35
665.873	983.54
666.071	670.2
666.269	252.41
666.467	471.54
666.665	612.85
666.863	430.59
667.061	371.19
667.259	289.28
667.457	543.22
667.655	596.47
667.853	78.33
668.051	289.28
668.249	225.79
668.447	612.85
668.645	162.3
668.843	475.64
669.041	528.89
669.239	385.53
669.437	313.85
669.635	330.23
669.833	438.78
670.031	692.73
670.229	403.96
670.426	356.86
670.624	418.3
670.822	305.66
671.02	231.93
671.218	287.23
671.415	227.84
671.613	582.14
671.811	387.58
672.009	279.04
672.206	616.95
672.404	547.32
672.602	502.26
672.799	350.71
672.997	690.68
673.195	741.88
673.392	449.02
673.59	152.06
673.788	680.44
673.985	27.14
674.183	412.15
674.38	244.22
674.578	709.11
674.775	258.56
674.973	150.01
675.17	231.93
675.368	901.62
675.565	709.11
675.763	166.4
675.96	184.83
676.158	868.85
676.355	487.93
676.553	281.08
676.75	276.99
676.947	565.75
677.145	432.63
677.342	436.73
677.539	397.82
677.737	567.8
677.934	1044.98
678.131	440.83
678.329	274.94
678.526	979.44
678.723	649.72
678.92	317.95
679.118	363
679.315	227.84
679.512	938.48
679.709	289.28
679.906	428.54
680.104	891.38
680.301	487.93
680.498	178.69
680.695	219.64
680.892	436.73
681.089	414.2
681.286	438.78
681.483	190.97
681.68	571.9
681.877	707.06
682.075	338.43
682.272	657.91
682.469	692.73
682.665	528.89
682.862	262.65
683.059	166.4
683.256	653.81
683.453	547.32
683.65	518.65
683.847	502.26
684.044	559.61
684.241	305.66
684.438	467.45
684.635	338.43
684.831	987.63
685.028	1075.7
685.225	358.91
685.422	494.07
685.619	541.18
685.815	539.13
686.012	340.47
686.209	465.4
686.405	285.18
686.602	698.87
686.799	254.46
686.996	307.71
687.192	428.54
687.389	967.15
687.586	408.06
687.782	434.68
687.979	889.33
688.175	842.23
688.372	510.46
688.568	412.15
688.765	487.93
688.962	961.01
689.158	485.88
689.355	250.36
689.551	766.45
689.748	530.94
689.944	524.79
690.14	244.22
690.337	821.75
690.533	477.69
690.73	584.18
690.926	465.4
691.123	743.92
691.319	649.72
691.515	274.94
691.712	479.74
691.908	807.41
692.104	774.64
692.301	516.6
692.497	324.09
692.693	752.12
692.889	788.98
693.086	635.38
693.282	276.99
693.478	604.66
693.674	1077.74
693.87	446.97
694.067	178.69
694.263	817.65
694.459	653.81
694.655	621.05
694.851	569.85
695.047	801.27
695.243	930.29
695.439	606.71
695.635	285.18
695.831	739.83
696.027	637.43
696.224	453.11
696.42	809.46
696.615	973.3
696.811	799.22
697.007	201.21
697.203	479.74
697.399	772.6
697.595	952.82
697.791	414.2
697.987	623.09
698.183	401.91
698.379	524.79
698.575	487.93
698.77	498.17
698.966	860.66
699.162	1063.41
699.358	426.49
699.554	451.07
699.749	829.94
699.945	778.74
700.141	567.8
700.337	629.24
700.532	686.58
700.728	532.98
700.924	393.72
701.119	330.23
701.315	813.56
701.511	649.72
701.706	625.14
701.902	301.56
702.097	772.6
702.293	874.99
702.489	539.13
702.684	518.65
702.88	662.01
703.075	637.43
703.271	592.37
703.466	346.62
703.662	784.88
703.857	784.88
704.053	381.43
704.248	461.3
704.443	963.06
704.639	928.24
704.834	526.84
705.03	438.78
705.225	866.8
705.42	907.76
705.616	625.14
705.811	457.21
706.006	616.95
706.202	588.28
706.397	594.42
706.592	395.77
706.787	707.06
706.983	801.27
707.178	684.53
707.373	616.95
707.568	905.71
707.763	965.11
707.959	602.61
708.154	440.83
708.349	784.88
708.544	850.42
708.739	772.6
708.934	453.11
709.129	928.24
709.324	1026.54
709.519	479.74
709.714	446.97
709.909	1069.55
710.104	788.98
710.299	514.55
710.494	612.85
710.689	887.28
710.884	682.49
711.079	655.86
711.274	707.06
711.469	924.15
711.664	877.04
711.859	526.84
712.054	682.49
712.249	928.24
712.443	1047.02
712.638	350.71
712.833	522.74
713.028	760.31
713.223	795.12
713.417	821.75
713.612	571.9
713.807	950.77
714.002	1384.94
714.196	842.23
714.391	569.85
714.586	1001.97
714.78	831.99
714.975	532.98
715.17	569.85
715.364	737.78
715.559	981.49
715.754	348.67
715.948	600.57
716.143	1274.35
716.337	948.72
716.532	838.13
716.726	465.4
716.921	944.63
717.115	1114.61
717.31	432.63
717.504	1083.89
717.699	805.36
717.893	1096.18
718.088	567.8
718.282	522.74
718.476	836.08
718.671	987.63
718.865	549.37
719.059	471.54
719.254	852.47
719.448	1126.89
719.642	1915.36
719.837	420.35
720.031	1032.69
720.225	1040.88
720.419	657.91
720.614	500.22
720.808	1075.7
721.002	711.16
721.196	604.66
721.39	694.77
721.585	1190.38
721.779	936.43
721.973	664.05
722.167	383.48
722.361	895.47
722.555	1128.94
722.749	584.18
722.943	662.01
723.137	588.28
723.331	887.28
723.525	610.81
723.719	528.89
723.913	1034.74
724.107	1126.89
724.301	430.59
724.495	709.11
724.689	1372.65
724.883	1145.33
725.077	633.33
725.271	539.13
725.465	1229.29
725.659	807.41
725.853	705.01
726.046	510.46
726.24	711.16
726.434	1034.74
726.628	678.39
726.822	731.64
727.015	1147.37
727.209	1167.85
727.403	700.92
727.596	465.4
727.79	1004.02
727.984	1036.78
728.177	586.23
728.371	739.83
728.565	1104.37
728.758	631.29
728.952	666.1
729.146	651.77
729.339	1192.43
729.533	928.24
729.726	707.06
729.92	598.52
730.113	1167.85
730.307	903.67
730.5	641.53
730.694	627.19
730.887	827.89
731.081	993.78
731.274	578.04
731.468	723.44
731.661	891.38
731.854	784.88
732.048	692.73
732.241	510.46
732.435	690.68
732.628	901.62
732.821	786.93
733.014	635.38
733.208	733.68
733.401	1171.95
733.594	705.01
733.788	616.95
733.981	1231.34
734.174	1022.45
734.367	707.06
734.56	831.99
734.754	1124.85
734.947	909.81
735.14	573.94
735.333	700.92
735.526	1079.79
735.719	762.36
735.912	584.18
736.105	547.32
736.298	1014.26
736.491	784.88
736.684	688.63
736.877	584.18
737.07	985.58
737.263	1288.68
737.456	678.39
737.649	625.14
737.842	870.9
738.035	1006.06
738.228	848.37
738.421	815.6
738.614	1307.12
738.807	1118.7
739	510.46
739.192	551.42
739.385	1061.36
739.578	1174
739.771	989.68
739.964	756.21
740.156	1118.7
740.349	940.53
740.542	891.38
740.735	569.85
740.927	666.1
741.12	815.6
741.313	508.41
741.505	834.04
741.698	991.73
741.891	1094.13
742.083	846.32
742.276	723.44
742.468	897.52
742.661	1014.26
742.854	655.86
743.046	707.06
743.239	1399.27
743.431	993.78
743.624	825.84
743.816	559.61
744.009	813.56
744.201	1075.7
744.393	944.63
744.586	621.05
744.778	1202.67
744.971	971.25
745.163	836.08
745.355	911.86
745.548	975.35
745.74	850.42
745.932	868.85
746.125	731.64
746.317	1589.74
746.509	1116.65
746.702	707.06
746.894	827.89
747.086	1098.22
747.278	1325.55
747.471	872.95
747.663	872.95
747.855	1114.61
748.047	1391.08
748.239	788.98
748.431	721.4
748.623	1370.6
748.815	1421.8
749.008	739.83
749.2	709.11
749.392	1157.61
749.584	1290.73
749.776	848.37
749.968	944.63
750.16	1491.43
750.352	1079.79
750.544	874.99
750.736	707.06
750.928	1104.37
751.12	1012.21
751.311	784.88
751.503	891.38
751.695	1206.77
751.887	993.78
752.079	549.37
752.271	735.73
752.463	1782.24
752.654	1348.08
752.846	895.47
753.038	866.8
753.23	932.34
753.421	1214.96
753.613	891.38
753.805	1047.02
753.997	1423.85
754.188	1243.63
754.38	752.12
754.572	766.45
754.763	920.05
754.955	1165.81
755.146	885.23
755.338	958.96
755.53	1071.6
755.721	1067.5
755.913	662.01
756.104	643.57
756.296	963.06
756.487	1247.72
756.679	743.92
756.87	848.37
757.062	1006.06
757.253	1239.53
757.445	891.38
757.636	1030.64
757.827	1067.5
758.019	1665.51
758.21	793.08
758.401	887.28
758.593	1589.74
758.784	1290.73
758.975	709.11
759.167	797.17
759.358	1098.22
759.549	1305.07
759.74	883.19
759.932	903.67
760.123	1329.64
760.314	891.38
760.505	946.67
760.696	854.51
760.888	1544.68
761.079	1042.93
761.27	739.83
761.461	709.11
761.652	1395.18
761.843	985.58
762.034	778.74
762.225	1096.18
762.416	1079.79
762.607	1204.72
762.798	805.36
762.989	850.42
763.18	1954.27
763.371	956.91
763.562	846.32
763.753	920.05
763.944	1327.6
764.135	1341.93
764.326	1022.45
764.517	819.7
764.708	1061.36
764.899	1139.18
765.089	842.23
765.28	774.64
765.471	1194.48
765.662	1329.64
765.853	893.43
766.043	739.83
766.234	1305.07
766.425	1411.56
766.615	870.9
766.806	772.6
766.997	1378.79
767.187	1251.82
767.378	842.23
767.569	768.5
767.759	1255.92
767.95	1153.52
768.141	1028.59
768.331	819.7
768.522	1098.22
768.712	1331.69
768.903	752.12
769.093	883.19
769.284	1481.19
769.474	1227.25
769.665	737.78
769.855	788.98
770.046	1323.5
770.236	1047.02
770.426	1022.45
770.617	680.44
770.807	1202.67
770.998	1092.08
771.188	975.35
771.378	891.38
771.569	1321.45
771.759	1214.96
771.949	852.47
772.139	553.46
772.33	1139.18
772.52	1561.06
772.71	831.99
772.9	723.44
773.09	1524.2
773.281	1395.18
773.471	813.56
773.661	838.13
773.851	1386.99
774.041	1120.75
774.231	840.18
774.421	1022.45
774.611	1454.57
774.802	1186.29
774.992	963.06
775.182	731.64
775.372	1157.61
775.562	1407.47
775.752	981.49
775.942	909.81
776.131	1550.82
776.321	1323.5
776.511	862.71
776.701	936.43
776.891	1403.37
777.081	924.15
777.271	920.05
777.461	750.07
777.651	1460.71
777.84	1485.29
778.03	944.63
778.22	928.24
778.41	1460.71
778.599	936.43
778.789	911.86
778.979	934.39
779.169	1202.67
779.358	1174
779.548	1208.81
779.738	760.31
779.927	1159.66
780.117	948.72
780.307	948.72
780.496	670.2
780.686	1235.44
780.875	1677.8
781.065	840.18
781.254	829.94
781.444	1165.81
781.633	1233.39
781.823	946.67
782.012	819.7
782.202	1137.13
782.391	1157.61
782.581	805.36
782.77	1145.33
782.96	1180.14
783.149	1098.22
783.338	905.71
783.528	831.99
783.717	1403.37
783.906	1462.76
784.096	977.39
784.285	801.27
784.474	1122.8
784.663	1051.12
784.853	973.3
785.042	825.84
785.231	1139.18
785.42	1454.57
785.61	1004.02
785.799	799.22
785.988	1071.6
786.177	1135.09
786.366	1001.97
786.555	1012.21
786.744	1407.47
786.933	1100.27
787.122	700.92
787.312	659.96
787.501	1006.06
787.69	1303.02
787.879	936.43
788.068	723.44
788.257	891.38
788.445	940.53
788.634	963.06
788.823	760.31
789.012	1796.58
789.201	1481.19
789.39	979.44
789.579	795.12
789.768	1202.67
789.957	1184.24
790.145	940.53
790.334	633.33
790.523	1081.84
790.712	1075.7
790.9	973.3
791.089	696.82
791.278	1473
791.467	1272.3
791.655	1290.73
791.844	1411.56
792.033	1108.46
792.221	1124.85
792.41	1047.02
792.599	700.92
792.787	1376.75
792.976	1368.56
793.164	840.18
793.353	895.47
793.541	1489.39
793.73	1356.27
793.918	956.91
794.107	997.87
794.295	1190.38
794.484	1294.83
794.672	911.86
794.861	961.01
795.049	1239.53
795.238	1642.98
795.426	805.36
795.614	967.15
795.803	1323.5
795.991	1591.78
796.179	985.58
796.368	874.99
796.556	1448.43
796.744	1012.21
796.932	850.42
797.121	905.71
797.309	1182.19
797.497	1440.23
797.685	977.39
797.874	938.48
798.062	1044.98
798.25	1628.65
798.438	961.01
798.626	895.47
798.814	1432.04
799.002	1759.72
799.19	1116.65
799.378	1141.23
799.566	1425.9
799.755	1606.12
799.943	1087.98
800.131	879.09
800.318	1292.78
800.506	1399.27
800.694	920.05
800.882	1081.84
801.07	1577.45
801.258	1278.44
801.446	1022.45
801.634	1096.18
801.822	1333.74
802.01	1192.43
802.197	911.86
802.385	1079.79
802.573	1282.54
802.761	1044.98
802.949	1014.26
803.136	883.19
803.324	1491.43
803.512	1374.7
803.699	1126.89
803.887	815.6
804.075	1518.06
804.262	1186.29
804.45	809.46
804.638	1014.26
804.825	1042.93
805.013	1071.6
805.201	1094.13
805.388	989.68
805.576	1321.45
805.763	1706.47
805.951	1044.98
806.138	1210.86
806.326	1731.05
806.513	1450.47
806.701	1042.93
806.888	1102.32
807.075	1413.61
807.263	1817.06
807.45	803.32
807.638	1202.67
807.825	1716.71
808.012	1540.58
808.2	1024.5
808.387	1393.13
808.574	1446.38
808.761	1645.03
808.949	1014.26
809.136	1264.11
809.323	1147.37
809.51	1257.96
809.698	1450.47
809.885	1243.63
810.072	1444.33
810.259	1591.78
810.446	1157.61
810.633	1079.79
810.82	1649.13
811.008	1802.72
811.195	1292.78
811.382	1219.05
811.569	1434.09
811.756	1071.6
811.943	1178.09
812.13	1085.94
812.317	1118.7
812.504	1292.78
812.691	1219.05
812.878	1210.86
813.064	1831.4
813.251	1473
813.438	1006.06
813.625	1217.01
813.812	1368.56
813.999	1427.95
814.186	1225.2
814.372	1059.31
814.559	1452.52
814.746	1808.87
814.933	1196.53
815.12	1370.6
815.306	1296.88
815.493	1198.57
815.68	1085.94
815.866	1282.54
816.053	1765.86
816.24	1866.21
816.426	1163.76
816.613	1051.12
816.799	1559.02
816.986	1694.18
817.173	993.78
817.359	1210.86
817.546	1423.85
817.732	1075.7
817.919	1096.18
818.105	1133.04
818.292	1319.4
818.478	1565.16
818.665	1251.82
818.851	1208.81
819.037	1896.93
819.224	1442.28
819.41	1032.69
819.597	1100.27
819.783	1835.49
819.969	1585.64
820.156	1151.47
820.342	1108.46
820.528	2193.89
820.714	1403.37
820.901	1374.7
821.087	1194.48
821.273	1939.94
821.459	1448.43
821.646	1141.23
821.832	1153.52
822.018	1485.29
822.204	1462.76
822.39	1206.77
822.576	1118.7
822.762	1579.5
822.948	1518.06
823.134	1372.65
823.32	1153.52
823.507	1212.91
823.693	1473
823.879	1659.37
824.065	1128.94
824.25	1565.16
824.436	1208.81
824.622	1102.32
824.808	1141.23
824.994	1219.05
825.18	1221.1
825.366	1001.97
825.552	1075.7
825.738	1309.16
825.923	1718.76
826.109	1264.11
826.295	1020.4
826.481	1366.51
826.667	1317.36
826.852	1473
827.038	1098.22
827.224	1724.9
827.409	1853.92
827.595	977.39
827.781	1509.86
827.966	1645.03
828.152	1796.58
828.338	1182.19
828.523	995.82
828.709	1292.78
828.894	1772
829.08	1221.1
829.266	1047.02
829.451	1352.17
829.637	1587.69
829.822	1249.77
830.008	1135.09
830.193	1700.33
830.378	1774.05
830.564	1266.16
830.749	1112.56
830.935	1583.59
831.12	1599.98
831.305	1143.28
831.491	1292.78
831.676	1274.35
831.861	1679.85
832.047	1276.4
832.232	1049.07
832.417	1765.86
832.602	1544.68
832.788	1210.86
832.973	1040.88
833.158	1460.71
833.343	1389.03
833.528	1350.12
833.714	1409.51
833.899	1661.41
834.084	1878.5
834.269	1339.88
834.454	1286.64
834.639	1698.28
834.824	1405.42
835.009	1243.63
835.194	1419.75
835.379	1677.8
835.564	1960.42
835.749	1399.27
835.934	1014.26
836.119	1610.22
836.304	1444.33
836.489	1044.98
836.674	1370.6
836.859	1233.39
837.044	1829.35
837.228	1356.27
837.413	1042.93
837.598	1565.16
837.783	1669.61
837.968	1317.36
838.152	1061.36
838.337	1112.56
838.522	1815.01
838.707	1767.91
838.891	1407.47
839.076	1772
839.261	1812.96
839.445	1243.63
839.63	1354.22
839.815	1974.75
839.999	1382.89
840.184	1288.68
840.368	1194.48
840.553	1763.81
840.737	1653.22
840.922	1180.14
841.106	1087.98
841.291	1331.69
841.475	1616.36
841.66	1143.28
841.844	1315.31
842.029	2210.27
842.213	1276.4
842.397	1253.87
842.582	1147.37
842.766	1726.95
842.951	1694.18
843.135	1083.89
843.319	1233.39
843.504	1495.53
843.688	1735.14
843.872	1075.7
844.056	1092.08
844.241	1647.08
844.425	1421.8
844.609	1446.38
844.793	1006.06
844.977	1710.57
845.161	1628.65
845.346	1122.8
845.53	1329.64
845.714	1587.69
845.898	1858.02
846.082	1006.06
846.266	1225.2
846.45	1624.55
846.634	1628.65
846.818	1227.25
847.002	1391.08
847.186	1710.57
847.37	1354.22
847.554	1114.61
847.738	1401.32
847.922	1509.86
848.106	1520.1
848.29	1167.85
848.473	1210.86
848.657	1645.03
848.841	1391.08
849.025	1286.64
849.209	1092.08
849.392	1667.56
849.576	1479.15
849.76	942.58
849.944	1280.49
850.127	1743.33
850.311	1182.19
850.495	1008.11
850.678	1018.35
850.862	1753.57
851.046	1917.41
851.229	1415.66
851.413	1143.28
851.596	1456.62
851.78	1491.43
851.964	1364.46
852.147	1251.82
852.331	2259.42
852.514	1829.35
852.698	1260.01
852.881	999.92
853.065	1759.72
853.248	1499.63
853.431	1354.22
853.615	1178.09
853.798	2021.86
853.982	1610.22
854.165	1407.47
854.348	1243.63
854.532	1366.51
854.715	1425.9
854.898	1341.93
855.081	1300.97
855.265	1860.07
855.448	1980.9
855.631	1139.18
855.814	1239.53
855.997	1718.76
856.181	1364.46
856.364	1292.78
856.547	1141.23
856.73	1503.72
856.913	1567.21
857.096	1075.7
857.279	1440.23
857.462	1411.56
857.645	1765.86
857.828	1432.04
858.011	1456.62
858.194	1339.88
858.377	1634.79
858.56	1096.18
858.743	1260.01
858.926	1257.96
859.109	1665.51
859.292	1196.53
859.475	1026.54
859.658	1677.8
859.841	1710.57
860.023	1042.93
860.206	1071.6
860.389	1565.16
860.572	1808.87
860.755	1303.02
860.937	1190.38
861.12	1432.04
861.303	1450.47
861.486	1257.96
861.668	1161.71
861.851	1640.93
862.034	1665.51
862.216	1421.8
862.399	987.63
862.581	1647.08
862.764	1872.36
862.947	1225.2
863.129	1176.05
863.312	1235.44
863.494	1894.88
863.677	1444.33
863.859	1016.3
864.042	1739.24
864.224	1763.81
864.406	1405.42
864.589	1171.95
864.771	1675.75
864.954	1182.19
865.136	1176.05
865.318	1071.6
865.501	1778.15
865.683	1051.12
865.865	1178.09
866.048	1112.56
866.23	1604.07
866.412	1513.96
866.594	1102.32
866.777	1348.08
866.959	1677.8
867.141	1217.01
867.323	1380.84
867.505	1280.49
867.687	1429.99
867.869	1417.71
868.052	1102.32
868.234	1155.57
868.416	1563.11
868.598	1622.5
868.78	1227.25
868.962	1124.85
869.144	1720.81
869.326	1604.07
869.508	1198.57
869.69	1145.33
869.872	1325.55
870.054	1739.24
870.236	1059.31
870.417	1247.72
870.599	1247.72
870.781	1833.44
870.963	1296.88
871.145	1065.46
871.327	1247.72
871.508	1690.09
871.69	1190.38
871.872	1249.77
872.054	1554.92
872.235	1526.25
872.417	1260.01
872.599	1231.34
872.78	1966.56
872.962	1526.25
873.144	1073.65
873.325	1227.25
873.507	1804.77
873.689	1612.26
873.87	1165.81
874.052	1341.93
874.233	1556.97
874.415	1694.18
874.596	1384.94
874.778	1077.74
874.959	1454.57
875.141	1763.81
875.322	1290.73
875.503	1202.67
875.685	1649.13
875.866	1167.85
876.048	1139.18
876.229	1153.52
876.41	1380.84
876.592	1550.82
876.773	1243.63
876.954	1014.26
877.136	1858.02
877.317	1442.28
877.498	1102.32
877.679	1305.07
877.86	1659.37
878.042	1436.14
878.223	1260.01
878.404	1518.06
878.585	1690.09
878.766	2073.06
878.947	1503.72
879.128	1479.15
879.309	1729
879.49	1677.8
879.672	1395.18
879.853	1290.73
880.034	1352.17
880.215	1452.52
880.396	1378.79
880.576	1317.36
880.757	1454.57
880.938	1853.92
881.119	1223.15
881.3	1343.98
881.481	1300.97
881.662	2462.17
881.843	1157.61
882.023	1204.72
882.204	1624.55
882.385	1640.93
882.566	1309.16
882.747	1260.01
882.927	1507.82
883.108	1657.32
883.289	1255.92
883.469	1505.77
883.65	1528.3
883.831	1597.93
884.011	1407.47
884.192	1290.73
884.373	1724.9
884.553	1710.57
884.734	1489.39
884.914	1628.65
885.095	2279.9
885.275	1991.14
885.456	1685.99
885.636	1223.15
885.817	1620.46
885.997	1612.26
886.178	1333.74
886.358	1395.18
886.538	1731.05
886.719	2683.35
886.899	1284.59
887.08	1507.82
887.26	1870.31
887.44	1401.32
887.621	1247.72
887.801	1579.5
887.981	2204.13
888.161	1872.36
888.342	1399.27
888.522	1378.79
888.702	1882.6
888.882	1939.94
889.062	1710.57
889.242	1393.13
889.423	2034.14
889.603	1739.24
889.783	1673.7
889.963	1460.71
890.143	1903.07
890.323	2025.95
890.503	1503.72
890.683	1505.77
890.863	1708.52
891.043	1804.77
891.223	1559.02
891.403	1724.9
891.583	1817.06
891.763	1847.78
891.943	1518.06
892.122	1405.42
892.302	1831.4
892.482	1622.5
892.662	1606.12
892.842	1497.58
893.022	1882.6
893.201	1518.06
893.381	1657.32
893.561	1458.67
893.741	1841.64
893.92	1808.87
894.1	1612.26
894.28	1567.21
894.459	1952.23
894.639	1923.55
894.819	1599.98
894.998	1567.21
895.178	1796.58
895.357	1882.6
895.537	1495.53
895.716	1329.64
895.896	1815.01
896.075	2101.73
896.255	1532.39
896.434	1251.82
896.614	2054.62
896.793	2097.63
896.973	1675.75
897.152	1751.53
897.331	1876.45
897.511	1972.71
897.69	1438.19
897.87	1599.98
898.049	1993.19
898.228	1886.69
898.407	1661.41
898.587	1731.05
898.766	1663.46
898.945	1806.82
899.124	1862.12
899.304	1747.43
899.483	1950.18
899.662	2259.42
899.841	1583.59
900.02	1493.48
900.199	1999.33
900.378	1882.6
900.557	1444.33
900.737	1378.79
900.916	1952.23
901.095	1950.18
901.274	1776.1
901.453	1468.91
901.632	1573.35
901.811	1673.7
901.989	1585.64
902.168	1493.48
902.347	1962.47
902.526	1585.64
902.705	1538.54
902.884	1569.26
903.063	1989.09
903.242	2150.88
903.42	1427.95
903.599	1614.31
903.778	1995.23
903.957	2210.27
904.135	1698.28
904.314	1620.46
904.493	1823.2
904.672	1851.88
904.85	1556.97
905.029	1473
905.207	1923.55
905.386	2490.84
905.565	1511.91
905.743	1616.36
905.922	1714.66
906.1	1987.04
906.279	1485.29
906.457	1587.69
906.636	1864.16
906.814	1729
906.993	1487.34
907.171	1470.95
907.35	1989.09
907.528	2071.01
907.707	1823.2
907.885	1327.6
908.063	2152.93
908.242	1446.38
908.42	1497.58
908.598	1348.08
908.777	1923.55
908.955	1755.62
909.133	1667.56
909.311	1382.89
909.49	1759.72
909.668	1763.81
909.846	1589.74
910.024	1364.46
910.202	1776.1
910.38	1933.79
910.559	1378.79
910.737	1509.86
910.915	1870.31
911.093	1829.35
911.271	1581.54
911.449	1634.79
911.627	1931.75
911.805	2169.31
911.983	1540.58
912.161	1567.21
912.339	1882.6
912.517	2007.52
912.695	1673.7
912.872	1542.63
913.05	1577.45
913.228	1866.21
913.406	1501.67
913.584	1464.81
913.762	1927.65
913.939	1653.22
914.117	1505.77
914.295	1413.61
914.473	1772
914.65	1751.53
914.828	1536.49
915.006	1462.76
915.184	1575.4
915.361	1853.92
915.539	1597.93
915.716	1665.51
915.894	1812.96
916.072	1915.36
916.249	1720.81
916.427	1702.37
916.604	1384.94
916.782	1700.33
916.959	1337.84
917.137	1438.19
917.314	1782.24
917.492	1739.24
917.669	1436.14
917.847	1610.22
918.024	1726.95
918.201	1487.34
918.379	1380.84
918.556	1464.81
918.733	1823.2
918.911	1722.85
919.088	1636.84
919.265	1337.84
919.442	1776.1
919.62	1649.13
919.797	1356.27
919.974	1343.98
920.151	1722.85
920.328	1657.32
920.506	1346.03
920.683	1559.02
920.86	1425.9
921.037	1546.73
921.214	1542.63
921.391	1219.05
921.568	1806.82
921.745	1364.46
921.922	1391.08
922.099	1309.16
922.276	1933.79
922.453	1657.32
922.63	1229.29
922.807	1735.14
922.984	1645.03
923.161	1524.2
923.338	1331.69
923.514	1227.25
923.691	1577.45
923.868	1599.98
924.045	1272.3
924.222	1212.91
924.399	1677.8
924.575	1946.08
924.752	1264.11
924.929	1567.21
925.105	1665.51
925.282	1317.36
925.459	1429.99
925.635	1241.58
925.812	1534.44
925.989	1350.12
926.165	1339.88
926.342	1188.33
926.518	1346.03
926.695	1604.07
926.871	1315.31
927.048	1149.42
927.224	1694.18
927.401	1454.57
927.577	1346.03
927.754	1124.85
927.93	1784.29
928.107	1606.12
928.283	1180.14
928.459	1300.97
928.636	1434.09
928.812	1497.58
928.988	1184.24
929.165	1157.61
929.341	1454.57
929.517	1563.11
929.693	1577.45
929.87	1020.4
930.046	1579.5
930.222	1262.06
930.398	1096.18
930.574	1307.12
930.751	1378.79
930.927	1346.03
931.103	1188.33
931.279	1217.01
931.455	1239.53
931.631	1442.28
931.807	1030.64
931.983	1081.84
932.159	1040.88
932.335	1544.68
932.511	1143.28
932.687	1161.71
932.863	1493.48
933.039	1446.38
933.215	999.92
933.391	963.06
933.566	1407.47
933.742	1370.6
933.918	1290.73
934.094	895.47
934.27	1296.88
934.445	1368.56
934.621	1130.99
934.797	952.82
934.973	1542.63
935.148	1255.92
935.324	930.29
935.5	762.36
935.675	1475.05
935.851	1298.92
936.027	1040.88
936.202	1010.16
936.378	1247.72
936.553	1108.46
936.729	1227.25
936.904	899.57
937.08	803.32
937.255	956.91
937.431	715.25
937.606	813.56
937.782	961.01
937.957	1065.46
938.133	872.95
938.308	786.93
938.483	1102.32
938.659	862.71
938.834	946.67
939.009	659.96
939.185	930.29
939.36	713.21
939.535	469.5
939.71	870.9
939.886	1249.77
940.061	1030.64
940.236	840.18
940.411	606.71
940.586	961.01
940.761	1059.31
940.937	662.01
941.112	616.95
941.287	870.9
941.462	813.56
941.637	432.63
941.812	588.28
941.987	987.63
942.162	766.45
942.337	717.3
942.512	633.33
942.687	1106.42
942.862	942.58
943.037	487.93
943.212	391.67
943.386	737.78
943.561	899.57
943.736	711.16
943.911	881.14
944.086	864.75
944.26	836.08
944.435	532.98
944.61	625.14
944.785	1022.45
944.959	1212.91
945.134	580.09
945.309	479.74
945.483	647.67
945.658	977.39
945.833	315.9
946.007	356.86
946.182	1180.14
946.357	582.14
946.531	518.65
946.706	379.39
946.88	363
947.055	813.56
947.229	487.93
947.404	453.11
947.578	1020.4
947.752	627.19
947.927	274.94
948.101	311.8
948.276	788.98
948.45	801.27
948.624	719.35
948.799	420.35
948.973	903.67
949.147	424.44
949.321	664.05
949.496	526.84
949.67	1022.45
949.844	686.58
950.018	518.65
950.193	475.64
950.367	1300.97
950.541	745.97
950.715	649.72
950.889	619
951.063	762.36
951.237	885.23
951.411	244.22
951.585	276.99
951.759	979.44
951.933	748.02
952.107	500.22
952.281	698.87
952.455	1145.33
952.629	956.91
952.803	510.46
952.977	547.32
953.151	954.87
953.325	883.19
953.499	649.72
953.672	371.19
953.846	565.75
954.02	621.05
954.194	354.81
954.368	475.64
954.541	954.87
954.715	619
954.889	526.84
955.062	487.93
955.236	702.97
955.41	666.1
955.583	754.16
955.757	385.53
955.93	813.56
956.104	463.35
956.278	428.54
956.451	578.04
956.625	819.7
956.798	1128.94
956.972	713.21
957.145	395.77
957.319	680.44
957.492	690.68
957.665	604.66
957.839	399.87
958.012	788.98
958.185	604.66
958.359	553.46
958.532	657.91
958.705	895.47
958.879	815.6
959.052	506.36
959.225	254.46
959.398	748.02
959.572	752.12
959.745	438.78
959.918	584.18
960.091	635.38
960.264	889.33
960.438	389.63
960.611	371.19
960.784	760.31
960.957	549.37
961.13	827.89
961.303	418.3
961.476	735.73
961.649	926.19
961.822	408.06
961.995	512.5
962.168	836.08
962.341	801.27
962.514	514.55
962.686	487.93
962.859	727.54
963.032	915.95
963.205	358.91
963.378	365.05
963.551	725.49
963.723	698.87
963.896	588.28
964.069	694.77
964.242	707.06
964.414	1028.59
964.587	633.33
964.76	621.05
964.932	805.36
965.105	674.29
965.278	524.79
965.45	473.59
965.623	864.75
965.795	885.23
965.968	481.78
966.14	414.2
966.313	705.01
966.485	682.49
966.658	463.35
966.83	309.76
967.003	979.44
967.175	1044.98
967.348	444.92
967.52	477.69
967.692	1153.52
967.865	793.08
968.037	565.75
968.209	684.53
968.382	801.27
968.554	889.33
968.726	569.85
968.898	502.26
969.071	795.12
969.243	797.17
969.415	612.85
969.587	633.33
969.759	1206.77
969.932	846.32
970.104	532.98
970.276	188.93
970.448	567.8
970.62	604.66
970.792	594.42
970.964	621.05
971.136	1235.44
971.308	870.9
971.48	436.73
971.652	567.8
971.824	1079.79
971.996	600.57
972.168	614.9
972.339	461.3
972.511	920.05
972.683	702.97
972.855	776.69
973.027	541.18
973.199	686.58
973.37	942.58
973.542	651.77
973.714	674.29
973.886	766.45
974.057	1061.36
974.229	440.83
974.401	414.2
974.572	547.32
974.744	332.28
974.915	489.98
975.087	524.79
975.259	1069.55
975.43	520.7
975.602	477.69
975.773	399.87
975.945	559.61
976.116	879.09
976.288	311.8
976.459	633.33
976.63	567.8
976.802	895.47
976.973	403.96
977.145	573.94
977.316	1182.19
977.487	788.98
977.659	651.77
977.83	530.94
978.001	1085.94
978.172	748.02
978.344	420.35
978.515	465.4
978.686	547.32
978.857	987.63
979.028	520.7
979.2	401.91
979.371	973.3
979.542	651.77
979.713	616.95
979.884	25.09
980.055	561.66
980.226	584.18
980.397	367.1
980.568	356.86
980.739	862.71
980.91	633.33
981.081	582.14
981.252	395.77
981.423	815.6
981.594	877.04
981.765	301.56
981.936	541.18
982.106	739.83
982.277	944.63
982.448	459.26
982.619	557.56
982.79	580.09
982.96	879.09
983.131	606.71
983.302	231.93
983.472	582.14
983.643	723.44
983.814	543.22
983.984	358.91
984.155	619
984.326	840.18
984.496	440.83
984.667	453.11
984.837	567.8
985.008	934.39
985.178	608.76
985.349	406.01
985.519	657.91
985.69	489.98
985.86	369.15
986.031	358.91
986.201	745.97
986.371	733.68
986.542	252.41
986.712	170.49
986.882	739.83
987.053	791.03
987.223	270.84
987.393	573.94
987.563	530.94
987.734	770.55
987.904	725.49
988.074	432.63
988.244	664.05
988.414	565.75
988.585	334.33
988.755	461.3
988.925	602.61
989.095	973.3
989.265	371.19
989.435	422.39
989.605	723.44
989.775	707.06
989.945	676.34
990.115	274.94
990.285	594.42
990.455	725.49
990.625	432.63
990.795	350.71
990.965	1006.06
991.134	494.07
991.304	305.66
991.474	334.33
991.644	662.01
991.814	969.2
991.984	201.21
992.153	344.57
992.323	551.42
992.493	604.66
992.662	203.26
992.832	438.78
993.002	625.14
993.171	604.66
993.341	256.51
993.511	557.56
993.68	526.84
993.85	731.64
994.019	217.6
994.189	227.84
994.358	569.85
994.528	365.05
994.697	74.24
994.867	172.54
995.036	752.12
995.206	473.59
995.375	207.36
995.544	434.68
995.714	606.71
995.883	479.74
996.052	406.01
996.222	66.05
996.391	1102.32
996.56	633.33
996.73	143.87
996.899	98.81
997.068	963.06
997.237	569.85
997.406	137.73
997.576	190.97
997.745	655.86
997.914	651.77
998.083	96.77
998.252	371.19
998.421	592.37
998.59	344.57
998.759	174.59
998.928	55.81
999.097	817.65
999.266	614.9
999.435	377.34
999.604	-7.68
999.773	995.82
999.942	512.5
1000.111	76.29
1000.28	53.76
1000.448	215.55
1000.617	387.58
1000.786	373.24
1000.955	133.63
1001.124	575.99
1001.292	1229.29
1001.461	217.6
1001.63	166.4
1001.798	946.67
1001.967	813.56
1002.136	96.77
1002.304	170.49
1002.473	614.9
1002.642	502.26
1002.81	258.56
1002.979	80.38
1003.147	729.59
1003.316	1020.4
1003.484	209.4
1003.653	139.77
1003.821	879.09
1003.99	455.16
1004.158	371.19
1004.327	154.11
1004.495	645.62
1004.663	285.18
1004.832	305.66
1005	96.77
1005.168	487.93
1005.337	567.8
1005.505	39.42
1005.673	301.56
1005.842	649.72
1006.01	672.25
1006.178	143.87
1006.346	174.59
1006.514	524.79
1006.683	772.6
1006.851	59.9
1007.019	-58.88
1007.187	272.89
1007.355	70.14
1007.523	84.48
1007.691	-22.02
1007.859	195.07
1008.027	780.79
1008.195	158.21
1008.363	-17.92
1008.531	553.46
1008.699	291.32
1008.867	-36.35
1009.035	45.57
1009.203	780.79
1009.37	465.4
1009.538	160.25
1009.706	532.98
1009.874	537.08
1010.042	498.17
1010.209	-9.73
1010.377	98.81
1010.545	614.9
1010.713	477.69
1010.88	84.48
1011.048	117.25
1011.216	272.89
1011.383	829.94
1011.551	76.29
1011.718	59.9
1011.886	569.85
1012.054	440.83
1012.221	76.29
1012.389	88.57
1012.556	381.43
1012.724	772.6
1012.891	172.54
1013.058	-46.59
1013.226	516.6
1013.393	680.44
1013.561	-48.64
1013.728	-38.4
1013.895	510.46
1014.063	569.85
1014.23	-56.83
1014.397	10.75
1014.565	653.81
1014.732	365.05
1014.899	109.05
1015.066	-67.07
1015.233	309.76
1015.401	481.78
1015.568	133.63
1015.735	195.07
1015.902	498.17
1016.069	545.27
1016.236	-5.63
1016.403	14.85
1016.57	209.4
1016.737	643.57
1016.904	88.57
1017.071	-13.82
1017.238	317.95
1017.405	602.61
1017.572	88.57
1017.739	289.28
1017.906	539.13
1018.073	602.61
1018.24	-7.68
1018.407	150.01
1018.573	672.25
1018.74	377.34
1018.907	174.59
1019.074	-89.6
1019.241	686.58
1019.407	444.92
1019.574	20.99
1019.741	-54.78
1019.907	555.51
1020.074	485.88
1020.241	-163.33
1020.407	-67.07
1020.574	547.32
1020.74	502.26
1020.907	4.61
1021.073	-22.02
1021.24	969.2
1021.406	670.2
1021.573	-46.59
1021.739	61.95
1021.906	645.62
1022.072	469.5
1022.239	51.71
1022.405	45.57
1022.571	457.21
1022.738	256.51
1022.904	72.19
1023.07	12.8
1023.237	383.48
1023.403	670.2
1023.569	66.05
1023.735	72.19
1023.902	367.1
1024.068	379.39
1024.234	-87.55
1024.4	10.75
1024.566	444.92
1024.732	569.85
1024.898	-34.3
1025.065	-153.09
1025.231	532.98
1025.397	244.22
1025.563	64
1025.729	-65.02
1025.895	-60.93
1026.061	145.92
1026.227	-157.18
1026.392	98.81
1026.558	633.33
1026.724	520.7
1026.89	-32.26
1027.056	125.44
1027.222	496.12
1027.388	223.74
1027.553	-13.82
1027.719	-15.87
1027.885	743.92
1028.051	487.93
1028.216	-235
1028.382	47.62
1028.548	522.74
1028.713	242.17
1028.879	-103.93
1029.045	174.59
1029.21	662.01
1029.376	522.74
1029.541	51.71
1029.707	23.04
1029.873	532.98
1030.038	629.24
1030.204	-38.4
1030.369	33.28
1030.534	494.07
1030.7	299.52
1030.865	4.61
1031.031	-50.69
1031.196	399.87
1031.361	414.2
1031.527	-124.41
1031.692	-26.11
1031.857	-9.73
1032.023	559.61
1032.188	-91.65
1032.353	-46.59
1032.518	682.49
1032.684	297.47
1032.849	-159.23
1033.014	-1.54
1033.179	514.55
1033.344	438.78
1033.509	57.86
1033.674	-22.02
1033.839	512.5
1034.004	522.74
1034.17	-34.3
1034.335	-140.8
1034.5	264.7
1034.664	227.84
1034.829	-124.41
1034.994	-48.64
1035.159	397.82
1035.324	311.8
1035.489	-105.98
1035.654	-67.07
1035.819	674.29
1035.984	379.39
1036.148	-17.92
1036.313	-30.21
1036.478	485.88
1036.643	395.77
1036.807	-22.02
1036.972	-118.27
1037.137	614.9
1037.301	420.35
1037.466	-192
1037.631	10.75
1037.795	627.19
1037.96	289.28
1038.124	80.38
1038.289	-173.57
1038.454	504.31
1038.618	485.88
1038.783	4.61
1038.947	80.38
1039.111	354.81
1039.276	219.64
1039.44	-65.02
1039.605	483.83
1039.769	270.84
1039.933	401.91
1040.098	-17.92
1040.262	166.4
1040.426	530.94
1040.591	518.65
1040.755	-226.81
1040.919	-87.55
1041.083	471.54
1041.248	330.23
1041.412	-155.13
1041.576	-151.04
1041.74	330.23
1041.904	535.03
1042.068	-112.13
1042.232	25.09
1042.397	485.88
1042.561	397.82
1042.725	-290.3
1042.889	55.81
1043.053	473.59
1043.217	412.15
1043.381	61.95
1043.544	-161.28
1043.708	494.07
1043.872	18.94
1044.036	-194.05
1044.2	-247.29
1044.364	559.61
1044.528	698.87
1044.691	4809.14
1044.855	-241.15
1045.019	530.94
1045.183	487.93
1045.346	12.8
1045.51	-192
1045.674	385.53
1045.837	399.87
1046.001	-114.17
1046.165	-118.27
1046.328	854.51
1046.492	379.39
1046.655	61.95
1046.819	-9.73
1046.983	250.36
1047.146	401.91
1047.31	27.14
1047.473	-239.1
1047.636	311.8
1047.8	72.19
1047.963	-3.58
1048.127	-130.56
1048.29	139.77
