Data from Ink_Intensity_USB4F045381__139__00139.txt Node

Date: Mon Jul 17 11:23:06 EDT 2023
User: mmckonesweet
Spectrometer: USB4F04538
Trigger mode: 4
Integration Time (sec): 9.000000E-1
Scans to average: 1
Electric dark correction enabled: true
Nonlinearity correction enabled: false
Boxcar width: 0
XAxis mode: Wavelengths
Number of Pixels in Spectrum: 3648
>>>>>Begin Spectral Data<<<<<
345.52	-1017.33
345.736	-1017.33
345.952	-1017.33
346.168	-1023.47
346.384	-976.37
346.6	-67.07
346.816	-214.52
347.032	-177.66
347.248	281.08
347.464	-269.82
347.68	-192
347.896	133.63
348.112	369.15
348.328	-85.5
348.544	-108.03
348.76	59.9
348.975	270.84
349.191	-273.92
349.407	-155.13
349.623	-13.82
349.839	-5.63
350.055	-130.56
350.27	-19.97
350.486	-19.97
350.702	416.25
350.918	240.12
351.133	-220.67
351.349	160.25
351.565	381.43
351.781	-214.52
351.996	20.99
352.212	258.56
352.428	-202.24
352.644	-224.76
352.859	-220.67
353.075	252.41
353.291	25.09
353.506	-155.13
353.722	-261.63
353.938	-122.37
354.153	463.35
354.369	98.81
354.584	-212.48
354.8	215.55
355.016	-304.64
355.231	-290.3
355.447	-79.36
355.662	53.76
355.878	805.36
356.093	-339.45
356.309	-3.58
356.524	-222.72
356.74	229.88
356.955	-224.76
357.171	-120.32
357.386	125.44
357.602	-261.63
357.817	-62.98
358.033	-220.67
358.248	369.15
358.464	123.39
358.679	-89.6
358.895	-349.69
359.11	-36.35
359.325	291.32
359.541	8.7
359.756	-7.68
359.972	-228.86
360.187	180.73
360.402	-237.05
360.618	-181.76
360.833	1047.02
361.048	150.01
361.264	-114.17
361.479	-48.64
361.694	8.7
361.909	201.21
362.125	-232.96
362.34	-126.46
362.555	330.23
362.77	66.05
362.986	-294.4
363.201	-224.76
363.416	215.55
363.631	16.9
363.847	-257.53
364.062	-212.48
364.277	221.69
364.492	70.14
364.707	-181.76
364.922	-390.65
365.138	260.6
365.353	295.42
365.568	-280.06
365.783	-157.18
365.998	119.29
366.213	578.04
366.428	-232.96
366.643	-60.93
366.858	274.94
367.073	139.77
367.288	-130.56
367.503	-327.16
367.718	-32.26
367.933	299.52
368.148	-294.4
368.363	-103.93
368.578	-114.17
368.793	406.01
369.008	-136.7
369.223	-282.11
369.438	190.97
369.653	338.43
369.868	-292.35
370.083	-314.88
370.298	174.59
370.513	412.15
370.728	39.42
370.943	-169.47
371.157	-151.04
371.372	483.83
371.587	-284.16
371.802	-372.22
372.017	-1.54
372.232	422.39
372.446	-62.98
372.661	-298.49
372.876	233.98
373.091	184.83
373.306	-60.93
373.52	-298.49
373.735	-122.37
373.95	385.53
374.165	-155.13
374.379	-167.42
374.594	-245.24
374.809	53.76
375.023	2.56
375.238	-327.16
375.453	246.27
375.667	-269.82
375.882	-138.75
376.097	-243.2
376.311	12.8
376.526	-85.5
376.741	-273.92
376.955	107.01
377.17	532.98
377.384	520.7
377.599	-65.02
377.813	-370.17
378.028	440.83
378.242	174.59
378.457	-110.08
378.672	-355.83
378.886	61.95
379.101	-13.82
379.315	-357.88
379.53	-210.43
379.744	186.88
379.958	217.6
380.173	-212.48
380.387	-290.3
380.602	119.29
380.816	-105.98
381.031	-185.85
381.245	-105.98
381.459	115.2
381.674	2697.69
381.888	-243.2
382.103	102.91
382.317	-85.5
382.531	434.68
382.746	-42.5
382.96	-196.09
383.174	-93.69
383.388	424.44
383.603	0.51
383.817	-312.83
384.031	184.83
384.246	453.11
384.46	-50.69
384.674	268.8
384.888	-42.5
385.103	78.33
385.317	-372.22
385.531	-19.97
385.745	360.95
385.959	274.94
386.174	-171.52
386.388	-323.07
386.602	-5.63
386.816	-148.99
387.03	-181.76
387.244	-87.55
387.458	51.71
387.672	336.38
387.887	-298.49
388.101	-339.45
388.315	326.14
388.529	94.72
388.743	-171.52
388.957	-298.49
389.171	276.99
389.385	-194.05
389.599	-167.42
389.813	98.81
390.027	195.07
390.241	688.63
390.455	-208.38
390.669	-126.46
390.883	-75.26
391.097	344.57
391.311	-7.68
391.525	-196.09
391.738	172.54
391.952	197.12
392.166	-60.93
392.38	-210.43
392.594	205.31
392.808	305.66
393.022	-85.5
393.236	-163.33
393.449	184.83
393.663	113.15
393.877	-288.25
394.091	-169.47
394.305	-67.07
394.518	-153.09
394.732	-282.11
394.946	-99.84
395.16	502.26
395.373	78.33
395.587	-249.34
395.801	-210.43
396.015	238.08
396.228	115.2
396.442	-321.02
396.656	-333.31
396.869	303.61
397.083	487.93
397.297	-167.42
397.51	-216.57
397.724	338.43
397.938	111.1
398.151	-286.2
398.365	-335.35
398.578	145.92
398.792	393.72
399.005	-3.58
399.219	-155.13
399.433	174.59
399.646	205.31
399.86	14.85
400.073	8.7
400.287	295.42
400.5	-65.02
400.714	-71.17
400.927	-142.85
401.141	256.51
401.354	1108.46
401.567	211.45
401.781	-235
401.994	307.71
402.208	535.03
402.421	-196.09
402.635	-124.41
402.848	-1.54
403.061	324.09
403.275	-103.93
403.488	-202.24
403.701	449.02
403.915	143.87
404.128	-30.21
404.341	-196.09
404.555	217.6
404.768	-19.97
404.981	25.09
405.195	-243.2
405.408	467.45
405.621	256.51
405.834	27.14
406.048	-273.92
406.261	373.24
406.474	457.21
406.687	-202.24
406.9	49.66
407.114	66.05
407.327	131.58
407.54	-271.87
407.753	-366.07
407.966	-138.75
408.179	180.73
408.392	-278.01
408.605	-339.45
408.819	166.4
409.032	172.54
409.245	-255.48
409.458	-13.82
409.671	188.93
409.884	174.59
410.097	-349.69
410.31	33.28
410.523	160.25
410.736	-22.02
410.949	-97.79
411.162	-67.07
411.375	434.68
411.588	195.07
411.801	-69.12
412.014	-204.28
412.227	8.7
412.44	-118.27
412.653	-194.05
412.865	-48.64
413.078	293.37
413.291	145.92
413.504	-95.74
413.717	-185.85
413.93	305.66
414.143	-128.51
414.356	-177.66
414.568	-255.48
414.781	262.65
414.994	115.2
415.207	-87.55
415.42	-122.37
415.632	221.69
415.845	442.87
416.058	-331.26
416.271	-298.49
416.483	12.8
416.696	432.63
416.909	-239.1
417.121	-146.94
417.334	150.01
417.547	526.84
417.759	-245.24
417.972	-202.24
418.185	-50.69
418.397	209.4
418.61	-167.42
418.823	-226.81
419.035	401.91
419.248	20.99
419.46	-132.61
419.673	8.7
419.885	152.06
420.098	-44.54
420.311	-155.13
420.523	-456.19
420.736	197.12
420.948	53.76
421.161	-179.71
421.373	-445.95
421.586	156.16
421.798	-91.65
422.01	-349.69
422.223	-54.78
422.435	-140.8
422.648	246.27
422.86	-130.56
423.073	-284.16
423.285	272.89
423.497	-245.24
423.71	-269.82
423.922	-267.77
424.134	150.01
424.347	414.2
424.559	12.8
424.771	53.76
424.984	-52.74
425.196	104.96
425.408	-353.79
425.621	-298.49
425.833	182.78
426.045	389.63
426.257	-249.34
426.47	-228.86
426.682	197.12
426.894	72.19
427.106	-257.53
427.318	-196.09
427.531	-151.04
427.743	240.12
427.955	-151.04
428.167	295.42
428.379	209.4
428.591	92.67
428.804	-134.65
429.016	-284.16
429.228	-99.84
429.44	94.72
429.652	-116.22
429.864	-294.4
430.076	66.05
430.288	-36.35
430.5	-126.46
430.712	-122.37
430.924	342.52
431.136	64
431.348	-376.31
431.56	-261.63
431.772	-69.12
431.984	-79.36
432.196	-261.63
432.408	-269.82
432.62	-56.83
432.832	123.39
433.044	100.86
433.256	-97.79
433.468	197.12
433.679	-271.87
433.891	-306.68
434.103	-24.06
434.315	424.44
434.527	209.4
434.739	-48.64
434.95	-196.09
435.162	293.37
435.374	-48.64
435.586	-138.75
435.798	-263.68
436.009	-161.28
436.221	-44.54
436.433	-298.49
436.645	-167.42
436.856	-81.41
437.068	215.55
437.28	-239.1
437.491	57.86
437.703	180.73
437.915	115.2
438.126	-148.99
438.338	49.66
438.55	-54.78
438.761	115.2
438.973	-173.57
439.184	-192
439.396	70.14
439.608	285.18
439.819	-241.15
440.031	-89.6
440.242	213.5
440.454	174.59
440.665	-146.94
440.877	-173.57
441.088	57.86
441.3	-79.36
441.511	-368.12
441.723	-292.35
441.934	135.68
442.146	53.76
442.357	-48.64
442.569	82.43
442.78	49.66
442.991	369.15
443.203	98.81
443.414	-278.01
443.626	360.95
443.837	-171.52
444.048	-329.21
444.26	-337.4
444.471	88.57
444.682	250.36
444.894	-380.41
445.105	-337.4
445.316	360.95
445.528	164.35
445.739	-159.23
445.95	-200.19
446.161	107.01
446.373	303.61
446.584	-185.85
446.795	-187.9
447.006	182.78
447.217	451.07
447.429	-292.35
447.64	-251.39
447.851	403.96
448.062	74.24
448.273	-429.56
448.484	-325.12
448.695	225.79
448.907	-44.54
449.118	-95.74
449.329	-85.5
449.54	-163.33
449.751	-216.57
449.962	-210.43
450.173	-161.28
450.384	303.61
450.595	279.04
450.806	-216.57
451.017	-183.81
451.228	365.05
451.439	264.7
451.65	-175.61
451.861	-429.56
452.072	-247.29
452.283	-36.35
452.494	37.38
452.705	-288.25
452.915	451.07
453.126	107.01
453.337	-261.63
453.548	-333.31
453.759	299.52
453.97	469.5
454.181	70.14
454.391	-192
454.602	86.53
454.813	172.54
455.024	-175.61
455.235	-216.57
455.445	29.18
455.656	199.16
455.867	-60.93
456.078	-237.05
456.288	-9.73
456.499	111.1
456.71	-245.24
456.921	-26.11
457.131	141.82
457.342	37.38
457.553	-79.36
457.763	-245.24
457.974	139.77
458.184	264.7
458.395	-265.72
458.606	-351.74
458.816	324.09
459.027	475.64
459.237	-93.69
459.448	-421.37
459.659	363
459.869	623.09
460.08	-374.27
460.29	-85.5
460.501	504.31
460.711	-140.8
460.922	-245.24
461.132	-253.44
461.343	696.82
461.553	-329.21
461.764	-341.5
461.974	-239.1
462.184	213.5
462.395	100.86
462.605	-265.72
462.816	-306.68
463.026	49.66
463.236	281.08
463.447	-331.26
463.657	-220.67
463.867	195.07
464.078	-79.36
464.288	-177.66
464.498	-241.15
464.709	53.76
464.919	-120.32
465.129	-118.27
465.339	-280.06
465.55	96.77
465.76	221.69
465.97	-206.33
466.18	-290.3
466.391	231.93
466.601	154.11
466.811	-179.71
467.021	-376.31
467.231	170.49
467.441	281.08
467.651	-126.46
467.862	-411.13
468.072	-19.97
468.282	338.43
468.492	-175.61
468.702	-159.23
468.912	55.81
469.122	696.82
469.332	80.38
469.542	-341.5
469.752	236.03
469.962	45.57
470.172	-267.77
470.382	-353.79
470.592	147.97
470.802	315.9
471.012	-77.31
471.222	-267.77
471.432	256.51
471.642	176.64
471.852	-163.33
472.062	-286.2
472.272	39.42
472.482	-222.72
472.691	-359.93
472.901	-325.12
473.111	45.57
473.321	492.02
473.531	-318.97
473.741	-159.23
473.95	160.25
474.16	186.88
474.37	-69.12
474.58	-306.68
474.79	496.12
474.999	213.5
475.209	-345.59
475.419	-192
475.628	53.76
475.838	348.67
476.048	-36.35
476.258	-329.21
476.467	254.46
476.677	-89.6
476.886	-97.79
477.096	-159.23
477.306	-134.65
477.515	348.67
477.725	-128.51
477.935	-155.13
478.144	406.01
478.354	-89.6
478.563	-241.15
478.773	-228.86
478.982	231.93
479.192	371.19
479.401	-110.08
479.611	-286.2
479.82	-95.74
480.03	201.21
480.239	-308.73
480.449	-353.79
480.658	496.12
480.868	-108.03
481.077	-3.58
481.287	-257.53
481.496	166.4
481.705	322.04
481.915	16.9
482.124	18.94
482.333	172.54
482.543	442.87
482.752	-183.81
482.961	-269.82
483.171	195.07
483.38	-7.68
483.589	-208.38
483.799	-273.92
484.008	8.7
484.217	205.31
484.426	-220.67
484.636	-308.73
484.845	98.81
485.054	-257.53
485.263	82.43
485.472	-228.86
485.682	494.07
485.891	117.25
486.1	-351.74
486.309	-271.87
486.518	233.98
486.727	371.19
486.936	-245.24
487.146	-93.69
487.355	348.67
487.564	-146.94
487.773	-241.15
487.982	-151.04
488.191	-48.64
488.4	76.29
488.609	-208.38
488.818	-245.24
489.027	637.43
489.236	317.95
489.445	-161.28
489.654	-259.58
489.863	303.61
490.072	117.25
490.281	145.92
490.49	-185.85
490.698	438.78
490.907	379.39
491.116	-218.62
491.325	-384.51
491.534	391.67
491.743	162.3
491.952	-157.18
492.16	-175.61
492.369	119.29
492.578	295.42
492.787	-58.88
492.996	-312.83
493.204	-75.26
493.413	516.6
493.622	-521.72
493.831	-392.7
494.039	344.57
494.248	-169.47
494.457	-204.28
494.665	-456.19
494.874	229.88
495.083	670.2
495.291	-200.19
495.5	-343.55
495.709	281.08
495.917	141.82
496.126	-130.56
496.335	-329.21
496.543	16.9
496.752	168.45
496.96	-36.35
497.169	-333.31
497.377	80.38
497.586	328.19
497.794	-118.27
498.003	-417.27
498.211	66.05
498.42	401.91
498.628	-159.23
498.837	-257.53
499.045	172.54
499.254	35.33
499.462	-155.13
499.671	-220.67
499.879	539.13
500.087	324.09
500.296	-273.92
500.504	-208.38
500.713	23.04
500.921	565.75
501.129	-183.81
501.338	-163.33
501.546	184.83
501.754	147.97
501.962	-198.14
502.171	-253.44
502.379	139.77
502.587	477.69
502.795	-230.91
503.004	-208.38
503.212	117.25
503.42	356.86
503.628	-114.17
503.837	-77.31
504.045	236.03
504.253	516.6
504.461	-278.01
504.669	-382.46
504.877	287.23
505.085	516.6
505.294	-290.3
505.502	-17.92
505.71	92.67
505.918	344.57
506.126	-214.52
506.334	-187.9
506.542	14.85
506.75	193.02
506.958	-101.89
507.166	-142.85
507.374	-40.45
507.582	512.5
507.79	-50.69
507.998	-196.09
508.206	227.84
508.414	231.93
508.622	-159.23
508.83	-212.48
509.037	449.02
509.245	-15.87
509.453	-198.14
509.661	-288.25
509.869	180.73
510.077	-7.68
510.285	-85.5
510.492	-511.48
510.7	778.74
510.908	-36.35
511.116	-183.81
511.324	-253.44
511.531	-32.26
511.739	205.31
511.947	31.23
512.155	41.47
512.362	123.39
512.57	-110.08
512.778	-278.01
512.985	-333.31
513.193	334.33
513.401	422.39
513.608	-103.93
513.816	-273.92
514.024	223.74
514.231	363
514.439	-216.57
514.646	-192
514.854	240.12
515.061	340.47
515.269	-189.95
515.477	-138.75
515.684	-146.94
515.892	317.95
516.099	-292.35
516.307	-384.51
516.514	248.32
516.722	465.4
516.929	-185.85
517.136	-253.44
517.344	535.03
517.551	164.35
517.759	-224.76
517.966	-187.9
518.173	16.9
518.381	74.24
518.588	-34.3
518.796	-339.45
519.003	360.95
519.21	94.72
519.418	-192
519.625	82.43
519.832	31.23
520.039	221.69
520.247	-347.64
520.454	-155.13
520.661	330.23
520.868	236.03
521.076	-177.66
521.283	-120.32
521.49	727.54
521.697	225.79
521.904	-108.03
522.112	-122.37
522.319	440.83
522.526	356.86
522.733	-118.27
522.94	-243.2
523.147	66.05
523.354	403.96
523.561	-323.07
523.768	-132.61
523.975	348.67
524.183	182.78
524.39	-73.21
524.597	-359.93
524.804	57.86
525.011	-118.27
525.218	-249.34
525.425	-183.81
525.632	440.83
525.838	4.61
526.045	-177.66
526.252	-124.41
526.459	1262.06
526.666	965.11
526.873	-230.91
527.08	-171.52
527.287	494.07
527.494	403.96
527.701	-304.64
527.907	-200.19
528.114	279.04
528.321	16.9
528.528	2.56
528.735	-140.8
528.941	47.62
529.148	-15.87
529.355	-24.06
529.562	-181.76
529.768	561.66
529.975	4.61
530.182	-146.94
530.388	-196.09
530.595	342.52
530.802	-175.61
531.008	-3.58
531.215	-97.79
531.422	586.23
531.628	893.43
531.835	-95.74
532.042	35.33
532.248	53.76
532.455	264.7
532.661	-65.02
532.868	-208.38
533.074	213.5
533.281	375.29
533.487	-87.55
533.694	-237.05
533.9	-48.64
534.107	322.04
534.313	-146.94
534.52	-194.05
534.726	383.48
534.933	688.63
535.139	-155.13
535.345	-259.58
535.552	274.94
535.758	172.54
535.965	-50.69
536.171	-110.08
536.377	395.77
536.584	508.41
536.79	-163.33
536.996	-60.93
537.203	254.46
537.409	279.04
537.615	-42.5
537.821	64
538.028	387.58
538.234	385.53
538.44	-44.54
538.646	-79.36
538.853	295.42
539.059	156.16
539.265	248.32
539.471	-284.16
539.677	365.05
539.883	84.48
540.09	-122.37
540.296	373.24
540.502	205.31
540.708	29.18
540.914	129.53
541.12	-79.36
541.326	346.62
541.532	82.43
541.738	-32.26
541.944	25.09
542.15	422.39
542.356	139.77
542.562	-216.57
542.768	-44.54
542.974	872.95
543.18	639.48
543.386	-85.5
543.592	-214.52
543.798	561.66
544.004	471.54
544.21	-132.61
544.415	117.25
544.621	248.32
544.827	502.26
545.033	-118.27
545.239	117.25
545.445	-48.64
545.651	205.31
545.856	-77.31
546.062	-73.21
546.268	70.14
546.474	340.47
546.679	-60.93
546.885	53.76
547.091	137.73
547.297	737.78
547.502	18.94
547.708	-89.6
547.914	80.38
548.119	426.49
548.325	-144.89
548.531	-97.79
548.736	713.21
548.942	35.33
549.147	-99.84
549.353	156.16
549.559	524.79
549.764	346.62
549.97	-58.88
550.175	-13.82
550.381	426.49
550.586	178.69
550.792	12.8
550.997	-54.78
551.203	385.53
551.408	487.93
551.614	-136.7
551.819	-91.65
552.025	764.4
552.23	782.84
552.435	-105.98
552.641	90.62
552.846	43.52
553.052	594.42
553.257	182.78
553.462	53.76
553.668	107.01
553.873	446.97
554.078	-32.26
554.283	-120.32
554.489	281.08
554.694	203.26
554.899	-151.04
555.105	150.01
555.31	410.11
555.515	438.78
555.72	80.38
555.925	-120.32
556.131	479.74
556.336	127.49
556.541	20.99
556.746	-62.98
556.951	680.44
557.156	696.82
557.361	109.05
557.567	190.97
557.772	889.33
557.977	393.72
558.182	35.33
558.387	-42.5
558.592	211.45
558.797	600.57
559.002	125.44
559.207	184.83
559.412	350.71
559.617	705.01
559.822	59.9
560.027	-120.32
560.232	442.87
560.437	553.46
560.642	-93.69
560.847	49.66
561.051	336.38
561.256	395.77
561.461	29.18
561.666	-89.6
561.871	377.34
562.076	451.07
562.281	98.81
562.485	-19.97
562.69	567.8
562.895	668.15
563.1	0.51
563.305	-7.68
563.509	678.39
563.714	852.47
563.919	78.33
564.123	37.38
564.328	299.52
564.533	643.57
564.737	129.53
564.942	141.82
565.147	707.06
565.351	911.86
565.556	180.73
565.761	221.69
565.965	446.97
566.17	213.5
566.374	109.05
566.579	10.75
566.784	432.63
566.988	221.69
567.193	-19.97
567.397	127.49
567.602	86.53
567.806	414.2
568.011	125.44
568.215	113.15
568.42	354.81
568.624	346.62
568.828	39.42
569.033	223.74
569.237	543.22
569.442	399.87
569.646	-101.89
569.85	139.77
570.055	332.28
570.259	555.51
570.463	291.32
570.668	68.09
570.872	358.91
571.076	328.19
571.281	250.36
571.485	201.21
571.689	412.15
571.893	528.89
572.098	264.7
572.302	166.4
572.506	559.61
572.71	434.68
572.914	150.01
573.119	123.39
573.323	885.23
573.527	778.74
573.731	135.68
573.935	82.43
574.139	578.04
574.343	283.13
574.547	188.93
574.751	180.73
574.955	809.46
575.159	643.57
575.364	184.83
575.568	29.18
575.772	422.39
575.976	664.05
576.18	166.4
576.383	80.38
576.587	723.44
576.791	684.53
576.995	-60.93
577.199	-1.54
577.403	684.53
577.607	831.99
577.811	98.81
578.015	240.12
578.219	483.83
578.422	659.96
578.626	225.79
578.83	307.71
579.034	727.54
579.238	696.82
579.442	248.32
579.645	549.37
579.849	436.73
580.053	465.4
580.257	274.94
580.46	356.86
580.664	786.93
580.868	682.49
581.071	428.54
581.275	389.63
581.479	231.93
581.682	657.91
581.886	236.03
582.09	276.99
582.293	725.49
582.497	805.36
582.7	440.83
582.904	170.49
583.107	453.11
583.311	575.99
583.515	369.15
583.718	250.36
583.922	696.82
584.125	977.39
584.329	174.59
584.532	467.45
584.735	848.37
584.939	672.25
585.142	203.26
585.346	223.74
585.549	684.53
585.753	475.64
585.956	254.46
586.159	352.76
586.363	952.82
586.566	643.57
586.769	225.79
586.973	180.73
587.176	647.67
587.379	844.28
587.582	602.61
587.786	506.36
587.989	582.14
588.192	1171.95
588.395	350.71
588.599	582.14
588.802	674.29
589.005	762.36
589.208	352.76
589.411	387.58
589.615	877.04
589.818	948.72
590.021	582.14
590.224	381.43
590.427	737.78
590.63	795.12
590.833	115.2
591.036	303.61
591.239	520.7
591.442	446.97
591.645	625.14
591.848	377.34
592.051	838.13
592.254	848.37
592.457	348.67
592.66	416.25
592.863	694.77
593.066	778.74
593.269	399.87
593.472	377.34
593.675	514.55
593.878	881.14
594.081	440.83
594.284	299.52
594.486	795.12
594.689	688.63
594.892	555.51
595.095	389.63
595.298	774.64
595.5	610.81
595.703	530.94
595.906	575.99
596.109	1094.13
596.311	870.9
596.514	215.55
596.717	580.09
596.92	920.05
597.122	827.89
597.325	164.35
597.528	410.11
597.73	993.78
597.933	721.4
598.136	453.11
598.338	172.54
598.541	926.19
598.743	969.2
598.946	440.83
599.148	582.14
599.351	975.35
599.554	1018.35
599.756	547.32
599.959	463.35
600.161	956.91
600.363	1372.65
600.566	737.78
600.768	414.2
600.971	1147.37
601.173	983.54
601.376	504.31
601.578	504.31
601.78	868.85
601.983	1294.83
602.185	424.44
602.388	741.88
602.59	897.52
602.792	682.49
602.995	672.25
603.197	551.42
603.399	1065.46
603.601	905.71
603.804	508.41
604.006	414.2
604.208	756.21
604.41	494.07
604.613	657.91
604.815	524.79
605.017	1223.15
605.219	692.73
605.421	854.51
605.623	598.52
605.826	1118.7
606.028	1196.53
606.23	592.37
606.432	522.74
606.634	1243.63
606.836	1178.09
607.038	467.45
607.24	705.01
607.442	877.04
607.644	901.62
607.846	692.73
608.048	520.7
608.25	1196.53
608.452	645.62
608.654	668.15
608.856	401.91
609.058	705.01
609.26	958.96
609.462	752.12
609.664	676.34
609.866	1442.28
610.067	1044.98
610.269	813.56
610.471	475.64
610.673	678.39
610.875	1034.74
611.077	535.03
611.278	846.32
611.48	934.39
611.682	1364.46
611.884	774.64
612.085	707.06
612.287	680.44
612.489	991.73
612.69	518.65
612.892	670.2
613.094	1241.58
613.295	993.78
613.497	573.94
613.699	653.81
613.9	1409.51
614.102	1204.72
614.304	698.87
614.505	592.37
614.707	897.52
614.908	956.91
615.11	547.32
615.311	788.98
615.513	1100.27
615.714	1186.29
615.916	590.33
616.117	739.83
616.319	948.72
616.52	1098.22
616.722	772.6
616.923	639.48
617.124	1241.58
617.326	1059.31
617.527	735.73
617.729	991.73
617.93	1208.81
618.131	1182.19
618.333	752.12
618.534	836.08
618.735	700.92
618.937	1432.04
619.138	561.66
619.339	688.63
619.54	1176.05
619.742	956.91
619.943	983.54
620.144	750.07
620.345	1184.24
620.546	1210.86
620.748	696.82
620.949	709.11
621.15	1122.8
621.351	1139.18
621.552	700.92
621.753	573.94
621.954	688.63
622.155	1497.58
622.356	686.58
622.558	1026.54
622.759	1112.56
622.96	1436.14
623.161	829.94
623.362	905.71
623.563	1124.85
623.764	1081.84
623.965	836.08
624.166	1053.17
624.366	940.53
624.567	1098.22
624.768	606.71
624.969	874.99
625.17	1110.51
625.371	1298.92
625.572	1008.11
625.773	838.13
625.973	1419.75
626.174	1343.98
626.375	930.29
626.576	1004.02
626.777	1157.61
626.977	1640.93
627.178	918
627.379	926.19
627.58	1130.99
627.78	1225.2
627.981	854.51
628.182	965.11
628.382	1346.03
628.583	754.16
628.784	743.92
628.984	1079.79
629.185	1296.88
629.386	1405.42
629.586	934.39
629.787	819.7
629.987	1401.32
630.188	1155.57
630.388	1030.64
630.589	969.2
630.79	1821.16
630.99	1253.87
631.191	1016.3
631.391	985.58
631.591	1309.16
631.792	1622.5
631.992	1165.81
632.193	1008.11
632.393	1647.08
632.594	1198.57
632.794	889.33
632.994	1061.36
633.195	1196.53
633.395	1343.98
633.595	1012.21
633.796	1288.68
633.996	1114.61
634.196	1436.14
634.397	930.29
634.597	987.63
634.797	1075.7
634.997	1696.23
635.198	1264.11
635.398	852.47
635.598	1386.99
635.798	1626.6
635.998	1511.91
636.199	932.34
636.399	1227.25
636.599	1061.36
636.799	1081.84
636.999	1343.98
637.199	1534.44
637.399	1651.17
637.599	975.35
637.799	1176.05
637.999	1237.49
638.199	1604.07
638.399	907.76
638.599	1012.21
638.799	1432.04
638.999	1905.12
639.199	1233.39
639.399	1206.77
639.599	1628.65
639.799	1178.09
639.999	934.39
640.199	1077.74
640.399	1462.76
640.599	1606.12
640.799	1030.64
640.998	1298.92
641.198	1624.55
641.398	1483.24
641.598	1266.16
641.798	1104.37
641.997	2269.66
642.197	1456.62
642.397	1325.55
642.597	1188.33
642.796	1548.78
642.996	1706.47
643.196	1393.13
643.395	1149.42
643.595	1548.78
643.795	1075.7
643.994	1180.14
644.194	1202.67
644.394	1616.36
644.593	1559.02
644.793	989.68
644.992	1323.5
645.192	1610.22
645.392	1090.03
645.591	1405.42
645.791	1239.53
645.99	1575.4
646.19	1485.29
646.389	1288.68
646.589	1343.98
646.788	1653.22
646.987	1620.46
647.187	1454.57
647.386	1475.05
647.586	1497.58
647.785	1739.24
647.984	1266.16
648.184	1429.99
648.383	1477.1
648.582	1470.95
648.782	1264.11
648.981	1511.91
649.18	1286.64
649.38	1692.13
649.579	1384.94
649.778	1260.01
649.977	1667.56
650.177	1606.12
650.376	1311.21
650.575	1278.44
650.774	2105.82
650.973	1380.84
651.173	1110.51
651.372	1409.51
651.571	1722.85
651.77	1772
651.969	1337.84
652.168	1499.63
652.367	1405.42
652.566	1669.61
652.765	1229.29
652.964	1823.2
653.163	2187.74
653.362	1630.7
653.561	1374.7
653.76	1391.08
653.959	1542.63
654.158	1739.24
654.357	1579.5
654.556	1327.6
654.755	1913.31
654.954	1866.21
655.153	1516.01
655.352	1501.67
655.551	2001.38
655.749	1511.91
655.948	1509.86
656.147	1524.2
656.346	1878.5
656.545	1659.37
656.743	1448.43
656.942	1589.74
657.141	1671.65
657.34	1436.14
657.538	1489.39
657.737	1481.19
657.936	1526.25
658.135	1858.02
658.333	1411.56
658.532	1634.79
658.731	2165.21
658.929	1941.99
659.128	1860.07
659.326	1440.23
659.525	2064.86
659.724	1798.63
659.922	1323.5
660.121	1397.23
660.319	1991.14
660.518	1667.56
660.716	1393.13
660.915	1405.42
661.113	2169.31
661.312	1485.29
661.51	1704.42
661.709	1540.58
661.907	2050.53
662.105	2154.98
662.304	1585.64
662.502	1642.98
662.701	2159.07
662.899	1737.19
663.097	1901.03
663.296	1479.15
663.494	2025.95
663.692	2300.38
663.891	1487.34
664.089	1536.49
664.287	1860.07
664.485	2271.71
664.684	1573.35
664.882	1634.79
665.08	1835.49
665.278	1798.63
665.476	1540.58
665.675	1952.23
665.873	2408.92
666.071	2079.2
666.269	1597.93
666.467	1913.31
666.665	1925.6
666.863	1792.48
667.061	1847.78
667.259	1778.15
667.457	1853.92
667.655	2056.67
667.853	1434.09
668.051	1714.66
668.249	1731.05
668.447	2032.1
668.645	1622.5
668.843	1855.97
669.041	2015.71
669.239	1819.11
669.437	1763.81
669.635	1872.36
669.833	1872.36
670.031	2081.25
670.229	1855.97
670.426	1827.3
670.624	1905.12
670.822	1829.35
671.02	1810.92
671.218	1864.16
671.415	1651.17
671.613	1933.79
671.811	1886.69
672.009	1751.53
672.206	2257.37
672.404	2032.1
672.602	2013.67
672.799	1939.94
672.997	2140.64
673.195	2255.33
673.392	1808.87
673.59	1685.99
673.788	2238.94
673.985	1513.96
674.183	1843.68
674.38	1788.39
674.578	2288.09
674.775	1849.83
674.973	1657.32
675.17	1692.13
675.368	2300.38
675.565	2122.21
675.763	1722.85
675.96	1774.05
676.158	2400.73
676.355	1952.23
676.553	1931.75
676.75	1810.92
676.947	2023.91
677.145	1968.61
677.342	1966.56
677.539	1956.32
677.737	2124.26
677.934	2587.1
678.131	2025.95
678.329	1882.6
678.526	2515.42
678.723	2372.06
678.92	2064.86
679.118	1876.45
679.315	1898.98
679.512	2431.45
679.709	1999.33
679.906	1903.07
680.104	2451.93
680.301	2257.37
680.498	1866.21
680.695	1851.88
680.892	2083.3
681.089	2050.53
681.286	2079.2
681.483	1872.36
681.68	2316.76
681.877	2402.78
682.075	2001.38
682.272	2202.08
682.469	2197.98
682.665	2032.1
682.862	1829.35
683.059	1757.67
683.256	2195.93
683.453	2290.14
683.65	2150.88
683.847	1991.14
684.044	2103.78
684.241	1944.03
684.438	2099.68
684.635	1835.49
684.831	2691.54
685.028	2730.45
685.225	1970.66
685.422	2120.16
685.619	2216.41
685.815	2257.37
686.012	2032.1
686.209	2126.3
686.405	1794.53
686.602	2390.49
686.799	1872.36
686.996	2044.38
687.192	2021.86
687.389	2875.86
687.586	1968.61
687.782	1960.42
687.979	2611.67
688.175	2539.99
688.372	2021.86
688.568	2023.91
688.765	1999.33
688.962	2527.71
689.158	2210.27
689.355	1845.73
689.551	2406.88
689.748	2179.55
689.944	2081.25
690.14	1896.93
690.337	2437.59
690.533	2167.26
690.73	2279.9
690.926	2146.78
691.123	2474.46
691.319	2214.37
691.515	1984.99
691.712	2320.86
691.908	2474.46
692.104	2347.48
692.301	2183.65
692.497	2032.1
692.693	2664.92
692.889	2468.31
693.086	2247.13
693.282	1892.84
693.478	2341.34
693.674	2814.42
693.87	2163.17
694.067	1989.09
694.263	2435.55
694.459	2202.08
694.655	2378.2
694.851	2304.48
695.047	2410.97
695.243	2531.8
695.439	2267.61
695.635	1999.33
695.831	2490.84
696.027	2413.02
696.224	2036.19
696.42	2417.12
696.615	2843.09
696.811	2488.79
697.007	2095.58
697.203	2116.06
697.399	2443.74
697.595	2765.27
697.791	2064.86
697.987	2245.09
698.183	2114.02
698.379	2224.61
698.575	2220.51
698.77	2202.08
698.966	2587.1
699.162	2783.7
699.358	2310.62
699.554	2251.23
699.749	2701.78
699.945	2613.72
700.141	2271.71
700.337	2294.24
700.532	2367.96
700.728	2337.24
700.924	2052.58
701.119	2019.81
701.315	2621.91
701.511	2413.02
701.706	2374.11
701.902	2011.62
702.097	2445.79
702.293	2593.24
702.489	2304.48
702.684	2355.68
702.88	2353.63
703.075	2456.03
703.271	2388.44
703.466	2101.73
703.662	2453.98
703.857	2714.07
704.053	2138.59
704.248	2208.22
704.443	2761.17
704.639	2638.3
704.834	2294.24
705.03	2327
705.225	2722.26
705.42	2804.18
705.616	2308.57
705.811	2251.23
706.006	2539.99
706.202	2462.17
706.397	2367.96
706.592	2056.67
706.787	2580.95
706.983	2517.47
707.178	2523.61
707.373	2200.03
707.568	2857.43
707.763	2795.99
707.959	2261.47
708.154	2408.92
708.349	2535.9
708.544	2757.08
708.739	2576.86
708.934	2200.03
709.129	2687.45
709.324	2959.83
709.519	2339.29
709.714	2308.57
709.909	2890.2
710.104	2806.23
710.299	2388.44
710.494	2400.73
710.689	2609.62
710.884	2687.45
711.079	2609.62
711.274	2703.83
711.469	2765.27
711.664	2580.95
711.859	2226.65
712.054	2539.99
712.249	2843.09
712.443	2798.04
712.638	2433.5
712.833	2281.95
713.028	2689.49
713.223	2621.91
713.417	2707.93
713.612	2339.29
713.807	2730.45
714.002	3242.45
714.196	2603.48
714.391	2421.21
714.586	2851.28
714.78	2695.64
714.975	2435.55
715.17	2431.45
715.364	2687.45
715.559	2879.96
715.754	2142.69
715.948	2396.64
716.143	3056.08
716.337	2849.24
716.532	2728.41
716.726	2445.79
716.921	2845.14
717.115	3162.58
717.31	2367.96
717.504	3105.23
717.699	2597.34
717.893	2925.01
718.088	2435.55
718.282	2343.39
718.476	2787.8
718.671	2806.23
718.865	2372.06
719.059	2539.99
719.254	2769.37
719.448	3017.17
719.642	3830.21
719.837	2355.68
720.031	2922.96
720.225	3045.84
720.419	2660.82
720.614	2357.72
720.808	2845.14
721.002	2654.68
721.196	2453.98
721.39	2437.59
721.585	3084.75
721.779	2828.76
721.973	2539.99
722.167	2238.94
722.361	2861.52
722.555	3006.93
722.749	2507.23
722.943	2517.47
723.137	2431.45
723.331	2671.06
723.525	2486.75
723.719	2517.47
723.913	2816.47
724.107	3084.75
724.301	2331.1
724.495	2621.91
724.689	3248.59
724.883	3072.47
725.077	2437.59
725.271	2560.47
725.465	3080.66
725.659	2814.42
725.853	2683.35
726.046	2410.97
726.24	2597.34
726.434	3043.79
726.628	2527.71
726.822	2675.16
727.015	3021.27
727.209	3051.99
727.403	2568.66
727.596	2331.1
727.79	3086.8
727.984	3170.77
728.177	2666.97
728.371	2654.68
728.565	3090.9
728.758	2601.43
728.952	2546.14
729.146	2572.76
729.339	3097.04
729.533	2802.13
729.726	2673.11
729.92	2562.52
730.113	3133.9
730.307	2886.1
730.5	2603.48
730.694	2615.77
730.887	2859.48
731.081	3066.32
731.274	2621.91
731.468	2683.35
731.661	2791.89
731.854	2834.9
732.048	2642.39
732.241	2572.76
732.435	2775.51
732.628	2965.97
732.821	2736.6
733.014	2562.52
733.208	2617.82
733.401	3170.77
733.594	2750.93
733.788	2539.99
733.981	3236.3
734.174	2968.02
734.367	2736.6
734.56	2793.94
734.754	3101.14
734.947	2859.48
735.14	2535.9
735.333	2787.8
735.526	3166.67
735.719	2795.99
735.912	2609.62
736.105	2595.29
736.298	2990.55
736.491	2832.85
736.684	2740.69
736.877	2752.98
737.07	3125.71
737.263	3207.63
737.456	2724.31
737.649	2660.82
737.842	2810.33
738.035	3000.79
738.228	2789.85
738.421	2886.1
738.614	3291.6
738.807	3082.7
739	2527.71
739.192	2681.3
739.385	3271.12
739.578	3076.56
739.771	3019.22
739.964	2677.21
740.156	3094.99
740.349	3021.27
740.542	2984.4
740.735	2634.2
740.927	2738.65
741.12	2650.58
741.313	2781.65
741.505	2888.15
741.698	3090.9
741.891	3119.57
742.083	2886.1
742.276	2867.67
742.468	2914.77
742.661	2998.74
742.854	2918.87
743.046	2810.33
743.239	3475.91
743.431	2986.45
743.624	2861.52
743.816	2638.3
744.009	2998.74
744.201	3228.11
744.393	3033.55
744.586	2656.73
744.778	3361.23
744.971	3164.62
745.163	2843.09
745.355	2902.48
745.548	3119.57
745.74	2953.68
745.932	2814.42
746.125	2931.16
746.317	3434.96
746.509	3340.75
746.702	2937.3
746.894	3060.18
747.086	3047.89
747.278	3428.81
747.471	3000.79
747.663	2957.78
747.855	3131.86
748.047	3578.31
748.239	2785.75
748.431	2814.42
748.623	3457.48
748.815	3453.39
749.008	2814.42
749.2	2843.09
749.392	3330.51
749.584	3293.65
749.776	2968.02
749.968	2965.97
750.16	3668.42
750.352	3004.88
750.544	2859.48
750.736	2810.33
750.928	3375.56
751.12	3146.19
751.311	2943.44
751.503	3008.98
751.695	3201.49
751.887	3152.34
752.079	2773.46
752.271	2978.26
752.463	3826.12
752.654	3338.7
752.846	2888.15
753.038	2783.7
753.23	3041.75
753.421	3269.07
753.613	2982.35
753.805	3166.67
753.997	3396.04
754.188	3330.51
754.38	2785.75
754.572	2963.92
754.763	3133.9
754.955	3344.84
755.146	2892.24
755.338	2988.5
755.53	3357.13
755.721	3205.58
755.913	2748.89
756.104	2839
756.296	3209.68
756.487	3363.28
756.679	2847.19
756.87	2933.2
757.062	2929.11
757.253	3350.99
757.445	2941.4
757.636	3140.05
757.827	3185.1
758.019	3701.19
758.21	2814.42
758.401	2933.2
758.593	3758.53
758.784	3371.47
758.975	2832.85
759.167	2972.11
759.358	3336.65
759.549	3580.36
759.74	2931.16
759.932	2957.78
760.123	3617.22
760.314	3135.95
760.505	3103.18
760.696	2916.82
760.888	3715.53
761.079	3123.66
761.27	2820.56
761.461	2802.13
761.652	3580.36
761.843	3166.67
762.034	3084.75
762.225	3264.97
762.416	3054.03
762.607	3203.54
762.798	3000.79
762.989	2910.68
763.18	4059.59
763.371	3109.33
763.562	2998.74
763.753	2963.92
763.944	3568.07
764.135	3461.58
764.326	3252.69
764.517	3060.18
764.708	3359.18
764.899	3482.06
765.089	2826.71
765.28	2732.5
765.471	3277.26
765.662	3416.52
765.853	3150.29
766.043	2816.47
766.234	3463.63
766.425	3432.91
766.615	2998.74
766.806	2902.48
766.997	3508.68
767.187	3283.41
767.378	2867.67
767.569	2703.83
767.759	3262.93
767.95	3346.89
768.141	3156.43
768.331	2933.2
768.522	3135.95
768.712	3367.37
768.903	3029.46
769.093	2828.76
769.284	3682.76
769.474	3146.19
769.665	2785.75
769.855	2689.49
770.046	3488.2
770.236	3047.89
770.426	3138
770.617	2906.58
770.807	3314.13
770.998	3217.87
771.188	3162.58
771.378	2939.35
771.569	3541.45
771.759	3340.75
771.949	2839
772.139	2652.63
772.33	3240.4
772.52	3731.91
772.71	2900.44
772.9	2918.87
773.09	3553.74
773.281	3568.07
773.471	2910.68
773.661	2853.33
773.851	3432.91
774.041	3187.15
774.231	2851.28
774.421	3031.51
774.611	3502.54
774.802	3238.35
774.992	3166.67
775.182	2845.14
775.372	3262.93
775.562	3502.54
775.752	3064.27
775.942	3027.41
776.131	3471.82
776.321	3238.35
776.511	3049.94
776.701	2855.38
776.891	3473.87
777.081	3031.51
777.271	3027.41
777.461	2867.67
777.651	3535.31
777.84	3514.83
778.03	3226.06
778.22	2982.35
778.41	3486.15
778.599	3045.84
778.789	3088.85
778.979	3006.93
779.169	3353.04
779.358	3224.01
779.548	3394
779.738	2808.28
779.927	3250.64
780.117	3029.46
780.307	2857.43
780.496	2759.13
780.686	3338.7
780.875	3795.4
781.065	2927.06
781.254	2927.06
781.444	3324.37
781.633	3303.89
781.823	2902.48
782.012	3031.51
782.202	3152.34
782.391	3195.34
782.581	2933.2
782.77	3015.12
782.96	3394
783.149	3256.78
783.338	3017.17
783.528	2750.93
783.717	3412.43
783.906	3498.44
784.096	3092.94
784.285	2963.92
784.474	3154.38
784.663	2998.74
784.853	2968.02
785.042	3021.27
785.231	3064.27
785.42	3582.41
785.61	3117.52
785.799	2802.13
785.988	3047.89
786.177	3195.34
786.366	2908.63
786.555	3228.11
786.744	3574.22
786.933	3207.63
787.122	3011.03
787.312	2904.53
787.501	3078.61
787.69	3344.84
787.879	2994.64
788.068	3039.7
788.257	2945.49
788.445	3051.99
788.634	2978.26
788.823	2826.71
789.012	3897.8
789.201	3688.9
789.39	2916.82
789.579	2867.67
789.768	3244.49
789.957	3254.73
790.145	2920.92
790.334	2742.74
790.523	3191.25
790.712	3334.61
790.9	3031.51
791.089	2871.76
791.278	3361.23
791.467	3332.56
791.655	3207.63
791.844	3418.57
792.033	3101.14
792.221	3086.8
792.41	3150.29
792.599	2781.65
792.787	3359.18
792.976	3396.04
793.164	3039.7
793.353	2904.53
793.541	3383.76
793.73	3412.43
793.918	2990.55
794.107	3103.18
794.295	3154.38
794.484	3314.13
794.672	2951.63
794.861	2859.48
795.049	3375.56
795.238	3613.13
795.426	2875.86
795.614	2986.45
795.803	3396.04
795.991	3609.03
796.179	3039.7
796.368	3017.17
796.556	3477.96
796.744	2920.92
796.932	2988.5
797.121	2822.61
797.309	3322.32
797.497	3396.04
797.685	3068.37
797.874	2918.87
798.062	3260.88
798.25	3434.96
798.438	2843.09
798.626	3090.9
798.814	3359.18
799.002	3760.58
799.19	3189.2
799.378	3103.18
799.566	3678.66
799.755	3619.27
799.943	3224.01
800.131	3051.99
800.318	3318.22
800.506	3445.2
800.694	2933.2
800.882	3236.3
801.07	3764.68
801.258	3377.61
801.446	3099.09
801.634	3117.52
801.822	3271.12
802.01	3365.32
802.197	3109.33
802.385	3207.63
802.573	3443.15
802.761	3228.11
802.949	3144.14
803.136	2900.44
803.324	3656.14
803.512	3346.89
803.699	3156.43
803.887	2890.2
804.075	3647.94
804.262	3320.27
804.45	3154.38
804.638	3000.79
804.825	3301.84
805.013	3203.54
805.201	3240.4
805.388	3113.42
805.576	3400.14
805.763	3824.07
805.951	3070.42
806.138	3178.96
806.326	3842.5
806.513	3609.03
806.701	3037.65
806.888	3162.58
807.075	3568.07
807.263	3885.51
807.45	3168.72
807.638	3387.85
807.825	3930.56
808.012	3678.66
808.2	3113.42
808.387	3498.44
808.574	3570.12
808.761	3879.36
808.949	3203.54
809.136	3181.01
809.323	3369.42
809.51	3422.67
809.698	3563.98
809.885	3451.34
810.072	3631.56
810.259	3617.22
810.446	3283.41
810.633	3264.97
810.82	3805.64
811.008	4037.06
811.195	3516.87
811.382	3455.44
811.569	3662.28
811.756	3328.46
811.943	3404.24
812.13	3203.54
812.317	3533.26
812.504	3496.39
812.691	3318.22
812.878	3426.76
813.064	3944.9
813.251	3772.87
813.438	3256.78
813.625	3414.48
813.812	3639.75
813.999	3625.42
814.186	3420.62
814.372	3420.62
814.559	3711.43
814.746	3867.08
814.933	3363.28
815.12	3580.36
815.306	3580.36
815.493	3326.41
815.68	3344.84
815.866	3391.95
816.053	4063.68
816.24	4114.88
816.426	3488.2
816.613	3336.65
816.799	3776.97
816.986	4000.19
817.173	3324.37
817.359	3434.96
817.546	3639.75
817.732	3344.84
817.919	3211.73
818.105	3383.76
818.292	3477.96
818.478	3883.46
818.665	3598.79
818.851	3447.24
819.037	4241.86
819.224	3666.38
819.41	3320.27
819.597	3305.93
819.783	4088.26
819.969	3822.02
820.156	3455.44
820.342	3389.9
820.528	4235.71
820.714	3533.26
820.901	3662.28
821.087	3451.34
821.273	4250.05
821.459	3535.31
821.646	3224.01
821.832	3318.22
822.018	3590.6
822.204	3744.2
822.39	3439.05
822.576	3260.88
822.762	3801.54
822.948	3774.92
823.134	3697.1
823.32	3551.69
823.507	3408.33
823.693	3862.98
823.879	3744.2
824.065	3447.24
824.25	3699.14
824.436	3492.3
824.622	3539.4
824.808	3297.74
824.994	3555.79
825.18	3598.79
825.366	3252.69
825.552	3314.13
825.738	3606.98
825.923	3992
826.109	3557.83
826.295	3275.21
826.481	3477.96
826.667	3715.53
826.852	3488.2
827.038	3320.27
827.224	3905.99
827.409	3957.19
827.595	3350.99
827.781	3740.1
827.966	3912.13
828.152	3899.84
828.338	3539.4
828.523	3156.43
828.709	3543.5
828.894	4055.49
829.08	3512.78
829.266	3404.24
829.451	3580.36
829.637	3828.17
829.822	3584.46
830.008	3400.14
830.193	3899.84
830.378	3965.38
830.564	3627.46
830.749	3176.91
830.935	3946.95
831.12	3838.41
831.305	3260.88
831.491	3502.54
831.676	3316.17
831.861	3811.78
832.047	3484.11
832.232	3172.82
832.417	4018.63
832.602	3711.43
832.788	3326.41
832.973	3176.91
833.158	3557.83
833.343	3770.82
833.528	3383.76
833.714	3645.9
833.899	3916.23
834.084	3989.96
834.269	3621.32
834.454	3289.55
834.639	3711.43
834.824	3582.41
835.009	3412.43
835.194	3584.46
835.379	3781.06
835.564	3973.57
835.749	3480.01
835.934	3281.36
836.119	3908.04
836.304	3731.91
836.489	3430.86
836.674	3592.65
836.859	3414.48
837.044	4024.77
837.228	3408.33
837.413	3299.79
837.598	3729.86
837.783	3953.09
837.968	3480.01
838.152	3379.66
838.337	3328.46
838.522	3938.76
838.707	3809.73
838.891	3693
839.076	3690.95
839.261	3801.54
839.445	3324.37
839.63	3400.14
839.815	4092.35
839.999	3598.79
840.184	3367.37
840.368	3428.81
840.553	3719.62
840.737	3819.97
840.922	3238.35
841.106	3262.93
841.291	3334.61
841.475	3772.87
841.66	3363.28
841.844	3367.37
842.029	4297.15
842.213	3289.55
842.397	3475.91
842.582	3162.58
842.766	3883.46
842.951	3760.58
843.135	3172.82
843.319	3461.58
843.504	3596.75
843.688	3996.1
843.872	3236.3
844.056	3207.63
844.241	3799.49
844.425	3527.11
844.609	3535.31
844.793	3293.65
844.977	3858.89
845.161	3557.83
845.346	3219.92
845.53	3312.08
845.714	3437
845.898	4008.39
846.082	3215.82
846.266	3447.24
846.45	3594.7
846.634	3649.99
846.818	3506.63
847.002	3543.5
847.186	3881.41
847.37	3338.7
847.554	3244.49
847.738	3383.76
847.922	3602.89
848.106	3715.53
848.29	3170.77
848.473	3363.28
848.657	3842.5
848.841	3443.15
849.025	3443.15
849.209	3045.84
849.392	3748.29
849.576	3621.32
849.76	2988.5
849.944	3305.93
850.127	3912.13
850.311	3398.09
850.495	3138
850.678	3113.42
850.862	3762.63
851.046	3887.56
851.229	3578.31
851.413	3199.44
851.596	3475.91
851.78	3578.31
851.964	3406.28
852.147	3295.69
852.331	4397.5
852.514	3856.84
852.698	3342.8
852.881	3115.47
853.065	3688.9
853.248	3527.11
853.431	3312.08
853.615	3371.47
853.798	4045.25
853.982	3670.47
854.165	3424.72
854.348	3244.49
854.532	3312.08
854.715	3357.13
854.898	3287.5
855.081	3301.84
855.265	3838.41
855.448	3899.84
855.631	3174.86
855.814	3219.92
855.997	3682.76
856.181	3527.11
856.364	3353.04
856.547	3142.1
856.73	3580.36
856.913	3484.11
857.096	3011.03
857.279	3185.1
857.462	3385.8
857.645	3639.75
857.828	3305.93
858.011	3338.7
858.194	3500.49
858.377	3711.43
858.56	3097.04
858.743	3301.84
858.926	3217.87
859.109	3727.82
859.292	3244.49
859.475	2916.82
859.658	3826.12
859.841	3670.47
860.023	3068.37
860.206	3097.04
860.389	3486.15
860.572	3832.26
860.755	3152.34
860.937	3193.3
861.12	3451.34
861.303	3613.13
861.486	3394
861.668	2970.07
861.851	3555.79
862.034	3600.84
862.216	3361.23
862.399	3033.55
862.581	3477.96
862.764	3551.69
862.947	3207.63
863.129	3203.54
863.312	3221.97
863.494	3922.37
863.677	3447.24
863.859	2912.72
864.042	3535.31
864.224	3756.49
864.406	3295.69
864.589	2826.71
864.771	3529.16
864.954	3154.38
865.136	3008.98
865.318	2914.77
865.501	3555.79
865.683	2994.64
865.865	3133.9
866.048	3264.97
866.23	3416.52
866.412	3465.68
866.594	2961.87
866.777	3242.45
866.959	3588.55
867.141	3070.42
867.323	3320.27
867.505	3314.13
867.687	3396.04
867.869	3418.57
868.052	3244.49
868.234	2937.3
868.416	3230.16
868.598	3590.6
868.78	3178.96
868.962	3090.9
869.144	3615.18
869.326	3615.18
869.508	3170.77
869.69	3097.04
869.872	3213.77
870.054	3760.58
870.236	2826.71
870.417	3004.88
870.599	3322.32
870.781	3908.04
870.963	3248.59
871.145	3023.31
871.327	3113.42
871.508	3563.98
871.69	3097.04
871.872	3199.44
872.054	3502.54
872.235	3373.52
872.417	3312.08
872.599	3011.03
872.78	3729.86
872.962	3414.48
873.144	2929.11
873.325	3074.51
873.507	3721.67
873.689	3426.76
873.87	3006.93
874.052	3275.21
874.233	3336.65
874.415	3584.46
874.596	3256.78
874.778	2990.55
874.959	3375.56
875.141	3625.42
875.322	3195.34
875.503	3051.99
875.685	3602.89
875.866	2908.63
876.048	3090.9
876.229	2888.15
876.41	3371.47
876.592	3490.25
876.773	3213.77
876.954	2998.74
877.136	3678.66
877.317	3267.02
877.498	2976.21
877.679	3396.04
877.86	3459.53
878.042	3394
878.223	3162.58
878.404	3602.89
878.585	3703.24
878.766	3924.42
878.947	3414.48
879.128	3353.04
879.309	3729.86
879.49	3826.12
879.672	3361.23
879.853	3283.41
880.034	3291.6
880.215	3514.83
880.396	3197.39
880.576	3307.98
880.757	3281.36
880.938	3736.01
881.119	3307.98
881.3	3191.25
881.481	3445.2
881.662	4383.17
881.843	3162.58
882.023	3166.67
882.204	3615.18
882.385	3664.33
882.566	3289.55
882.747	3277.26
882.927	3459.53
883.108	3713.48
883.289	3269.07
883.469	3477.96
883.65	3363.28
883.831	3629.51
884.011	3533.26
884.192	3383.76
884.373	3936.71
884.553	3834.31
884.734	3572.17
884.914	3637.7
885.095	4393.4
885.275	4141.5
885.456	3762.63
885.636	3383.76
885.817	3736.01
885.997	3721.67
886.178	3338.7
886.358	3379.66
886.538	3703.24
886.719	4803
886.899	3275.21
887.08	3531.21
887.26	4069.83
887.44	3553.74
887.621	3494.35
887.801	3645.9
887.981	4239.81
888.161	3887.56
888.342	3533.26
888.522	3443.15
888.702	4051.39
888.882	3924.42
889.062	3613.13
889.242	3367.37
889.423	4170.18
889.603	3891.65
889.783	3580.36
889.963	3588.55
890.143	4006.34
890.323	4067.78
890.503	3490.25
890.683	3445.2
890.863	3877.32
891.043	3858.89
891.223	3613.13
891.403	3752.39
891.583	3885.51
891.763	3893.7
891.943	3781.06
892.122	3590.6
892.302	3873.22
892.482	3977.67
892.662	3776.97
892.842	3652.04
893.022	3969.48
893.201	3776.97
893.381	3693
893.561	3643.85
893.741	4069.83
893.92	3971.52
894.1	3819.97
894.28	3690.95
894.459	3977.67
894.639	3961.28
894.819	3684.81
894.998	3729.86
895.178	3994.05
895.357	3949
895.537	3596.75
895.716	3498.44
895.896	3971.52
896.075	4168.13
896.255	3672.52
896.434	3424.72
896.614	4200.9
896.793	4278.72
896.973	3854.79
897.152	3817.93
897.331	4159.94
897.511	4268.48
897.69	3547.59
897.87	3789.25
898.049	4194.75
898.228	3989.96
898.407	3905.99
898.587	3934.66
898.766	3916.23
898.945	4137.41
899.124	3932.61
899.304	3832.26
899.483	4080.07
899.662	4368.83
899.841	3684.81
900.02	3621.32
900.199	4110.79
900.378	4000.19
900.557	3633.61
900.737	3469.77
900.916	4037.06
901.095	4047.3
901.274	3908.04
901.453	3518.92
901.632	3774.92
901.811	3670.47
901.989	3846.6
902.168	3570.12
902.347	4069.83
902.526	3744.2
902.705	3785.16
902.884	3713.48
903.063	4174.27
903.242	4301.25
903.42	3482.06
903.599	3742.15
903.778	4129.22
903.957	4291.01
904.135	3830.21
904.314	3672.52
904.493	4063.68
904.672	4055.49
904.85	3639.75
905.029	3678.66
905.207	4137.41
905.386	4635.07
905.565	3563.98
905.743	3649.99
905.922	3721.67
906.1	4194.75
906.279	3359.18
906.457	3463.63
906.636	3709.38
906.814	3824.07
906.993	3703.24
907.171	3623.37
907.35	3928.52
907.528	4239.81
907.707	3832.26
907.885	3490.25
908.063	4272.57
908.242	3619.27
908.42	3559.88
908.598	3441.1
908.777	4006.34
908.955	3666.38
909.133	3600.84
909.311	3582.41
909.49	3578.31
909.668	3865.03
909.846	3604.94
910.024	3453.39
910.202	3865.03
910.38	3942.85
910.559	3375.56
910.737	3260.88
910.915	3989.96
911.093	3883.46
911.271	3643.85
911.449	3817.93
911.627	3809.73
911.805	4350.4
911.983	3508.68
912.161	3416.52
912.339	3815.88
912.517	4063.68
912.695	3680.71
912.872	3510.73
913.05	3525.07
913.228	3781.06
913.406	3541.45
913.584	3383.76
913.762	3963.33
913.939	3535.31
914.117	3344.84
914.295	3260.88
914.473	3721.67
914.65	3723.72
914.828	3301.84
915.006	3269.07
915.184	3322.32
915.361	3619.27
915.539	3518.92
915.716	3654.09
915.894	3707.34
916.072	3752.39
916.249	3609.03
916.427	3441.1
916.604	3408.33
916.782	3705.29
916.959	3183.06
917.137	3281.36
917.314	3488.2
917.492	3592.65
917.669	3379.66
917.847	3295.69
918.024	3682.76
918.201	3252.69
918.379	3326.41
918.556	3248.59
918.733	3867.08
918.911	3422.67
919.088	3406.28
919.265	3328.46
919.442	3469.77
919.62	3252.69
919.797	3121.62
919.974	3121.62
920.151	3523.02
920.328	3500.49
920.506	3105.23
920.683	3396.04
920.86	3250.64
921.037	3330.51
921.214	3254.73
921.391	3197.39
921.568	3580.36
921.745	3252.69
921.922	3142.1
922.099	3011.03
922.276	3590.6
922.453	3445.2
922.63	3090.9
922.807	3467.72
922.984	3432.91
923.161	3156.43
923.338	3172.82
923.514	2941.4
923.691	3291.6
923.868	3385.8
924.045	3082.7
924.222	2941.4
924.399	3482.06
924.575	3451.34
924.752	3060.18
924.929	3066.32
925.105	3322.32
925.282	3019.22
925.459	3015.12
925.635	3033.55
925.812	3191.25
925.989	3023.31
926.165	3138
926.342	2734.55
926.518	2961.87
926.695	3068.37
926.871	2841.04
927.048	2785.75
927.224	3359.18
927.401	2963.92
927.577	2902.48
927.754	2789.85
927.93	3404.24
928.107	3166.67
928.283	2779.61
928.459	3002.83
928.636	3205.58
928.812	2937.3
928.988	2701.78
929.165	2613.72
929.341	2965.97
929.517	3092.94
929.693	3068.37
929.87	2404.83
930.046	3138
930.222	2787.8
930.398	2595.29
930.574	2752.98
930.751	3000.79
930.927	2730.45
931.103	2769.37
931.279	2650.58
931.455	2699.73
931.631	2871.76
931.807	2384.35
931.983	2490.84
932.159	2564.57
932.335	2761.17
932.511	2525.66
932.687	2451.93
932.863	2826.71
933.039	2679.26
933.215	2347.48
933.391	2310.62
933.566	2607.58
933.742	2720.21
933.918	2410.97
934.094	2277.85
934.27	2709.97
934.445	2574.81
934.621	2386.4
934.797	2220.51
934.973	2865.62
935.148	2714.07
935.324	2212.32
935.5	2101.73
935.675	2542.04
935.851	2451.93
936.027	2130.4
936.202	2204.13
936.378	2431.45
936.553	2318.81
936.729	2531.8
936.904	2122.21
937.08	1978.85
937.255	2157.02
937.431	2007.52
937.606	1892.84
937.782	2071.01
937.957	2107.87
938.133	1929.7
938.308	1831.4
938.483	1968.61
938.659	1761.77
938.834	1800.68
939.009	1739.24
939.185	1939.94
939.36	1702.37
939.535	1307.12
939.71	1769.96
939.886	2144.74
940.061	2064.86
940.236	1669.61
940.411	1630.7
940.586	1913.31
940.761	1872.36
940.937	1581.54
941.112	1337.84
941.287	1700.33
941.462	1651.17
941.637	1382.89
941.812	1382.89
941.987	1731.05
942.162	1507.82
942.337	1432.04
942.512	1442.28
942.687	1733.09
942.862	1759.72
943.037	1341.93
943.212	1057.26
943.386	1581.54
943.561	1585.64
943.736	1456.62
943.911	1706.47
944.086	1694.18
944.26	1581.54
944.435	1298.92
944.61	1397.23
944.785	1853.92
944.959	1976.8
945.134	1382.89
945.309	1221.1
945.483	1309.16
945.658	1665.51
945.833	1139.18
946.007	1153.52
946.182	1827.3
946.357	1223.15
946.531	1092.08
946.706	1110.51
946.88	1108.46
947.055	1534.44
947.229	1159.66
947.404	1133.04
947.578	1812.96
947.752	1520.1
947.927	1038.83
948.101	1116.65
948.276	1489.39
948.45	1550.82
948.624	1466.86
948.799	1245.68
948.973	1425.9
949.147	1208.81
949.321	1313.26
949.496	1221.1
949.67	1835.49
949.844	1434.09
950.018	1221.1
950.193	1270.25
950.367	1921.51
950.541	1356.27
950.715	1434.09
950.889	1425.9
951.063	1356.27
951.237	1698.28
951.411	1178.09
951.585	1120.75
951.759	1640.93
951.933	1548.78
952.107	1171.95
952.281	1442.28
952.455	1933.79
952.629	1704.42
952.803	1268.2
952.977	1221.1
953.151	1786.34
953.325	1602.02
953.499	1429.99
953.672	1130.99
953.846	1305.07
954.02	1343.98
954.194	1077.74
954.368	1253.87
954.541	1665.51
954.715	1384.94
954.889	1348.08
955.062	1141.23
955.236	1429.99
955.41	1374.7
955.583	1323.5
955.757	1130.99
955.93	1352.17
956.104	1171.95
956.278	1253.87
956.451	1249.77
956.625	1556.97
956.798	1872.36
956.972	1503.72
957.145	1155.57
957.319	1575.4
957.492	1448.43
957.665	1331.69
957.839	1169.9
958.012	1548.78
958.185	1370.6
958.359	1227.25
958.532	1466.86
958.705	1673.7
958.879	1575.4
959.052	1321.45
959.225	1120.75
959.398	1386.99
959.572	1522.15
959.745	1157.61
959.918	1221.1
960.091	1294.83
960.264	1602.02
960.438	1094.13
960.611	1090.03
960.784	1618.41
960.957	1352.17
961.13	1622.5
961.303	1139.18
961.476	1309.16
961.649	1683.94
961.822	1096.18
961.995	1118.7
962.168	1569.26
962.341	1425.9
962.514	1190.38
962.686	1188.33
962.859	1499.63
963.032	1520.1
963.205	1061.36
963.378	1044.98
963.551	1520.1
963.723	1466.86
963.896	1368.56
964.069	1360.36
964.242	1298.92
964.414	1585.64
964.587	1174
964.76	1446.38
964.932	1372.65
965.105	1401.32
965.278	1090.03
965.45	1112.56
965.623	1464.81
965.795	1493.48
965.968	1075.7
966.14	1198.57
966.313	1364.46
966.485	1401.32
966.658	1362.41
966.83	1143.28
967.003	1591.78
967.175	1577.45
967.348	1149.42
967.52	1274.35
967.692	1733.09
967.865	1483.24
968.037	1147.37
968.209	1468.91
968.382	1370.6
968.554	1657.32
968.726	1196.53
968.898	1100.27
969.071	1591.78
969.243	1552.87
969.415	1149.42
969.587	1288.68
969.759	1909.22
969.932	1622.5
970.104	1241.58
970.276	877.04
970.448	1245.68
970.62	1245.68
970.792	1235.44
970.964	1217.01
971.136	1804.77
971.308	1499.63
971.48	1122.8
971.652	1147.37
971.824	1642.98
971.996	1346.03
972.168	1108.46
972.339	1249.77
972.511	1589.74
972.683	1303.02
972.855	1364.46
973.027	1198.57
973.199	1479.15
973.37	1524.2
973.542	1196.53
973.714	1288.68
973.886	1303.02
974.057	1538.54
974.229	1100.27
974.401	1012.21
974.572	1122.8
974.744	961.01
974.915	1057.26
975.087	1057.26
975.259	1563.11
975.43	1147.37
975.602	1081.84
975.773	1034.74
975.945	1120.75
976.116	1513.96
976.288	1049.07
976.459	1223.15
976.63	1219.05
976.802	1448.43
976.973	1012.21
977.145	1309.16
977.316	1716.71
977.487	1602.02
977.659	1370.6
977.83	1163.76
978.001	1716.71
978.172	1364.46
978.344	1114.61
978.515	1114.61
978.686	1253.87
978.857	1669.61
979.028	1075.7
979.2	1014.26
979.371	1536.49
979.542	1294.83
979.713	1235.44
979.884	645.62
980.055	1137.13
980.226	1104.37
980.397	1065.46
980.568	946.67
980.739	1528.3
980.91	1186.29
981.081	1237.49
981.252	922.1
981.423	1479.15
981.594	1534.44
981.765	901.62
981.936	1096.18
982.106	1270.25
982.277	1595.88
982.448	1010.16
982.619	1208.81
982.79	1190.38
982.96	1544.68
983.131	1139.18
983.302	834.04
983.472	1090.03
983.643	1247.72
983.814	1198.57
983.984	1008.11
984.155	1130.99
984.326	1511.91
984.496	1071.6
984.667	856.56
984.837	1081.84
985.008	1536.49
985.178	1204.72
985.349	985.58
985.519	1141.23
985.69	1188.33
985.86	1059.31
986.031	961.01
986.201	1247.72
986.371	1360.36
986.542	793.08
986.712	684.53
986.882	1315.31
987.053	1243.63
987.223	864.75
987.393	1085.94
987.563	1016.3
987.734	1343.98
987.904	1130.99
988.074	913.91
988.244	1239.53
988.414	952.82
988.585	954.87
988.755	1008.11
988.925	1128.94
989.095	1634.79
989.265	868.85
989.435	952.82
989.605	1274.35
989.775	1214.96
989.945	1303.02
990.115	838.13
990.285	1079.79
990.455	1221.1
990.625	938.48
990.795	918
990.965	1458.67
991.134	930.29
991.304	831.99
991.474	860.66
991.644	1196.53
991.814	1505.77
991.984	827.89
992.153	827.89
992.323	1053.17
992.493	1069.55
992.662	584.18
992.832	1081.84
993.002	1081.84
993.171	1247.72
993.341	649.72
993.511	1016.3
993.68	918
993.85	1217.01
994.019	567.8
994.189	766.45
994.358	1176.05
994.528	928.24
994.697	541.18
994.867	700.92
995.036	1260.01
995.206	825.84
995.375	674.29
995.544	905.71
995.714	991.73
995.883	995.82
996.052	1042.93
996.222	635.38
996.391	1524.2
996.56	1006.06
996.73	643.57
996.899	627.19
997.068	1313.26
997.237	1018.35
997.406	752.12
997.576	561.66
997.745	958.96
997.914	999.92
998.083	528.89
998.252	676.34
998.421	999.92
998.59	795.12
998.759	653.81
998.928	508.41
999.097	1327.6
999.266	1010.16
999.435	807.41
999.604	647.67
999.773	1432.04
999.942	913.91
1000.111	584.18
1000.28	487.93
1000.448	674.29
1000.617	836.08
1000.786	754.16
1000.955	596.47
1001.124	1067.5
1001.292	1587.69
1001.461	516.6
1001.63	690.68
1001.798	1303.02
1001.967	1264.11
1002.136	496.12
1002.304	557.56
1002.473	975.35
1002.642	940.53
1002.81	674.29
1002.979	494.07
1003.147	1069.55
1003.316	1436.14
1003.484	598.52
1003.653	688.63
1003.821	1298.92
1003.99	905.71
1004.158	733.68
1004.327	668.15
1004.495	971.25
1004.663	700.92
1004.832	680.44
1005	494.07
1005.168	1147.37
1005.337	924.15
1005.505	492.02
1005.673	686.58
1005.842	1020.4
1006.01	961.01
1006.178	485.88
1006.346	582.14
1006.514	934.39
1006.683	1122.8
1006.851	559.61
1007.019	502.26
1007.187	678.39
1007.355	418.3
1007.523	350.71
1007.691	403.96
1007.859	578.04
1008.027	1157.61
1008.195	561.66
1008.363	463.35
1008.531	1012.21
1008.699	727.54
1008.867	426.49
1009.035	459.26
1009.203	1198.57
1009.37	893.43
1009.538	516.6
1009.706	965.11
1009.874	844.28
1010.042	834.04
1010.209	432.63
1010.377	471.54
1010.545	1104.37
1010.713	870.9
1010.88	481.78
1011.048	477.69
1011.216	647.67
1011.383	1174
1011.551	393.72
1011.718	377.34
1011.886	1092.08
1012.054	813.56
1012.221	453.11
1012.389	395.77
1012.556	774.64
1012.724	1231.34
1012.891	532.98
1013.058	258.56
1013.226	936.43
1013.393	1057.26
1013.561	295.42
1013.728	233.98
1013.895	944.63
1014.063	834.04
1014.23	381.43
1014.397	268.8
1014.565	942.58
1014.732	719.35
1014.899	369.15
1015.066	403.96
1015.233	754.16
1015.401	881.14
1015.568	459.26
1015.735	535.03
1015.902	690.68
1016.069	741.88
1016.236	418.3
1016.403	328.19
1016.57	406.01
1016.737	1063.41
1016.904	575.99
1017.071	223.74
1017.238	573.94
1017.405	852.47
1017.572	395.77
1017.739	580.09
1017.906	817.65
1018.073	1036.78
1018.24	289.28
1018.407	524.79
1018.573	1008.11
1018.74	635.38
1018.907	455.16
1019.074	229.88
1019.241	958.96
1019.407	727.54
1019.574	356.86
1019.741	238.08
1019.907	811.51
1020.074	864.75
1020.241	-1.54
1020.407	289.28
1020.574	883.19
1020.74	862.71
1020.907	401.91
1021.073	320
1021.24	1110.51
1021.406	1051.12
1021.573	221.69
1021.739	352.76
1021.906	885.23
1022.072	569.85
1022.239	324.09
1022.405	365.05
1022.571	682.49
1022.738	471.54
1022.904	295.42
1023.07	332.28
1023.237	719.35
1023.403	889.33
1023.569	346.62
1023.735	346.62
1023.902	729.59
1024.068	756.21
1024.234	225.79
1024.4	266.75
1024.566	649.72
1024.732	829.94
1024.898	285.18
1025.065	156.16
1025.231	807.41
1025.397	602.61
1025.563	360.95
1025.729	188.93
1025.895	172.54
1026.061	344.57
1026.227	25.09
1026.392	219.64
1026.558	803.32
1026.724	664.05
1026.89	213.5
1027.056	262.65
1027.222	653.81
1027.388	614.9
1027.553	170.49
1027.719	190.97
1027.885	1040.88
1028.051	762.36
1028.216	25.09
1028.382	205.31
1028.548	745.97
1028.713	543.22
1028.879	92.67
1029.045	385.53
1029.21	961.01
1029.376	858.61
1029.541	244.22
1029.707	250.36
1029.873	733.68
1030.038	791.03
1030.204	197.12
1030.369	199.16
1030.534	770.55
1030.7	498.17
1030.865	291.32
1031.031	121.34
1031.196	698.87
1031.361	610.81
1031.527	86.53
1031.692	129.53
1031.857	252.41
1032.023	840.18
1032.188	135.68
1032.353	221.69
1032.518	913.91
1032.684	606.71
1032.849	-7.68
1033.014	180.73
1033.179	672.25
1033.344	705.01
1033.509	203.26
1033.674	211.45
1033.839	700.92
1034.004	813.56
1034.17	180.73
1034.335	86.53
1034.5	469.5
1034.664	375.29
1034.829	168.45
1034.994	150.01
1035.159	580.09
1035.324	649.72
1035.489	150.01
1035.654	92.67
1035.819	809.46
1035.984	606.71
1036.148	121.34
1036.313	201.21
1036.478	795.12
1036.643	664.05
1036.807	127.49
1036.972	115.2
1037.137	879.09
1037.301	528.89
1037.466	-112.13
1037.631	252.41
1037.795	786.93
1037.96	598.52
1038.124	352.76
1038.289	61.95
1038.454	643.57
1038.618	612.85
1038.783	172.54
1038.947	193.02
1039.111	541.18
1039.276	436.73
1039.44	129.53
1039.605	647.67
1039.769	373.24
1039.933	516.6
1040.098	240.12
1040.262	289.28
1040.426	723.44
1040.591	653.81
1040.755	51.71
1040.919	145.92
1041.083	569.85
1041.248	309.76
1041.412	2.56
1041.576	90.62
1041.74	508.41
1041.904	627.19
1042.068	74.24
1042.232	147.97
1042.397	729.59
1042.561	596.47
1042.725	-89.6
1042.889	197.12
1043.053	680.44
1043.217	561.66
1043.381	246.27
1043.544	23.04
1043.708	692.73
1043.872	213.5
1044.036	-179.71
1044.2	-134.65
1044.364	754.16
1044.528	836.08
1044.691	1577.45
1044.855	-89.6
1045.019	688.63
1045.183	565.75
1045.346	156.16
1045.51	-36.35
1045.674	580.09
1045.837	535.03
1046.001	100.86
1046.165	27.14
1046.328	1065.46
1046.492	623.09
1046.655	225.79
1046.819	100.86
1046.983	395.77
1047.146	592.37
1047.31	180.73
1047.473	-110.08
1047.636	459.26
1047.8	139.77
1047.963	129.53
1048.127	145.92
1048.29	205.31
