Data from Ink_Intensity_USB4F045381__161__00161.txt Node

Date: Mon Jul 17 11:33:17 EDT 2023
User: mmckonesweet
Spectrometer: USB4F04538
Trigger mode: 4
Integration Time (sec): 9.000000E-1
Scans to average: 1
Electric dark correction enabled: true
Nonlinearity correction enabled: false
Boxcar width: 0
XAxis mode: Wavelengths
Number of Pixels in Spectrum: 3648
>>>>>Begin Spectral Data<<<<<
345.52	-983.54
345.736	-983.54
345.952	-983.54
346.168	-1108.46
346.384	-1049.07
346.6	-168.45
346.816	-281.08
347.032	-258.56
347.248	337.4
347.464	-252.41
347.68	-131.58
347.896	58.88
348.112	390.65
348.328	-90.62
348.544	-29.18
348.76	79.36
348.975	345.59
349.191	-313.85
349.407	-190.97
349.623	-74.24
349.839	-59.9
350.055	-201.21
350.27	-55.81
350.486	89.6
350.702	323.07
350.918	228.86
351.133	-248.32
351.349	114.17
351.565	341.5
351.781	-233.98
351.996	62.98
352.212	296.44
352.428	-47.62
352.644	-248.32
352.859	-297.47
353.075	208.38
353.291	97.79
353.506	-160.25
353.722	-188.93
353.938	-59.9
354.153	386.55
354.369	95.74
354.584	-242.17
354.8	212.48
355.016	-272.89
355.231	-240.12
355.447	-43.52
355.662	97.79
355.878	828.92
356.093	-389.63
356.309	30.21
356.524	-279.04
356.74	175.61
356.955	-233.98
357.171	-100.86
357.386	153.09
357.602	-199.16
357.817	-115.2
358.033	-213.5
358.248	282.11
358.464	200.19
358.679	-211.45
358.895	-297.47
359.11	-10.75
359.325	290.3
359.541	46.59
359.756	-0.51
359.972	-315.9
360.187	247.29
360.402	-137.73
360.618	-246.27
360.833	970.23
361.048	73.21
361.264	-258.56
361.479	-125.44
361.694	-2.56
361.909	198.14
362.125	-276.99
362.34	-104.96
362.555	259.58
362.77	32.26
362.986	-363
363.201	-145.92
363.416	169.47
363.631	-14.85
363.847	-182.78
364.062	-168.45
364.277	259.58
364.492	103.93
364.707	-150.01
364.922	-408.06
365.138	196.09
365.353	349.69
365.568	-272.89
365.783	-205.31
365.998	22.02
366.213	521.72
366.428	-219.64
366.643	46.59
366.858	181.76
367.073	165.37
367.288	-182.78
367.503	-240.12
367.718	112.13
367.933	288.25
368.148	-311.8
368.363	-109.05
368.578	17.92
368.793	407.03
369.008	-223.74
369.223	-281.08
369.438	214.52
369.653	337.4
369.868	-303.61
370.083	-322.04
370.298	105.98
370.513	378.36
370.728	-18.94
370.943	-170.49
371.157	-201.21
371.372	398.84
371.587	-315.9
371.802	-268.8
372.017	28.16
372.232	400.89
372.446	-96.77
372.661	-188.93
372.876	212.48
373.091	140.8
373.306	-139.77
373.52	-289.28
373.735	-178.69
373.95	402.94
374.165	-133.63
374.379	-174.59
374.594	-154.11
374.809	108.03
375.023	-0.51
375.238	-285.18
375.453	208.38
375.667	-309.76
375.882	-178.69
376.097	-244.22
376.311	-25.09
376.526	-102.91
376.741	-223.74
376.955	157.18
377.17	548.34
377.384	486.9
377.599	-109.05
377.813	-328.19
378.028	568.82
378.242	91.65
378.457	-158.21
378.672	-408.06
378.886	50.69
379.101	-12.8
379.315	-381.43
379.53	-195.07
379.744	237.05
379.958	126.46
380.173	-197.12
380.387	-186.88
380.602	116.22
380.816	-141.82
381.031	-199.16
381.245	-129.53
381.459	222.72
381.674	2657.75
381.888	-289.28
382.103	62.98
382.317	-190.97
382.531	427.51
382.746	-127.49
382.96	-233.98
383.174	-150.01
383.388	411.13
383.603	34.3
383.817	-346.62
384.031	56.83
384.246	368.12
384.46	-70.14
384.674	364.03
384.888	58.88
385.103	-64
385.317	-248.32
385.531	-39.42
385.745	357.88
385.959	302.59
386.174	-285.18
386.388	-174.59
386.602	-10.75
386.816	-96.77
387.03	-117.25
387.244	-59.9
387.458	-20.99
387.672	437.75
387.887	-309.76
388.101	-399.87
388.315	288.25
388.529	189.95
388.743	-236.03
388.957	-385.53
389.171	212.48
389.385	-145.92
389.599	-178.69
389.813	-66.05
390.027	155.13
390.241	615.93
390.455	-121.34
390.669	-137.73
390.883	-121.34
391.097	384.51
391.311	-61.95
391.525	-207.36
391.738	116.22
391.952	97.79
392.166	-47.62
392.38	-330.23
392.594	261.63
392.808	257.53
393.022	-117.25
393.236	-246.27
393.449	224.76
393.663	251.39
393.877	-268.8
394.091	-182.78
394.305	-100.86
394.518	-158.21
394.732	-272.89
394.946	-137.73
395.16	386.55
395.373	38.4
395.587	-305.66
395.801	-127.49
396.015	304.64
396.228	140.8
396.442	-322.04
396.656	-369.15
396.869	249.34
397.083	402.94
397.297	-37.38
397.51	-219.64
397.724	368.12
397.938	71.17
398.151	-360.95
398.365	-369.15
398.578	159.23
398.792	345.59
399.005	-109.05
399.219	-213.5
399.433	52.74
399.646	187.9
399.86	-10.75
400.073	-2.56
400.287	198.14
400.5	-74.24
400.714	-61.95
400.927	-127.49
401.141	218.62
401.354	1105.39
401.567	271.87
401.781	-297.47
401.994	280.06
402.208	579.06
402.421	-137.73
402.635	-178.69
402.848	54.78
403.061	257.53
403.275	-6.66
403.488	-258.56
403.701	431.61
403.915	155.13
404.128	13.82
404.341	-213.5
404.555	185.85
404.768	7.68
404.981	34.3
405.195	-145.92
405.408	470.52
405.621	247.29
405.834	32.26
406.048	-244.22
406.261	394.75
406.474	435.71
406.687	-258.56
406.9	-47.62
407.114	62.98
407.327	177.66
407.54	-320
407.753	-387.58
407.966	-66.05
408.179	216.57
408.392	-188.93
408.605	-289.28
408.819	169.47
409.032	189.95
409.245	-186.88
409.458	-23.04
409.671	165.37
409.884	228.86
410.097	-356.86
410.31	-88.57
410.523	138.75
410.736	56.83
410.949	-125.44
411.162	-92.67
411.375	353.79
411.588	267.77
411.801	13.82
412.014	-264.7
412.227	15.87
412.44	-14.85
412.653	-248.32
412.865	-6.66
413.078	175.61
413.291	151.04
413.504	-133.63
413.717	-274.94
413.93	224.76
414.143	-154.11
414.356	-190.97
414.568	-379.39
414.781	335.35
414.994	93.69
415.207	-215.55
415.42	-150.01
415.632	331.26
415.845	458.23
416.058	-283.13
416.271	-279.04
416.483	83.45
416.696	431.61
416.909	-199.16
417.121	-219.64
417.334	169.47
417.547	538.1
417.759	-217.6
417.972	-215.55
418.185	-14.85
418.397	169.47
418.61	-238.08
418.823	-256.51
419.035	372.22
419.248	-12.8
419.46	-143.87
419.673	-49.66
419.885	157.18
420.098	13.82
420.311	-166.4
420.523	-393.72
420.736	153.09
420.948	108.03
421.161	-154.11
421.373	-324.09
421.586	30.21
421.798	-121.34
422.01	-297.47
422.223	-35.33
422.435	-150.01
422.648	192
422.86	-221.69
423.073	-225.79
423.285	259.58
423.497	-272.89
423.71	-252.41
423.922	-365.05
424.134	108.03
424.347	284.16
424.559	1.54
424.771	-4.61
424.984	-66.05
425.196	116.22
425.408	-391.67
425.621	-328.19
425.833	257.53
426.045	398.84
426.257	-285.18
426.47	-152.06
426.682	120.32
426.894	142.85
427.106	-141.82
427.318	-98.81
427.531	-174.59
427.743	146.94
427.955	-213.5
428.167	214.52
428.379	116.22
428.591	-41.47
428.804	-117.25
429.016	-195.07
429.228	-47.62
429.44	105.98
429.652	-51.71
429.864	-342.52
430.076	-47.62
430.288	-14.85
430.5	-207.36
430.712	-197.12
430.924	255.48
431.136	108.03
431.348	-391.67
431.56	-258.56
431.772	-27.14
431.984	-129.53
432.196	-254.46
432.408	-125.44
432.62	-68.09
432.832	15.87
433.044	91.65
433.256	-164.35
433.468	163.33
433.679	-313.85
433.891	-303.61
434.103	-8.7
434.315	353.79
434.527	159.23
434.739	-117.25
434.95	-219.64
435.162	114.17
435.374	-72.19
435.586	-223.74
435.798	-217.6
436.009	-231.93
436.221	-68.09
436.433	-264.7
436.645	-145.92
436.856	-107.01
437.068	265.72
437.28	-236.03
437.491	30.21
437.703	87.55
437.915	83.45
438.126	-199.16
438.338	110.08
438.55	-14.85
438.761	196.09
438.973	-119.29
439.184	-219.64
439.396	-43.52
439.608	224.76
439.819	-272.89
440.031	-150.01
440.242	269.82
440.454	230.91
440.665	-256.51
440.877	-125.44
441.088	128.51
441.3	-53.76
441.511	-352.76
441.723	-248.32
441.934	71.17
442.146	87.55
442.357	-78.33
442.569	69.12
442.78	11.78
442.991	441.85
443.203	103.93
443.414	-297.47
443.626	310.78
443.837	-168.45
444.048	-301.56
444.26	-330.23
444.471	81.41
444.682	241.15
444.894	-408.06
445.105	-393.72
445.316	232.96
445.528	85.5
445.739	-123.39
445.95	-141.82
446.161	73.21
446.373	249.34
446.584	-209.4
446.795	-262.65
447.006	161.28
447.217	435.71
447.429	-297.47
447.64	-303.61
447.851	318.97
448.062	38.4
448.273	-350.71
448.484	-295.42
448.695	71.17
448.907	-41.47
449.118	-180.73
449.329	-33.28
449.54	-147.97
449.751	-227.84
449.962	-238.08
450.173	-260.6
450.384	271.87
450.595	306.68
450.806	-233.98
451.017	-270.84
451.228	306.68
451.439	247.29
451.65	-242.17
451.861	-422.39
452.072	-188.93
452.283	71.17
452.494	-64
452.705	-279.04
452.915	353.79
453.126	105.98
453.337	-88.57
453.548	-156.16
453.759	308.73
453.97	480.76
454.181	-47.62
454.391	-150.01
454.602	28.16
454.813	114.17
455.024	-139.77
455.235	-276.99
455.445	83.45
455.656	91.65
455.867	-76.29
456.078	-174.59
456.288	-10.75
456.499	79.36
456.71	-281.08
456.921	54.78
457.131	130.56
457.342	89.6
457.553	-168.45
457.763	-254.46
457.974	194.05
458.184	212.48
458.395	-268.8
458.606	-270.84
458.816	261.63
459.027	431.61
459.237	-37.38
459.448	-401.91
459.659	316.92
459.869	603.64
460.08	-381.43
460.29	-139.77
460.501	447.99
460.711	-160.25
460.922	-379.39
461.132	-287.23
461.343	663.03
461.553	-305.66
461.764	-315.9
461.974	-182.78
462.184	206.33
462.395	144.89
462.605	-174.59
462.816	-379.39
463.026	30.21
463.236	353.79
463.447	-317.95
463.657	-150.01
463.867	171.52
464.078	-109.05
464.288	-100.86
464.498	-307.71
464.709	36.35
464.919	-33.28
465.129	-137.73
465.339	-358.91
465.55	128.51
465.76	243.2
465.97	-283.13
466.18	-180.73
466.391	265.72
466.601	87.55
466.811	-227.84
467.021	-236.03
467.231	122.37
467.441	337.4
467.651	-174.59
467.862	-489.98
468.072	73.21
468.282	321.02
468.492	-248.32
468.702	-150.01
468.912	17.92
469.122	587.26
469.332	-10.75
469.542	-262.65
469.752	148.99
469.962	50.69
470.172	-324.09
470.382	-320
470.592	126.46
470.802	278.01
471.012	-129.53
471.222	-309.76
471.432	253.44
471.642	153.09
471.852	-59.9
472.062	-350.71
472.272	-51.71
472.482	-246.27
472.691	-293.37
472.901	-344.57
473.111	105.98
473.321	476.66
473.531	-379.39
473.741	-133.63
473.95	132.61
474.16	116.22
474.37	-117.25
474.58	-309.76
474.79	529.91
474.999	210.43
475.209	-324.09
475.419	-223.74
475.628	-41.47
475.838	243.2
476.048	-201.21
476.258	-377.34
476.467	265.72
476.677	-162.3
476.886	-43.52
477.096	-139.77
477.306	-133.63
477.515	241.15
477.725	-78.33
477.935	-184.83
478.144	255.48
478.354	-176.64
478.563	-215.55
478.773	-195.07
478.982	202.24
479.192	261.63
479.401	-184.83
479.611	-371.19
479.82	-193.02
480.03	50.69
480.239	-330.23
480.449	-416.25
480.658	378.36
480.868	-96.77
481.077	-162.3
481.287	-221.69
481.496	171.52
481.705	482.81
481.915	-8.7
482.124	95.74
482.333	62.98
482.543	335.35
482.752	-150.01
482.961	-295.42
483.171	202.24
483.38	-64
483.589	-260.6
483.799	-293.37
484.008	32.26
484.217	177.66
484.426	-213.5
484.636	-346.62
484.845	95.74
485.054	-252.41
485.263	32.26
485.472	-346.62
485.682	439.8
485.891	28.16
486.1	-332.28
486.309	-289.28
486.518	144.89
486.727	364.03
486.936	-236.03
487.146	-102.91
487.355	325.12
487.564	-203.26
487.773	-240.12
487.982	-225.79
488.191	-137.73
488.4	-39.42
488.609	-254.46
488.818	-354.81
489.027	554.49
489.236	318.97
489.445	-227.84
489.654	-348.67
489.863	241.15
490.072	34.3
490.281	167.42
490.49	-260.6
490.698	376.31
490.907	300.54
491.116	-285.18
491.325	-467.45
491.534	325.12
491.743	58.88
491.952	-98.81
492.16	-207.36
492.369	128.51
492.578	278.01
492.787	-203.26
492.996	-334.33
493.204	-154.11
493.413	443.9
493.622	-498.17
493.831	-430.59
494.039	443.9
494.248	-178.69
494.457	-285.18
494.665	-360.95
494.874	226.81
495.083	491
495.291	-205.31
495.5	-303.61
495.709	189.95
495.917	83.45
496.126	-100.86
496.335	-352.76
496.543	-172.54
496.752	112.13
496.96	-18.94
497.169	-369.15
497.377	-35.33
497.586	259.58
497.794	-78.33
498.003	-403.96
498.211	17.92
498.42	423.42
498.628	-174.59
498.837	-246.27
499.045	97.79
499.254	71.17
499.462	-285.18
499.671	-332.28
499.879	462.33
500.087	243.2
500.296	-299.52
500.504	-190.97
500.713	1.54
500.921	499.19
501.129	-358.91
501.338	-313.85
501.546	157.18
501.754	-4.61
501.962	-242.17
502.171	-315.9
502.379	79.36
502.587	445.95
502.795	-227.84
503.004	-295.42
503.212	22.02
503.42	222.72
503.628	-305.66
503.837	-137.73
504.045	144.89
504.253	417.27
504.461	-279.04
504.669	-504.31
504.877	140.8
505.085	472.57
505.294	-334.33
505.502	-111.1
505.71	157.18
505.918	155.13
506.126	-328.19
506.334	-401.91
506.542	-74.24
506.75	99.84
506.958	-207.36
507.166	-160.25
507.374	-86.53
507.582	431.61
507.79	-166.4
507.998	-418.3
508.206	120.32
508.414	120.32
508.622	-272.89
508.83	-264.7
509.037	400.89
509.245	-31.23
509.453	-293.37
509.661	-322.04
509.869	148.99
510.077	-49.66
510.285	-82.43
510.492	-489.98
510.7	617.97
510.908	-123.39
511.116	-219.64
511.324	-283.13
511.531	-96.77
511.739	13.82
511.947	-45.57
512.155	32.26
512.362	22.02
512.57	-260.6
512.778	-322.04
512.985	-471.54
513.193	261.63
513.401	388.6
513.608	-258.56
513.816	-289.28
514.024	173.57
514.231	345.59
514.439	-326.14
514.646	-240.12
514.854	136.7
515.061	286.2
515.269	-264.7
515.477	-272.89
515.684	-217.6
515.892	286.2
516.099	-348.67
516.307	-379.39
516.514	163.33
516.722	388.6
516.929	-264.7
517.136	-260.6
517.344	394.75
517.551	116.22
517.759	-262.65
517.966	-207.36
518.173	5.63
518.381	40.45
518.588	-100.86
518.796	-287.23
519.003	239.1
519.21	5.63
519.418	-338.43
519.625	-41.47
519.832	26.11
520.039	146.94
520.247	-473.59
520.454	-238.08
520.661	235
520.868	155.13
521.076	-231.93
521.283	-213.5
521.49	591.35
521.697	138.75
521.904	-268.8
522.112	-244.22
522.319	282.11
522.526	202.24
522.733	-281.08
522.94	-254.46
523.147	60.93
523.354	298.49
523.561	-379.39
523.768	-178.69
523.975	282.11
524.183	69.12
524.39	-197.12
524.597	-414.2
524.804	22.02
525.011	-199.16
525.218	-238.08
525.425	-342.52
525.632	402.94
525.838	-127.49
526.045	-240.12
526.252	-313.85
526.459	1129.97
526.666	902.64
526.873	-262.65
527.08	-291.32
527.287	488.95
527.494	298.49
527.701	-354.81
527.907	-375.29
528.114	177.66
528.321	-39.42
528.528	-258.56
528.735	-311.8
528.941	-64
529.148	-107.01
529.355	-94.72
529.562	-334.33
529.768	435.71
529.975	-25.09
530.182	-178.69
530.388	-307.71
530.595	206.33
530.802	-182.78
531.008	-186.88
531.215	-223.74
531.422	380.41
531.628	826.87
531.835	-125.44
532.042	-205.31
532.248	-23.04
532.455	75.26
532.661	-240.12
532.868	-305.66
533.074	54.78
533.281	275.96
533.487	-205.31
533.694	-360.95
533.9	-154.11
534.107	263.68
534.313	-227.84
534.52	-272.89
534.726	282.11
534.933	534.01
535.139	-403.96
535.345	-504.31
535.552	187.9
535.758	5.63
535.965	-287.23
536.171	-268.8
536.377	171.52
536.584	323.07
536.79	-244.22
536.996	-180.73
537.203	-12.8
537.409	165.37
537.615	-289.28
537.821	-121.34
538.028	249.34
538.234	155.13
538.44	-221.69
538.646	-197.12
538.853	198.14
539.059	-102.91
539.265	103.93
539.471	-526.84
539.677	263.68
539.883	-88.57
540.09	-182.78
540.296	103.93
540.502	54.78
540.708	-131.58
540.914	-51.71
541.12	-197.12
541.326	159.23
541.532	34.3
541.738	-182.78
541.944	-207.36
542.15	183.81
542.356	-41.47
542.562	-270.84
542.768	-211.45
542.974	617.97
543.18	550.39
543.386	-305.66
543.592	-461.3
543.798	415.23
544.004	292.35
544.21	-270.84
544.415	-139.77
544.621	77.31
544.827	302.59
545.033	-260.6
545.239	-49.66
545.445	-213.5
545.651	171.52
545.856	-270.84
546.062	-227.84
546.268	-55.81
546.474	9.73
546.679	-225.79
546.885	-129.53
547.091	-14.85
547.297	464.38
547.502	-137.73
547.708	-354.81
547.914	-64
548.119	179.71
548.325	-365.05
548.531	-342.52
548.736	423.42
548.942	-158.21
549.147	-289.28
549.353	-55.81
549.559	343.55
549.764	187.9
549.97	-272.89
550.175	-238.08
550.381	243.2
550.586	-72.19
550.792	-180.73
550.997	-160.25
551.203	138.75
551.408	249.34
551.614	-330.23
551.819	-285.18
552.025	390.65
552.23	534.01
552.435	-287.23
552.641	-43.52
552.846	-117.25
553.052	325.12
553.257	-98.81
553.462	-246.27
553.668	-156.16
553.873	204.28
554.078	-342.52
554.283	-313.85
554.489	194.05
554.694	-33.28
554.899	-285.18
555.105	-104.96
555.31	204.28
555.515	208.38
555.72	-129.53
555.925	-297.47
556.131	321.02
556.336	-29.18
556.541	-283.13
556.746	-354.81
556.951	361.98
557.156	470.52
557.361	-182.78
557.567	-100.86
557.772	587.26
557.977	212.48
558.182	-242.17
558.387	-250.36
558.592	-162.3
558.797	402.94
559.002	-107.01
559.207	-107.01
559.412	116.22
559.617	521.72
559.822	-260.6
560.027	-240.12
560.232	124.41
560.437	325.12
560.642	-371.19
560.847	-276.99
561.051	79.36
561.256	142.85
561.461	-190.97
561.666	-412.15
561.871	173.57
562.076	210.43
562.281	-205.31
562.485	-379.39
562.69	259.58
562.895	321.02
563.1	-246.27
563.305	-283.13
563.509	374.27
563.714	603.64
563.919	-221.69
564.123	-186.88
564.328	-70.14
564.533	263.68
564.737	-213.5
564.942	-233.98
565.147	361.98
565.351	519.67
565.556	-41.47
565.761	-111.1
565.965	15.87
566.17	-174.59
566.374	-139.77
566.579	-260.6
566.784	120.32
566.988	32.26
567.193	-395.77
567.397	-229.88
567.602	-317.95
567.806	71.17
568.011	-207.36
568.215	-199.16
568.42	34.3
568.624	34.3
568.828	-182.78
569.033	-68.09
569.237	210.43
569.442	214.52
569.646	-320
569.85	-190.97
570.055	28.16
570.259	128.51
570.463	-35.33
570.668	-188.93
570.872	93.69
571.076	148.99
571.281	-23.04
571.485	-43.52
571.689	110.08
571.893	321.02
572.098	-45.57
572.302	-178.69
572.506	243.2
572.71	44.54
572.914	-96.77
573.119	-188.93
573.323	415.23
573.527	421.37
573.731	-86.53
573.935	-270.84
574.139	144.89
574.343	-66.05
574.547	-172.54
574.751	-125.44
574.955	435.71
575.159	419.32
575.364	-307.71
575.568	-365.05
575.772	140.8
575.976	345.59
576.18	-246.27
576.383	-363
576.587	390.65
576.791	255.48
576.995	-418.3
577.199	-363
577.403	339.45
577.607	345.59
577.811	-238.08
578.015	-53.76
578.219	171.52
578.422	265.72
578.626	-47.62
578.83	-0.51
579.034	374.27
579.238	187.9
579.442	-240.12
579.645	308.73
579.849	-2.56
580.053	183.81
580.257	-162.3
580.46	-152.06
580.664	292.35
580.868	251.39
581.071	99.84
581.275	-68.09
581.479	-164.35
581.682	202.24
581.886	-186.88
582.09	-74.24
582.293	275.96
582.497	304.64
582.7	65.02
582.904	-215.55
583.107	124.41
583.311	120.32
583.515	-109.05
583.718	-72.19
583.922	218.62
584.125	513.53
584.329	-190.97
584.532	56.83
584.735	437.75
584.939	144.89
585.142	-283.13
585.346	-246.27
585.549	230.91
585.753	-6.66
585.956	-125.44
586.159	44.54
586.363	468.47
586.566	232.96
586.769	-174.59
586.973	-264.7
587.176	235
587.379	419.32
587.582	148.99
587.786	95.74
587.989	110.08
588.192	779.76
588.395	-23.04
588.599	128.51
588.802	318.97
589.005	306.68
589.208	-88.57
589.411	-74.24
589.615	392.7
589.818	511.48
590.021	124.41
590.224	9.73
590.427	349.69
590.63	347.64
590.833	-256.51
591.036	-160.25
591.239	1.54
591.442	-10.75
591.645	83.45
591.848	-213.5
592.051	212.48
592.254	359.93
592.457	-121.34
592.66	-27.14
592.863	28.16
593.066	239.1
593.269	-139.77
593.472	-6.66
593.675	-35.33
593.878	280.06
594.081	-88.57
594.284	-209.4
594.486	329.21
594.689	175.61
594.892	-10.75
595.095	-84.48
595.298	376.31
595.5	81.41
595.703	-0.51
595.906	13.82
596.109	454.14
596.311	404.99
596.514	-367.1
596.717	19.97
596.92	398.84
597.122	241.15
597.325	-297.47
597.528	-207.36
597.73	402.94
597.933	216.57
598.136	-178.69
598.338	-311.8
598.541	292.35
598.743	456.19
598.946	-49.66
599.148	-141.82
599.351	415.23
599.554	407.03
599.756	83.45
599.959	17.92
600.161	329.21
600.363	779.76
600.566	204.28
600.768	-141.82
600.971	577.02
601.173	366.07
601.376	-109.05
601.578	-104.96
601.78	284.16
601.983	804.34
602.185	-143.87
602.388	62.98
602.59	392.7
602.792	26.11
602.995	177.66
603.197	-80.38
603.399	450.04
603.601	308.73
603.804	9.73
604.006	-84.48
604.208	183.81
604.41	-184.83
604.613	120.32
604.815	-145.92
605.017	722.42
605.219	48.64
605.421	284.16
605.623	-76.29
605.826	538.1
606.028	579.06
606.23	-25.09
606.432	-59.9
606.634	538.1
606.836	570.87
607.038	-102.91
607.24	108.03
607.442	253.44
607.644	235
607.846	112.13
608.048	-137.73
608.25	474.62
608.452	89.6
608.654	-29.18
608.856	-270.84
609.058	222.72
609.26	353.79
609.462	58.88
609.664	75.26
609.866	759.28
610.067	523.77
610.269	136.7
610.471	-6.66
610.673	202.24
610.875	341.5
611.077	-168.45
611.278	105.98
611.48	189.95
611.682	804.34
611.884	44.54
612.085	15.87
612.287	-2.56
612.489	407.03
612.69	-240.12
612.892	120.32
613.094	538.1
613.295	304.64
613.497	-127.49
613.699	32.26
613.9	525.82
614.102	497.14
614.304	28.16
614.505	-107.01
614.707	222.72
614.908	251.39
615.11	-174.59
615.311	28.16
615.513	450.04
615.714	488.95
615.916	-139.77
616.117	67.07
616.319	243.2
616.52	480.76
616.722	-6.66
616.923	-31.23
617.124	554.49
617.326	404.99
617.527	206.33
617.729	222.72
617.93	437.75
618.131	450.04
618.333	42.5
618.534	110.08
618.735	87.55
618.937	669.17
619.138	-107.01
619.339	-14.85
619.54	357.88
619.742	161.28
619.943	161.28
620.144	85.5
620.345	425.47
620.546	445.95
620.748	-76.29
620.949	11.78
621.15	341.5
621.351	374.27
621.552	24.06
621.753	-113.15
621.954	-78.33
622.155	773.62
622.356	-74.24
622.558	212.48
622.759	232.96
622.96	818.68
623.161	79.36
623.362	114.17
623.563	347.64
623.764	501.24
623.965	103.93
624.166	228.86
624.366	286.2
624.567	337.4
624.768	-199.16
624.969	9.73
625.17	245.24
625.371	585.21
625.572	142.85
625.773	-72.19
625.973	577.02
626.174	548.34
626.375	103.93
626.576	179.71
626.777	493.05
626.977	804.34
627.178	62.98
627.379	175.61
627.58	214.52
627.78	400.89
627.981	216.57
628.182	181.76
628.382	683.51
628.583	-29.18
628.784	-68.09
628.984	208.38
629.185	519.67
629.386	599.54
629.586	144.89
629.787	-57.86
629.987	501.24
630.188	378.36
630.388	163.33
630.589	235
630.79	878.07
630.99	288.25
631.191	99.84
631.391	187.9
631.591	499.19
631.792	835.06
631.992	325.12
632.193	116.22
632.393	755.19
632.594	429.56
632.794	79.36
632.994	251.39
633.195	398.84
633.395	402.94
633.595	75.26
633.796	382.46
633.996	249.34
634.196	642.55
634.397	-66.05
634.597	165.37
634.797	173.57
634.997	783.86
635.198	339.45
635.398	62.98
635.598	556.54
635.798	738.8
635.998	531.96
636.199	30.21
636.399	202.24
636.599	128.51
636.799	120.32
636.999	564.73
637.199	611.83
637.399	579.06
637.599	95.74
637.799	226.81
637.999	280.06
638.199	683.51
638.399	62.98
638.599	136.7
638.799	558.58
638.999	857.59
639.199	327.16
639.399	263.68
639.599	718.33
639.799	292.35
639.999	108.03
640.199	5.63
640.399	548.34
640.599	478.71
640.799	228.86
640.998	423.42
641.198	796.15
641.398	544.25
641.598	361.98
641.798	196.09
641.997	1406.44
642.197	501.24
642.397	269.82
642.597	103.93
642.796	521.72
642.996	747
643.196	329.21
643.395	93.69
643.595	587.26
643.795	97.79
643.994	218.62
644.194	241.15
644.394	587.26
644.593	523.77
644.793	19.97
644.992	392.7
645.192	527.86
645.392	9.73
645.591	325.12
645.791	198.14
645.99	628.21
646.19	460.28
646.389	312.83
646.589	271.87
646.788	620.02
646.987	585.21
647.187	497.14
647.386	374.27
647.586	464.38
647.785	722.42
647.984	300.54
648.184	341.5
648.383	470.52
648.582	437.75
648.782	198.14
648.981	458.23
649.18	253.44
649.38	486.9
649.579	275.96
649.778	187.9
649.977	554.49
650.177	574.97
650.376	206.33
650.575	177.66
650.774	919.03
650.973	402.94
651.173	173.57
651.372	364.03
651.571	554.49
651.77	667.13
651.969	245.24
652.168	370.17
652.367	321.02
652.566	452.09
652.765	304.64
652.964	550.39
653.163	1007.09
653.362	421.37
653.561	220.67
653.76	294.4
653.959	404.99
654.158	583.16
654.357	503.29
654.556	280.06
654.755	667.13
654.954	660.98
655.153	286.2
655.352	353.79
655.551	871.92
655.749	323.07
655.948	341.5
656.147	380.41
656.346	646.65
656.545	443.9
656.743	407.03
656.942	392.7
657.141	663.03
657.34	333.31
657.538	327.16
657.737	251.39
657.936	439.8
658.135	673.27
658.333	286.2
658.532	415.23
658.731	978.42
658.929	796.15
659.128	669.17
659.326	300.54
659.525	880.11
659.724	544.25
659.922	128.51
660.121	198.14
660.319	726.52
660.518	366.07
660.716	239.1
660.915	253.44
661.113	902.64
661.312	325.12
661.51	466.42
661.709	304.64
661.907	742.9
662.105	947.7
662.304	357.88
662.502	343.55
662.701	884.21
662.899	599.54
663.097	574.97
663.296	198.14
663.494	837.11
663.692	1009.14
663.891	357.88
664.089	263.68
664.287	738.8
664.485	957.94
664.684	296.44
664.882	427.51
665.08	738.8
665.278	673.27
665.476	314.88
665.675	628.21
665.873	1078.77
666.071	794.1
666.269	341.5
666.467	652.79
666.665	630.26
666.863	554.49
667.061	534.01
667.259	343.55
667.457	638.45
667.655	714.23
667.853	314.88
668.051	468.47
668.249	378.36
668.447	837.11
668.645	378.36
668.843	581.11
669.041	734.71
669.239	595.45
669.437	521.72
669.635	620.02
669.833	415.23
670.031	822.77
670.229	632.31
670.426	513.53
670.624	538.1
670.822	523.77
671.02	407.03
671.218	458.23
671.415	396.79
671.613	689.65
671.811	505.34
672.009	364.03
672.206	839.16
672.404	706.04
672.602	658.93
672.799	472.57
672.997	720.37
673.195	935.41
673.392	560.63
673.59	351.74
673.788	882.16
673.985	235
674.183	544.25
674.38	458.23
674.578	1011.18
674.775	591.35
674.973	386.55
675.17	386.55
675.368	1021.42
675.565	722.42
675.763	390.65
675.96	357.88
676.158	1050.1
676.355	683.51
676.553	433.66
676.75	505.34
676.947	747
677.145	712.18
677.342	605.69
677.539	648.69
677.737	792.05
677.934	1302
678.131	665.08
678.329	517.62
678.526	1226.22
678.723	949.75
678.92	632.31
679.118	452.09
679.315	407.03
679.512	984.56
679.709	538.1
679.906	562.68
680.104	1027.57
680.301	796.15
680.498	300.54
680.695	423.42
680.892	568.82
681.089	620.02
681.286	620.02
681.483	341.5
681.68	906.74
681.877	1002.99
682.075	521.72
682.272	771.57
682.469	869.87
682.665	714.23
682.862	437.75
683.059	345.59
683.256	833.01
683.453	712.18
683.65	663.03
683.847	505.34
684.044	667.13
684.241	579.06
684.438	718.33
684.635	472.57
684.831	1183.21
685.028	1240.56
685.225	443.9
685.422	605.69
685.619	734.71
685.815	828.92
686.012	630.26
686.209	648.69
686.405	611.83
686.602	966.13
686.799	433.66
686.996	546.3
687.192	501.24
687.389	1250.8
687.586	456.19
687.782	687.61
687.979	1277.42
688.175	1076.72
688.372	605.69
688.568	525.82
688.765	677.37
688.962	1054.19
689.158	792.05
689.355	472.57
689.551	1054.19
689.748	824.82
689.944	689.65
690.14	445.95
690.337	996.85
690.533	736.76
690.73	812.53
690.926	560.63
691.123	943.6
691.319	847.35
691.515	505.34
691.712	853.49
691.908	959.99
692.104	933.36
692.301	706.04
692.497	476.66
692.693	972.27
692.889	937.46
693.086	714.23
693.282	409.08
693.478	964.08
693.674	1299.95
693.87	595.45
694.067	409.08
694.263	978.42
694.459	898.55
694.655	806.39
694.851	710.13
695.047	994.8
695.243	1058.29
695.439	804.34
695.635	652.79
695.831	974.32
696.027	919.03
696.224	620.02
696.42	1031.66
696.615	1132.01
696.811	1091.06
697.007	534.01
697.203	669.17
697.399	988.66
697.595	1222.13
697.791	585.21
697.987	701.94
698.183	585.21
698.379	636.41
698.575	726.52
698.77	689.65
698.966	1156.59
699.162	1252.84
699.358	755.19
699.554	751.09
699.749	1103.34
699.945	1054.19
700.141	818.68
700.337	861.68
700.532	849.4
700.728	642.55
700.924	665.08
701.119	640.5
701.315	949.75
701.511	814.58
701.706	790
701.902	441.85
702.097	1013.23
702.293	1031.66
702.489	669.17
702.684	720.37
702.88	992.75
703.075	878.07
703.271	716.28
703.466	554.49
703.662	919.03
703.857	1148.4
704.053	603.64
704.248	767.48
704.443	1197.55
704.639	1066.48
704.834	744.95
705.03	652.79
705.225	1095.15
705.42	1218.03
705.616	839.16
705.811	714.23
706.006	974.32
706.202	822.77
706.397	810.48
706.592	716.28
706.787	984.56
706.983	949.75
707.178	1029.62
707.373	847.35
707.568	1097.2
707.763	1291.76
707.959	681.46
708.154	695.8
708.349	1015.28
708.544	1054.19
708.739	1056.24
708.934	667.13
709.129	1125.87
709.324	1189.36
709.519	718.33
709.714	579.06
709.909	1299.95
710.104	1089.01
710.299	769.52
710.494	779.76
710.689	1113.58
710.884	1084.91
711.079	929.27
711.274	1041.9
711.469	1050.1
711.664	1177.07
711.859	873.97
712.054	927.22
712.249	1154.54
712.443	1191.41
712.638	638.45
712.833	634.36
713.028	988.66
713.223	1023.47
713.417	1039.86
713.612	703.99
713.807	1148.4
714.002	1637.86
714.196	949.75
714.391	751.09
714.586	1299.95
714.78	1052.14
714.975	740.85
715.17	833.01
715.364	980.47
715.559	1283.56
715.754	507.38
715.948	794.1
716.143	1506.79
716.337	1029.62
716.532	1050.1
716.726	912.88
716.921	1269.23
717.115	1517.03
717.31	706.04
717.504	1381.87
717.699	976.37
717.893	1267.18
718.088	728.56
718.282	728.56
718.476	1168.88
718.671	1129.97
718.865	771.57
719.059	845.3
719.254	1095.15
719.448	1406.44
719.642	2108.9
719.837	658.93
720.031	1256.94
720.225	1299.95
720.419	996.85
720.614	808.44
720.808	1246.7
721.002	988.66
721.196	906.74
721.39	761.33
721.585	1514.98
721.779	1170.93
721.973	914.93
722.167	714.23
722.361	1152.49
722.555	1439.21
722.749	826.87
722.943	898.55
723.137	796.15
723.331	1146.35
723.525	841.2
723.719	785.91
723.913	1207.79
724.107	1521.13
724.301	677.37
724.495	898.55
724.689	1482.22
724.883	1431.02
725.077	796.15
725.271	839.16
725.465	1347.05
725.659	1111.54
725.853	925.17
726.046	683.51
726.24	1033.71
726.434	1347.05
726.628	894.45
726.822	904.69
727.015	1433.07
727.209	1373.68
727.403	927.22
727.596	779.76
727.79	1400.3
727.984	1336.81
728.177	873.97
728.371	996.85
728.565	1297.9
728.758	833.01
728.952	794.1
729.146	865.78
729.339	1385.96
729.533	1185.26
729.726	964.08
729.92	833.01
730.113	1449.45
730.307	1213.93
730.5	882.16
730.694	835.06
730.887	988.66
731.081	1320.43
731.274	953.84
731.468	1041.9
731.661	1123.82
731.854	1078.77
732.048	919.03
732.241	765.43
732.435	1013.23
732.628	1244.65
732.821	904.69
733.014	808.44
733.208	972.27
733.401	1304.04
733.594	1025.52
733.788	943.6
733.981	1445.35
734.174	1218.03
734.367	962.03
734.56	1078.77
734.754	1373.68
734.947	1160.69
735.14	925.17
735.333	919.03
735.526	1297.9
735.719	1037.81
735.912	1009.14
736.105	857.59
736.298	1234.41
736.491	1033.71
736.684	1011.18
736.877	953.84
737.07	1406.44
737.263	1494.51
737.456	923.12
737.649	820.72
737.842	1086.96
738.035	1203.69
738.228	1074.67
738.421	1136.11
738.614	1570.28
738.807	1488.36
739	853.49
739.192	943.6
739.385	1461.74
739.578	1351.15
739.771	1213.93
739.964	994.8
740.156	1467.88
740.349	1156.59
740.542	1140.21
740.735	925.17
740.927	1025.52
741.12	1050.1
741.313	923.12
741.505	1144.3
741.698	1297.9
741.891	1351.15
742.083	1154.54
742.276	1009.14
742.468	1314.28
742.661	1177.07
742.854	1050.1
743.046	1013.23
743.239	1603.05
743.431	1232.37
743.624	1023.47
743.816	787.96
744.009	1138.16
744.201	1320.43
744.393	1224.17
744.586	1039.86
744.778	1557.99
744.971	1326.57
745.163	1172.97
745.355	1154.54
745.548	1254.89
745.74	1228.27
745.932	1177.07
746.125	1035.76
746.317	1758.69
746.509	1338.86
746.702	1132.01
746.894	1046
747.086	1385.96
747.278	1617.38
747.471	1299.95
747.663	1078.77
747.855	1375.72
748.047	1691.11
748.239	925.17
748.431	1070.58
748.623	1748.45
748.815	1607.14
749.008	1011.18
749.2	1019.38
749.392	1562.09
749.584	1447.4
749.776	1048.05
749.968	1213.93
750.16	1756.65
750.352	1148.4
750.544	1197.55
750.736	1005.04
750.928	1385.96
751.12	1154.54
751.311	1078.77
751.503	1168.88
751.695	1482.22
751.887	1332.72
752.079	941.55
752.271	1152.49
752.463	2119.14
752.654	1545.7
752.846	1105.39
753.038	1138.16
753.23	1162.73
753.421	1478.12
753.613	1191.41
753.805	1263.08
753.997	1652.2
754.188	1576.42
754.38	1115.63
754.572	1035.76
754.763	1340.91
754.955	1478.12
755.146	1230.32
755.338	1244.65
755.53	1596.9
755.721	1369.58
755.913	835.06
756.104	1043.95
756.296	1379.82
756.487	1490.41
756.679	1023.47
756.87	1156.59
757.062	1138.16
757.253	1560.04
757.445	1095.15
757.636	1287.66
757.827	1353.2
758.019	1918.43
758.21	1039.86
758.401	1170.93
758.593	1990.11
758.784	1730.02
758.975	886.26
759.167	1115.63
759.358	1426.92
759.549	1695.21
759.74	1121.77
759.932	1170.93
760.123	1768.93
760.314	1285.61
760.505	1252.84
760.696	1070.58
760.888	1740.26
761.079	1281.52
761.27	1029.62
761.461	900.59
761.652	1707.49
761.843	1220.08
762.034	1258.99
762.225	1381.87
762.416	1394.15
762.607	1385.96
762.798	1189.36
762.989	1132.01
763.18	2160.1
763.371	1420.78
763.562	1039.86
763.753	1154.54
763.944	1666.53
764.135	1697.25
764.326	1390.06
764.517	1158.64
764.708	1517.03
764.899	1619.43
765.089	1181.17
765.28	1039.86
765.471	1463.79
765.662	1467.88
765.853	1322.48
766.043	1046
766.234	1555.94
766.425	1648.1
766.615	1199.6
766.806	968.18
766.997	1658.34
767.187	1467.88
767.378	1078.77
767.569	1023.47
767.759	1447.4
767.95	1541.61
768.141	1226.22
768.331	1123.82
768.522	1482.22
768.712	1578.47
768.903	1097.2
769.093	1111.54
769.284	1834.47
769.474	1615.34
769.665	873.97
769.855	988.66
770.046	1652.2
770.236	1318.38
770.426	1392.11
770.617	1037.81
770.807	1570.28
770.998	1431.02
771.188	1377.77
771.378	1160.69
771.569	1601
771.759	1644.01
771.949	1033.71
772.139	873.97
772.33	1512.94
772.52	1783.27
772.71	1078.77
772.9	1029.62
773.09	1846.76
773.281	1736.17
773.471	1142.25
773.661	1195.5
773.851	1652.2
774.041	1345
774.231	1066.48
774.421	1279.47
774.611	1832.42
774.802	1502.7
774.992	1168.88
775.182	1156.59
775.372	1474.03
775.562	1656.29
775.752	1129.97
775.942	1220.08
776.131	1727.97
776.321	1545.7
776.511	1205.74
776.701	1103.34
776.891	1717.73
777.081	1193.45
777.271	1285.61
777.461	1142.25
777.651	1594.86
777.84	1816.04
778.03	1351.15
778.22	1224.17
778.41	1883.62
778.599	1277.42
778.789	1310.19
778.979	1123.82
779.169	1474.03
779.358	1517.03
779.548	1555.94
779.738	935.41
779.927	1498.6
780.117	1369.58
780.307	1228.27
780.496	1048.05
780.686	1547.75
780.875	1756.65
781.065	1242.61
781.254	1070.58
781.444	1529.32
781.633	1541.61
781.823	1160.69
782.012	1222.13
782.202	1302
782.391	1512.94
782.581	1113.58
782.77	1412.59
782.96	1646.05
783.149	1523.18
783.338	1179.12
783.528	912.88
783.717	1648.1
783.906	1711.59
784.096	1295.85
784.285	1148.4
784.474	1420.78
784.663	1390.06
784.853	1158.64
785.042	1209.84
785.231	1328.62
785.42	1777.12
785.61	1254.89
785.799	1054.19
785.988	1332.72
786.177	1342.96
786.366	1316.33
786.555	1414.63
786.744	1687.01
786.933	1490.41
787.122	1041.9
787.312	1156.59
787.501	1420.78
787.69	1512.94
787.879	1256.94
788.068	1207.79
788.257	1197.55
788.445	1363.44
788.634	1232.37
788.823	1080.82
789.012	1992.16
789.201	1922.53
789.39	1334.76
789.579	1103.34
789.768	1547.75
789.957	1492.46
790.145	1275.37
790.334	976.37
790.523	1316.33
790.712	1222.13
790.9	1263.08
791.089	1132.01
791.278	1631.72
791.467	1570.28
791.655	1439.21
791.844	1723.88
792.033	1385.96
792.221	1467.88
792.41	1236.46
792.599	1215.98
792.787	1500.65
792.976	1699.3
793.164	1062.38
793.353	1170.93
793.541	1682.92
793.73	1660.39
793.918	1412.59
794.107	1365.48
794.295	1439.21
794.484	1471.98
794.672	1250.8
794.861	1258.99
795.049	1549.8
795.238	1877.48
795.426	1201.65
795.614	1336.81
795.803	1652.2
795.991	1859.04
796.179	1232.37
796.368	1193.45
796.556	1740.26
796.744	1285.61
796.932	1140.21
797.121	1140.21
797.309	1496.55
797.497	1746.41
797.685	1261.04
797.874	1263.08
798.062	1560.04
798.25	1879.52
798.438	1246.7
798.626	1111.54
798.814	1613.29
799.002	2047.46
799.19	1422.83
799.378	1293.8
799.566	1783.27
799.755	1922.53
799.943	1525.22
800.131	1199.6
800.318	1474.03
800.506	1725.93
800.694	1175.02
800.882	1379.82
801.07	1832.42
801.258	1555.94
801.446	1201.65
801.634	1205.74
801.822	1596.9
802.01	1478.12
802.197	1287.66
802.385	1437.16
802.573	1627.62
802.761	1424.87
802.949	1375.72
803.136	1195.5
803.324	1768.93
803.512	1598.95
803.699	1408.49
803.887	1113.58
804.075	1857
804.262	1482.22
804.45	1201.65
804.638	1449.45
804.825	1330.67
805.013	1457.64
805.201	1293.8
805.388	1181.17
805.576	1500.65
805.763	1943.01
805.951	1394.15
806.138	1623.53
806.326	2090.46
806.513	1629.67
806.701	1377.77
806.888	1365.48
807.075	1646.05
807.263	2043.36
807.45	1218.03
807.638	1523.18
807.825	2026.98
808.012	1865.19
808.2	1441.26
808.387	1586.66
808.574	1781.22
808.761	2049.5
808.949	1234.41
809.136	1453.55
809.323	1576.42
809.51	1639.91
809.698	1656.29
809.885	1449.45
810.072	1791.46
810.259	1930.72
810.446	1480.17
810.633	1340.91
810.82	1867.24
811.008	2160.1
811.195	1648.1
811.382	1445.35
811.569	1652.2
811.756	1459.69
811.943	1412.59
812.13	1324.52
812.317	1570.28
812.504	1625.58
812.691	1562.09
812.878	1578.47
813.064	2061.79
813.251	1691.11
813.438	1375.72
813.625	1680.87
813.812	1603.05
813.999	1631.72
814.186	1453.55
814.372	1562.09
814.559	1719.78
814.746	1988.07
814.933	1517.03
815.12	1668.58
815.306	1562.09
815.493	1461.74
815.68	1492.46
815.866	1586.66
816.053	2115.04
816.24	2225.63
816.426	1514.98
816.613	1514.98
816.799	1938.91
816.986	1983.97
817.173	1596.9
817.359	1390.06
817.546	1857
817.732	1385.96
817.919	1197.55
818.105	1545.7
818.292	1662.44
818.478	1865.19
818.665	1635.82
818.851	1512.94
819.037	2307.55
819.224	1803.75
819.41	1379.82
819.597	1496.55
819.783	2201.05
819.969	1791.46
820.156	1629.67
820.342	1424.87
820.528	2315.74
820.714	1734.12
820.901	1775.08
821.087	1555.94
821.273	2225.63
821.459	1674.73
821.646	1488.36
821.832	1422.83
822.018	1949.15
822.204	1787.36
822.39	1574.38
822.576	1385.96
822.762	1857
822.948	1781.22
823.134	1756.65
823.32	1625.58
823.507	1451.5
823.693	1934.82
823.879	1953.25
824.065	1521.13
824.25	1789.41
824.436	1598.95
824.622	1590.76
824.808	1414.63
824.994	1656.29
825.18	1551.85
825.366	1369.58
825.552	1541.61
825.738	1773.03
825.923	2078.18
826.109	1750.5
826.295	1537.51
826.481	1582.57
826.667	1684.97
826.852	1662.44
827.038	1453.55
827.224	1981.92
827.409	2143.71
827.595	1365.48
827.781	1619.43
827.966	2035.17
828.152	2088.42
828.338	1572.33
828.523	1410.54
828.709	1676.77
828.894	2178.53
829.08	1510.89
829.266	1517.03
829.451	1709.54
829.637	2004.45
829.822	1709.54
830.008	1494.51
830.193	2065.89
830.378	2217.44
830.564	1533.42
830.749	1512.94
830.935	1877.48
831.12	2012.64
831.305	1408.49
831.491	1566.18
831.676	1539.56
831.861	1934.82
832.047	1541.61
832.232	1363.44
832.417	2102.75
832.602	1869.28
832.788	1560.04
832.973	1459.69
833.158	1990.11
833.343	1875.43
833.528	1615.34
833.714	1568.23
833.899	2006.5
834.084	2282.97
834.269	1744.36
834.454	1555.94
834.639	1961.44
834.824	1781.22
835.009	1736.17
835.194	1816.04
835.379	2008.55
835.564	2176.48
835.749	1750.5
835.934	1521.13
836.119	1979.87
836.304	1799.65
836.489	1535.46
836.674	1719.78
836.859	1535.46
837.044	2102.75
837.228	1689.06
837.413	1426.92
837.598	1959.39
837.783	2090.46
837.968	1627.62
838.152	1392.11
838.337	1510.89
838.522	2024.93
838.707	1975.78
838.891	1813.99
839.076	1910.24
839.261	2041.31
839.445	1656.29
839.63	1637.86
839.815	2244.06
839.999	1805.8
840.184	1545.7
840.368	1596.9
840.553	1967.59
840.737	2100.7
840.922	1402.35
841.106	1459.69
841.291	1580.52
841.475	1832.42
841.66	1529.32
841.844	1568.23
842.029	2479.58
842.213	1549.8
842.397	1525.22
842.582	1340.91
842.766	2092.51
842.951	2041.31
843.135	1656.29
843.319	1670.63
843.504	1914.34
843.688	2061.79
843.872	1388.01
844.056	1625.58
844.241	1828.32
844.425	1828.32
844.609	1725.93
844.793	1359.34
844.977	2112.99
845.161	1938.91
845.346	1496.55
845.53	1422.83
845.714	1766.89
845.898	2139.62
846.082	1484.27
846.266	1627.62
846.45	1930.72
846.634	1938.91
846.818	1527.27
847.002	1574.38
847.186	1971.68
847.37	1574.38
847.554	1394.15
847.738	1668.58
847.922	1875.43
848.106	1934.82
848.29	1435.11
848.473	1506.79
848.657	2086.37
848.841	1801.7
849.025	1488.36
849.209	1467.88
849.392	1928.67
849.576	1750.5
849.76	1308.14
849.944	1750.5
850.127	2137.57
850.311	1500.65
850.495	1480.17
850.678	1410.54
850.862	2115.04
851.046	2074.08
851.229	1746.41
851.413	1560.04
851.596	1840.61
851.78	1877.48
851.964	1598.95
852.147	1654.25
852.331	2536.92
852.514	2160.1
852.698	1539.56
852.881	1383.91
853.065	2096.61
853.248	1709.54
853.431	1834.47
853.615	1684.97
853.798	2268.64
853.982	1885.67
854.165	1725.93
854.348	1586.66
854.532	1609.19
854.715	1713.64
854.898	1641.96
855.081	1447.4
855.265	2076.13
855.448	2182.62
855.631	1541.61
855.814	1506.79
855.997	2049.5
856.181	1799.65
856.364	1566.18
856.547	1381.87
856.73	1803.75
856.913	1865.19
857.096	1422.83
857.279	1541.61
857.462	1707.49
857.645	2184.67
857.828	1639.91
858.011	1668.58
858.194	1652.2
858.377	2061.79
858.56	1373.68
858.743	1613.29
858.926	1562.09
859.109	1926.63
859.292	1500.65
859.475	1414.63
859.658	2117.09
859.841	2069.98
860.023	1377.77
860.206	1512.94
860.389	1861.09
860.572	2235.87
860.755	1572.33
860.937	1512.94
861.12	1748.45
861.303	1748.45
861.486	1596.9
861.668	1426.92
861.851	1996.26
862.034	1998.31
862.216	1639.91
862.399	1381.87
862.581	1881.57
862.764	2151.9
862.947	1578.47
863.129	1406.44
863.312	1457.64
863.494	2276.83
863.677	1893.86
863.859	1308.14
864.042	1967.59
864.224	2188.77
864.406	1748.45
864.589	1402.35
864.771	1891.81
864.954	1549.8
865.136	1463.79
865.318	1304.04
865.501	1850.85
865.683	1326.57
865.865	1494.51
866.048	1504.75
866.23	1828.32
866.412	1766.89
866.594	1447.4
866.777	1510.89
866.959	2031.07
867.141	1697.25
867.323	1791.46
867.505	1687.01
867.687	1830.37
867.869	1795.56
868.052	1529.32
868.234	1482.22
868.416	1758.69
868.598	2012.64
868.78	1646.05
868.962	1521.13
869.144	2131.42
869.326	2006.5
869.508	1498.6
869.69	1461.74
869.872	1660.39
870.054	1969.63
870.236	1523.18
870.417	1562.09
870.599	1641.96
870.781	2119.14
870.963	1805.8
871.145	1504.75
871.327	1492.46
871.508	2082.27
871.69	1523.18
871.872	1494.51
872.054	1691.11
872.235	1926.63
872.417	1697.25
872.599	1435.11
872.78	2295.26
872.962	1906.15
873.144	1396.2
873.325	1525.22
873.507	2199.01
873.689	1803.75
873.87	1365.48
874.052	1719.78
874.233	1703.4
874.415	1992.16
874.596	1570.28
874.778	1410.54
874.959	1670.63
875.141	1983.97
875.322	1574.38
875.503	1504.75
875.685	1963.49
875.866	1371.63
876.048	1416.68
876.229	1390.06
876.41	1801.7
876.592	1992.16
876.773	1494.51
876.954	1418.73
877.136	2289.12
877.317	1742.31
877.498	1398.25
877.679	1555.94
877.86	2014.69
878.042	1895.91
878.223	1564.14
878.404	1791.46
878.585	2086.37
878.766	2233.82
878.947	1834.47
879.128	1789.41
879.309	2055.65
879.49	2188.77
879.672	1801.7
879.853	1592.81
880.034	1623.53
880.215	1940.96
880.396	1703.4
880.576	1601
880.757	1777.12
880.938	2174.43
881.119	1609.19
881.3	1404.39
881.481	1762.79
881.662	2745.81
881.843	1529.32
882.023	1451.5
882.204	1854.95
882.385	1986.02
882.566	1617.38
882.747	1547.75
882.927	1930.72
883.108	1926.63
883.289	1603.05
883.469	1986.02
883.65	1750.5
883.831	1900
884.011	1807.84
884.192	1654.25
884.373	2153.95
884.553	2016.74
884.734	1797.6
884.914	1879.52
885.095	2725.33
885.275	2272.73
885.456	2069.98
885.636	1471.98
885.817	1834.47
885.997	1965.54
886.178	1590.76
886.358	1828.32
886.538	1881.57
886.719	3020.24
886.899	1586.66
887.08	1914.34
887.26	2305.5
887.44	1795.56
887.621	1623.53
887.801	1799.65
887.981	2459.1
888.161	2115.04
888.342	1832.42
888.522	1748.45
888.702	2412
888.882	2422.24
889.062	1973.73
889.242	1631.72
889.423	2498.01
889.603	2186.72
889.783	1916.39
889.963	1816.04
890.143	2278.88
890.323	2301.4
890.503	1820.13
890.683	1879.52
890.863	2061.79
891.043	2205.15
891.223	1873.38
891.403	1957.35
891.583	2121.18
891.763	2196.96
891.943	1969.63
892.122	1793.51
892.302	2080.22
892.482	1977.83
892.662	1986.02
892.842	1938.91
893.022	2172.38
893.201	1836.52
893.381	1994.21
893.561	1881.57
893.741	2287.07
893.92	2192.86
894.1	1965.54
894.28	1971.68
894.459	2282.97
894.639	2250.21
894.819	1996.26
894.998	2055.65
895.178	2242.01
895.357	2254.3
895.537	1824.23
895.716	1742.31
895.896	2244.06
896.075	2432.47
896.255	1824.23
896.434	1654.25
896.614	2522.59
896.793	2498.01
896.973	2184.67
897.152	1910.24
897.331	2366.94
897.511	2332.12
897.69	1799.65
897.87	1938.91
898.049	2375.13
898.228	2170.33
898.407	1943.01
898.587	1979.87
898.766	1996.26
898.945	2346.46
899.124	2215.39
899.304	2172.38
899.483	2268.64
899.662	2569.69
899.841	1879.52
900.02	1951.2
900.199	2401.76
900.378	2338.27
900.557	1869.28
900.737	1775.08
900.916	2227.68
901.095	2368.99
901.274	2205.15
901.453	1775.08
901.632	1924.58
901.811	1951.2
901.989	1902.05
902.168	1816.04
902.347	2336.22
902.526	1990.11
902.705	1951.2
902.884	1990.11
903.063	2430.43
903.242	2563.54
903.42	1781.22
903.599	1959.39
903.778	2381.28
903.957	2424.28
904.135	2037.22
904.314	2014.69
904.493	2201.05
904.672	2397.66
904.85	1902.05
905.029	1873.38
905.207	2250.21
905.386	2971.09
905.565	1635.82
905.743	1840.61
905.922	1967.59
906.1	2289.12
906.279	1777.12
906.457	1883.62
906.636	2065.89
906.814	2024.93
906.993	1865.19
907.171	1746.41
907.35	2319.84
907.528	2407.9
907.707	2065.89
907.885	1844.71
908.063	2526.68
908.242	1758.69
908.42	1781.22
908.598	1607.14
908.777	2209.25
908.955	2004.45
909.133	2104.8
909.311	1805.8
909.49	2057.7
909.668	2149.86
909.846	1865.19
910.024	1660.39
910.202	2158.05
910.38	2211.29
910.559	1791.46
910.737	1885.67
910.915	2119.14
911.093	2217.44
911.271	1813.99
911.449	2049.5
911.627	2282.97
911.805	2631.13
911.983	1885.67
912.161	1801.7
912.339	2199.01
912.517	2428.38
912.695	2078.18
912.872	1934.82
913.05	1959.39
913.228	2176.48
913.406	1934.82
913.584	1775.08
913.762	2295.26
913.939	1963.49
914.117	1768.93
914.295	1689.06
914.473	2176.48
914.65	2065.89
914.828	1725.93
915.006	1687.01
915.184	1707.49
915.361	1998.31
915.539	1895.91
915.716	1983.97
915.894	2131.42
916.072	2213.34
916.249	1988.07
916.427	1900
916.604	1762.79
916.782	2115.04
916.959	1605.1
917.137	1781.22
917.314	2055.65
917.492	2063.84
917.669	1732.07
917.847	1748.45
918.024	2074.08
918.201	1707.49
918.379	1887.72
918.556	1748.45
918.733	2123.23
918.911	1846.76
919.088	1904.1
919.265	1830.37
919.442	2094.56
919.62	1965.54
919.797	1609.19
919.974	1601
920.151	2059.74
920.328	1949.15
920.506	1709.54
920.683	1867.24
920.86	1680.87
921.037	1906.15
921.214	1684.97
921.391	1717.73
921.568	2096.61
921.745	1811.94
921.922	1803.75
922.099	1756.65
922.276	2180.57
922.453	2108.9
922.63	1566.18
922.807	2043.36
922.984	1983.97
923.161	1807.84
923.338	1695.21
923.514	1521.13
923.691	1877.48
923.868	2037.22
924.045	1609.19
924.222	1617.38
924.399	1967.59
924.575	2086.37
924.752	1664.49
924.929	1865.19
925.105	1951.2
925.282	1668.58
925.459	1547.75
925.635	1619.43
925.812	1811.94
925.989	1564.14
926.165	1717.73
926.342	1381.87
926.518	1568.23
926.695	1848.8
926.871	1549.8
927.048	1277.42
927.224	2104.8
927.401	1582.57
927.577	1570.28
927.754	1394.15
927.93	1908.19
928.107	1857
928.283	1441.26
928.459	1676.77
928.636	1906.15
928.812	1680.87
928.988	1328.62
929.165	1375.72
929.341	1584.62
929.517	1703.4
929.693	1854.95
929.87	1363.44
930.046	1838.56
930.222	1711.59
930.398	1357.29
930.574	1398.25
930.751	1680.87
930.927	1537.51
931.103	1439.21
931.279	1525.22
931.455	1306.09
931.631	1730.02
931.807	1242.61
931.983	1308.14
932.159	1322.48
932.335	1807.84
932.511	1484.27
932.687	1357.29
932.863	1656.29
933.039	1529.32
933.215	1136.11
933.391	1209.84
933.566	1547.75
933.742	1557.99
933.918	1234.41
934.094	1189.36
934.27	1627.62
934.445	1582.57
934.621	1355.24
934.797	1158.64
934.973	1568.23
935.148	1644.01
935.324	1177.07
935.5	1080.82
935.675	1701.35
935.851	1447.4
936.027	1236.46
936.202	1193.45
936.378	1498.6
936.553	1320.43
936.729	1488.36
936.904	927.22
937.08	1076.72
937.255	1134.06
937.431	1113.58
937.606	925.17
937.782	1095.15
937.957	1293.8
938.133	988.66
938.308	939.51
938.483	1248.75
938.659	1017.33
938.834	939.51
939.009	822.77
939.185	990.7
939.36	984.56
939.535	480.76
939.71	894.45
939.886	1306.09
940.061	1156.59
940.236	1021.42
940.411	900.59
940.586	1166.83
940.761	1228.27
940.937	845.3
941.112	742.9
941.287	1091.06
941.462	1097.2
941.637	675.32
941.812	779.76
941.987	1086.96
942.162	900.59
942.337	865.78
942.512	665.08
942.687	1201.65
942.862	1138.16
943.037	570.87
943.212	468.47
943.386	861.68
943.561	880.11
943.736	863.73
943.911	1013.23
944.086	1050.1
944.26	916.98
944.435	603.64
944.61	759.28
944.785	1168.88
944.959	1316.33
945.134	747
945.309	644.6
945.483	787.96
945.658	1205.74
945.833	439.8
946.007	544.25
946.182	1304.04
946.357	824.82
946.531	554.49
946.706	589.3
946.88	488.95
947.055	1050.1
947.229	620.02
947.404	511.48
947.578	1127.92
947.752	779.76
947.927	472.57
948.101	525.82
948.276	982.51
948.45	859.63
948.624	816.63
948.799	642.55
948.973	1074.67
949.147	599.54
949.321	738.8
949.496	677.37
949.67	1074.67
949.844	777.72
950.018	620.02
950.193	589.3
950.367	1398.25
950.541	685.56
950.715	701.94
950.889	830.96
951.063	843.25
951.237	1037.81
951.411	497.14
951.585	491
951.759	1103.34
951.933	837.11
952.107	658.93
952.281	808.44
952.455	1226.22
952.629	1086.96
952.803	634.36
952.977	634.36
953.151	1054.19
953.325	1017.33
953.499	755.19
953.672	507.38
953.846	470.52
954.02	816.63
954.194	536.06
954.368	628.21
954.541	916.98
954.715	767.48
954.889	824.82
955.062	482.81
955.236	869.87
955.41	714.23
955.583	699.89
955.757	462.33
955.93	837.11
956.104	611.83
956.278	564.73
956.451	597.49
956.625	1062.38
956.798	1250.8
956.972	882.16
957.145	624.12
957.319	851.44
957.492	882.16
957.665	732.66
957.839	644.6
958.012	992.75
958.185	765.43
958.359	617.97
958.532	792.05
958.705	1005.04
958.879	964.08
959.052	726.52
959.225	501.24
959.398	767.48
959.572	945.65
959.745	615.93
959.918	734.71
960.091	759.28
960.264	1025.52
960.438	570.87
960.611	620.02
960.784	990.7
960.957	697.85
961.13	986.61
961.303	620.02
961.476	855.54
961.649	1031.66
961.822	501.24
961.995	593.4
962.168	959.99
962.341	923.12
962.514	595.45
962.686	572.92
962.859	865.78
963.032	974.32
963.205	568.82
963.378	411.13
963.551	876.02
963.723	835.06
963.896	720.37
964.069	720.37
964.242	726.52
964.414	1107.44
964.587	615.93
964.76	683.51
964.932	931.31
965.105	742.9
965.278	656.89
965.45	550.39
965.623	845.3
965.795	978.42
965.968	591.35
966.14	591.35
966.313	824.82
966.485	878.07
966.658	615.93
966.83	615.93
967.003	1164.78
967.175	1080.82
967.348	638.45
967.52	507.38
967.692	1230.32
967.865	931.31
968.037	611.83
968.209	863.73
968.382	923.12
968.554	1078.77
968.726	650.74
968.898	615.93
969.071	867.83
969.243	1062.38
969.415	603.64
969.587	628.21
969.759	1345
969.932	962.03
970.104	726.52
970.276	318.97
970.448	675.32
970.62	693.75
970.792	771.57
970.964	691.7
971.136	1263.08
971.308	951.79
971.48	550.39
971.652	501.24
971.824	1238.51
971.996	687.61
972.168	677.37
972.339	679.41
972.511	1070.58
972.683	792.05
972.855	765.43
973.027	591.35
973.199	775.67
973.37	1025.52
973.542	738.8
973.714	644.6
973.886	828.92
974.057	1072.62
974.229	462.33
974.401	509.43
974.572	622.07
974.744	415.23
974.915	480.76
975.087	441.85
975.259	1222.13
975.43	744.95
975.602	583.16
975.773	464.38
975.945	628.21
976.116	1029.62
976.288	488.95
976.459	685.56
976.63	691.7
976.802	1025.52
976.973	568.82
977.145	845.3
977.316	1336.81
977.487	1170.93
977.659	751.09
977.83	599.54
978.001	1250.8
978.172	927.22
978.344	443.9
978.515	589.3
978.686	624.12
978.857	1201.65
979.028	540.15
979.2	529.91
979.371	962.03
979.542	767.48
979.713	734.71
979.884	241.15
980.055	577.02
980.226	771.57
980.397	521.72
980.568	407.03
980.739	1009.14
980.91	742.9
981.081	747
981.252	527.86
981.423	925.17
981.594	1107.44
981.765	464.38
981.936	574.97
982.106	779.76
982.277	1054.19
982.448	540.15
982.619	792.05
982.79	706.04
982.96	1009.14
983.131	712.18
983.302	321.02
983.472	593.4
983.643	792.05
983.814	542.2
983.984	581.11
984.155	722.42
984.326	988.66
984.496	630.26
984.667	525.82
984.837	611.83
985.008	1013.23
985.178	646.65
985.349	529.91
985.519	710.13
985.69	579.06
985.86	525.82
986.031	337.4
986.201	824.82
986.371	837.11
986.542	417.27
986.712	325.12
986.882	880.11
987.053	785.91
987.223	345.59
987.393	648.69
987.563	597.49
987.734	853.49
987.904	792.05
988.074	538.1
988.244	673.27
988.414	624.12
988.585	488.95
988.755	548.34
988.925	783.86
989.095	1060.34
989.265	417.27
989.435	603.64
989.605	824.82
989.775	906.74
989.945	714.23
990.115	374.27
990.285	691.7
990.455	777.72
990.625	572.92
990.795	425.47
990.965	1046
991.134	474.62
991.304	404.99
991.474	419.32
991.644	706.04
991.814	1119.73
991.984	222.72
992.153	292.35
992.323	622.07
992.493	644.6
992.662	247.29
992.832	611.83
993.002	695.8
993.171	699.89
993.341	196.09
993.511	605.69
993.68	554.49
993.85	796.15
994.019	318.97
994.189	300.54
994.358	665.08
994.528	486.9
994.697	228.86
994.867	259.58
995.036	964.08
995.206	574.97
995.375	398.84
995.544	419.32
995.714	790
995.883	652.79
996.052	613.88
996.222	128.51
996.391	1082.86
996.56	718.33
996.73	239.1
996.899	214.52
997.068	968.18
997.237	611.83
997.406	255.48
997.576	185.85
997.745	701.94
997.914	765.43
998.083	69.12
998.252	339.45
998.421	660.98
998.59	482.81
998.759	306.68
998.928	95.74
999.097	900.59
999.266	757.24
999.435	499.19
999.604	87.55
999.773	1029.62
999.942	583.16
1000.111	79.36
1000.28	126.46
1000.448	368.12
1000.617	247.29
1000.786	511.48
1000.955	239.1
1001.124	751.09
1001.292	1240.56
1001.461	187.9
1001.63	198.14
1001.798	859.63
1001.967	933.36
1002.136	206.33
1002.304	232.96
1002.473	632.31
1002.642	626.17
1002.81	280.06
1002.979	95.74
1003.147	808.44
1003.316	1127.92
1003.484	251.39
1003.653	216.57
1003.821	859.63
1003.99	511.48
1004.158	474.62
1004.327	302.59
1004.495	710.13
1004.663	359.93
1004.832	345.59
1005	62.98
1005.168	695.8
1005.337	656.89
1005.505	157.18
1005.673	527.86
1005.842	644.6
1006.01	624.12
1006.178	173.57
1006.346	159.23
1006.514	673.27
1006.683	876.02
1006.851	159.23
1007.019	87.55
1007.187	450.04
1007.355	-25.09
1007.523	38.4
1007.691	116.22
1007.859	189.95
1008.027	886.26
1008.195	120.32
1008.363	58.88
1008.531	753.14
1008.699	468.47
1008.867	50.69
1009.035	118.27
1009.203	849.4
1009.37	591.35
1009.538	230.91
1009.706	634.36
1009.874	544.25
1010.042	382.46
1010.209	93.69
1010.377	67.07
1010.545	753.14
1010.713	529.91
1010.88	175.61
1011.048	222.72
1011.216	411.13
1011.383	882.16
1011.551	165.37
1011.718	50.69
1011.886	710.13
1012.054	509.43
1012.221	167.42
1012.389	89.6
1012.556	497.14
1012.724	884.21
1012.891	216.57
1013.058	-6.66
1013.226	615.93
1013.393	669.17
1013.561	-57.86
1013.728	-8.7
1013.895	546.3
1014.063	566.78
1014.23	11.78
1014.397	50.69
1014.565	656.89
1014.732	386.55
1014.899	192
1015.066	34.3
1015.233	568.82
1015.401	615.93
1015.568	171.52
1015.735	206.33
1015.902	544.25
1016.069	527.86
1016.236	189.95
1016.403	71.17
1016.57	159.23
1016.737	620.02
1016.904	81.41
1017.071	-41.47
1017.238	243.2
1017.405	685.56
1017.572	97.79
1017.739	253.44
1017.906	660.98
1018.073	718.33
1018.24	1.54
1018.407	157.18
1018.573	687.61
1018.74	390.65
1018.907	155.13
1019.074	54.78
1019.241	660.98
1019.407	484.86
1019.574	28.16
1019.741	1.54
1019.907	499.19
1020.074	529.91
1020.241	-109.05
1020.407	-27.14
1020.574	515.58
1020.74	583.16
1020.907	159.23
1021.073	26.11
1021.24	955.89
1021.406	796.15
1021.573	30.21
1021.739	114.17
1021.906	693.75
1022.072	402.94
1022.239	-18.94
1022.405	73.21
1022.571	429.56
1022.738	222.72
1022.904	30.21
1023.07	144.89
1023.237	476.66
1023.403	689.65
1023.569	93.69
1023.735	71.17
1023.902	480.76
1024.068	456.19
1024.234	-20.99
1024.4	9.73
1024.566	491
1024.732	589.3
1024.898	7.68
1025.065	-119.29
1025.231	638.45
1025.397	298.49
1025.563	54.78
1025.729	-82.43
1025.895	5.63
1026.061	210.43
1026.227	-180.73
1026.392	44.54
1026.558	617.97
1026.724	460.28
1026.89	-10.75
1027.056	163.33
1027.222	595.45
1027.388	261.63
1027.553	24.06
1027.719	48.64
1027.885	912.88
1028.051	548.34
1028.216	-113.15
1028.382	46.59
1028.548	566.78
1028.713	353.79
1028.879	-90.62
1029.045	153.09
1029.21	687.61
1029.376	544.25
1029.541	69.12
1029.707	73.21
1029.873	536.06
1030.038	554.49
1030.204	48.64
1030.369	116.22
1030.534	624.12
1030.7	228.86
1030.865	34.3
1031.031	-41.47
1031.196	509.43
1031.361	429.56
1031.527	38.4
1031.692	-49.66
1031.857	83.45
1032.023	517.62
1032.188	-41.47
1032.353	91.65
1032.518	656.89
1032.684	443.9
1032.849	-145.92
1033.014	-14.85
1033.179	523.77
1033.344	505.34
1033.509	95.74
1033.674	-23.04
1033.839	552.44
1034.004	413.18
1034.17	-51.71
1034.335	-147.97
1034.5	288.25
1034.664	192
1034.829	-117.25
1034.994	40.45
1035.159	407.03
1035.324	450.04
1035.489	-27.14
1035.654	-61.95
1035.819	738.8
1035.984	415.23
1036.148	19.97
1036.313	28.16
1036.478	609.78
1036.643	359.93
1036.807	30.21
1036.972	-66.05
1037.137	605.69
1037.301	396.79
1037.466	-147.97
1037.631	19.97
1037.795	636.41
1037.96	415.23
1038.124	210.43
1038.289	-133.63
1038.454	505.34
1038.618	484.86
1038.783	58.88
1038.947	112.13
1039.111	353.79
1039.276	302.59
1039.44	-51.71
1039.605	392.7
1039.769	300.54
1039.933	312.83
1040.098	13.82
1040.262	192
1040.426	509.43
1040.591	402.94
1040.755	22.02
1040.919	22.02
1041.083	466.42
1041.248	239.1
1041.412	-160.25
1041.576	-68.09
1041.74	210.43
1041.904	509.43
1042.068	-107.01
1042.232	-59.9
1042.397	589.3
1042.561	495.1
1042.725	-287.23
1042.889	175.61
1043.053	544.25
1043.217	439.8
1043.381	58.88
1043.544	-143.87
1043.708	632.31
1043.872	171.52
1044.036	-342.52
1044.2	-145.92
1044.364	554.49
1044.528	767.48
1044.691	3261.9
1044.855	-150.01
1045.019	497.14
1045.183	366.07
1045.346	-18.94
1045.51	-158.21
1045.674	450.04
1045.837	476.66
1046.001	-35.33
1046.165	-76.29
1046.328	794.1
1046.492	521.72
1046.655	183.81
1046.819	34.3
1046.983	288.25
1047.146	439.8
1047.31	24.06
1047.473	-236.03
1047.636	253.44
1047.8	173.57
1047.963	15.87
1048.127	-170.49
1048.29	161.28
