Data from Ink_Intensity_USB4F045381__110__00110.txt Node

Date: Mon Jul 17 11:07:47 EDT 2023
User: mmckonesweet
Spectrometer: USB4F04538
Trigger mode: 4
Integration Time (sec): 9.000000E-1
Scans to average: 1
Electric dark correction enabled: true
Nonlinearity correction enabled: false
Boxcar width: 0
XAxis mode: Wavelengths
Number of Pixels in Spectrum: 3648
>>>>>Begin Spectral Data<<<<<
345.52	-1025.18
345.736	-1025.18
345.952	-1025.18
346.168	-1100.95
346.384	-959.64
346.6	-111.78
346.816	-187.56
347.032	-222.38
347.248	369.49
347.464	-302.25
347.68	-83.11
347.896	88.92
348.112	357.2
348.328	-103.59
348.544	-97.45
348.76	58.2
348.975	234.32
349.191	-187.56
349.407	-177.32
349.623	33.62
349.839	-25.77
350.055	-195.75
350.27	27.48
350.486	113.49
350.702	316.24
350.918	187.22
351.133	-203.94
351.349	234.32
351.565	387.92
351.781	-226.47
351.996	-76.97
352.212	330.58
352.428	-132.26
352.644	-224.42
352.859	-242.85
353.075	267.09
353.291	41.81
353.506	-11.43
353.722	-304.29
353.938	-64.68
354.153	422.73
354.369	43.86
354.584	-183.46
354.8	219.99
355.016	-289.96
355.231	-244.9
355.447	-132.26
355.662	156.5
355.878	756.55
356.093	-343.21
356.309	23.38
356.524	-130.22
356.74	260.95
356.955	-162.98
357.171	-79.02
357.386	136.02
357.602	-285.86
357.817	-119.98
358.033	-177.32
358.248	373.58
358.464	125.78
358.679	-74.92
358.895	-359.59
359.11	-33.96
359.325	262.99
359.541	43.86
359.756	15.19
359.972	-175.27
360.187	203.6
360.402	-179.37
360.618	-193.7
360.833	1002.31
361.048	207.7
361.264	-171.18
361.479	29.52
361.694	-48.3
361.909	297.81
362.125	-224.42
362.34	-60.59
362.555	291.66
362.77	0.85
362.986	-255.14
363.201	-99.5
363.416	215.89
363.631	140.12
363.847	-179.37
364.062	-154.79
364.277	140.12
364.492	33.62
364.707	-175.27
364.922	-425.12
365.138	303.95
365.353	377.68
365.568	-289.96
365.783	-162.98
365.998	199.51
366.213	557.9
366.428	-218.28
366.643	21.33
366.858	293.71
367.073	174.93
367.288	-93.35
367.503	-318.63
367.718	158.55
367.933	326.48
368.148	-220.33
368.363	-103.59
368.578	-9.39
368.793	457.55
369.008	-158.89
369.223	-181.42
369.438	193.36
369.653	435.02
369.868	-242.85
370.083	-203.94
370.298	95.06
370.513	402.26
370.728	-23.72
370.943	-167.08
371.157	-179.37
371.372	648.01
371.587	-203.94
371.802	-253.09
372.017	95.06
372.232	379.73
372.446	-25.77
372.661	-238.76
372.876	232.27
373.091	166.74
373.306	-126.12
373.52	-238.76
373.735	-154.79
373.95	291.66
374.165	-148.65
374.379	-72.87
374.594	-109.74
374.809	74.58
375.023	29.52
375.238	-249
375.453	252.75
375.667	-218.28
375.882	-128.17
376.097	-240.81
376.311	84.82
376.526	45.91
376.741	-160.94
376.955	164.69
377.17	539.47
377.384	574.28
377.599	-76.97
377.813	-281.77
378.028	600.91
378.242	131.92
378.457	-105.64
378.672	-361.64
378.886	52.05
379.101	11.09
379.315	-363.69
379.53	-93.35
379.744	185.17
379.958	207.7
380.173	-179.37
380.387	-267.43
380.602	174.93
380.816	-148.65
381.031	-257.19
381.245	-183.46
381.459	176.98
381.674	1825.59
381.888	-187.56
382.103	142.16
382.317	-136.36
382.531	516.94
382.746	-9.39
382.96	-111.78
383.174	-93.35
383.388	541.52
383.603	21.33
383.817	-255.14
384.031	203.6
384.246	465.74
384.46	45.91
384.674	332.62
384.888	50
385.103	136.02
385.317	-316.58
385.531	-62.63
385.745	369.49
385.959	361.3
386.174	-119.98
386.388	-259.24
386.602	21.33
386.816	-199.85
387.03	-122.02
387.244	-29.87
387.458	52.05
387.672	381.78
387.887	-296.1
388.101	-236.71
388.315	332.62
388.529	219.99
388.743	-85.16
388.957	-249
389.171	361.3
389.385	-162.98
389.599	-124.07
389.813	33.62
390.027	197.46
390.241	586.57
390.455	-126.12
390.669	-132.26
390.883	-50.35
391.097	453.45
391.311	121.68
391.525	-134.31
391.738	172.88
391.952	226.13
392.166	66.39
392.38	-185.51
392.594	250.71
392.808	279.38
393.022	-171.18
393.236	-169.13
393.449	215.89
393.663	131.92
393.877	-228.52
394.091	-122.02
394.305	-130.22
394.518	-44.2
394.732	-285.86
394.946	-165.03
395.16	482.13
395.373	99.16
395.587	-142.5
395.801	-126.12
396.015	398.16
396.228	195.41
396.442	-208.04
396.656	-363.69
396.869	377.68
397.083	461.65
397.297	-72.87
397.51	-109.74
397.724	340.82
397.938	170.83
398.151	-228.52
398.365	-289.96
398.578	160.59
398.792	426.83
399.005	-44.2
399.219	-85.16
399.433	138.07
399.646	256.85
399.86	0.85
400.073	-27.82
400.287	189.27
400.5	-36.01
400.714	-76.97
400.927	-64.68
401.141	260.95
401.354	1063.75
401.567	158.55
401.781	-253.09
401.994	269.14
402.208	645.96
402.421	-87.21
402.635	-91.31
402.848	107.35
403.061	326.48
403.275	72.53
403.488	-154.79
403.701	422.73
403.915	332.62
404.128	-1.19
404.341	-154.79
404.555	240.47
404.768	39.76
404.981	-11.43
405.195	-97.45
405.408	400.21
405.621	185.17
405.834	2.9
406.048	-171.18
406.261	430.93
406.474	506.7
406.687	-189.61
406.9	29.52
407.114	43.86
407.327	269.14
407.54	-279.72
407.753	-257.19
407.966	-93.35
408.179	170.83
408.392	-220.33
408.605	-249
408.819	252.75
409.032	148.31
409.245	-216.23
409.458	82.77
409.671	185.17
409.884	346.96
410.097	-197.8
410.31	4.95
410.523	201.55
410.736	125.78
410.949	-130.22
411.162	-60.59
411.375	398.16
411.588	387.92
411.801	80.72
412.014	-179.37
412.227	58.2
412.44	-52.39
412.653	-187.56
412.865	-15.53
413.078	265.04
413.291	158.55
413.504	-21.67
413.717	-154.79
413.93	265.04
414.143	-87.21
414.356	-56.49
414.568	-306.34
414.781	342.86
414.994	111.44
415.207	-103.59
415.42	-44.2
415.632	267.09
415.845	543.57
416.058	-259.24
416.271	-214.18
416.483	68.44
416.696	533.33
416.909	-130.22
417.121	-113.83
417.334	252.75
417.547	504.65
417.759	-113.83
417.972	-146.6
418.185	0.85
418.397	308.05
418.61	-236.71
418.823	-179.37
419.035	508.75
419.248	131.92
419.46	-81.07
419.673	-107.69
419.885	265.04
420.098	74.58
420.311	-210.09
420.523	-251.05
420.736	211.79
420.948	68.44
421.161	-144.55
421.373	-335.01
421.586	88.92
421.798	-158.89
422.01	-300.2
422.223	-87.21
422.435	37.72
422.648	193.36
422.86	-212.14
423.073	-113.83
423.285	381.78
423.497	-242.85
423.71	-113.83
423.922	-195.75
424.134	129.88
424.347	484.17
424.559	58.2
424.771	107.35
424.984	84.82
425.196	232.27
425.408	-306.34
425.621	-224.42
425.833	238.42
426.045	336.72
426.257	-177.32
426.47	-122.02
426.682	168.79
426.894	252.75
427.106	-122.02
427.318	-134.31
427.531	-54.44
427.743	222.03
427.955	-103.59
428.167	291.66
428.379	213.84
428.591	4.95
428.804	11.09
429.016	-146.6
429.228	37.72
429.44	246.61
429.652	15.19
429.864	-220.33
430.076	4.95
430.288	25.43
430.5	-68.78
430.712	-66.73
430.924	322.38
431.136	146.26
431.348	-294.05
431.56	-105.64
431.772	82.77
431.984	-38.06
432.196	-134.31
432.408	-117.93
432.62	62.29
432.832	172.88
433.044	80.72
433.256	9.05
433.468	338.77
433.679	-212.14
433.891	-302.25
434.103	47.96
434.315	351.06
434.527	310.1
434.739	-36.01
434.95	-76.97
435.162	267.09
435.374	-83.11
435.586	-62.63
435.798	-162.98
436.009	-181.42
436.221	84.82
436.433	-130.22
436.645	-83.11
436.856	-13.48
437.068	373.58
437.28	-138.41
437.491	213.84
437.703	162.64
437.915	148.31
438.126	-81.07
438.338	90.96
438.55	-23.72
438.761	226.13
438.973	-115.88
439.184	-85.16
439.396	181.07
439.608	320.34
439.819	-218.28
440.031	-42.15
440.242	265.04
440.454	291.66
440.665	-85.16
440.877	-52.39
441.088	158.55
441.3	82.77
441.511	-302.25
441.723	-205.99
441.934	234.32
442.146	82.77
442.357	-23.72
442.569	119.64
442.78	90.96
442.991	514.89
443.203	222.03
443.414	-214.18
443.626	559.95
443.837	-48.3
444.048	-187.56
444.26	-343.21
444.471	154.45
444.682	355.15
444.894	-367.78
445.105	-279.72
445.316	330.58
445.528	308.05
445.739	-5.29
445.95	-109.74
446.161	207.7
446.373	285.52
446.584	-167.08
446.795	-152.74
447.006	295.76
447.217	562
447.429	-269.48
447.64	-171.18
447.851	320.34
448.062	152.4
448.273	-285.86
448.484	-216.23
448.695	287.57
448.907	121.68
449.118	11.09
449.329	66.39
449.54	45.91
449.751	-81.07
449.962	-97.45
450.173	-171.18
450.384	369.49
450.595	541.52
450.806	-105.64
451.017	-128.17
451.228	428.88
451.439	387.92
451.65	-138.41
451.861	-347.3
452.072	-95.4
452.283	125.78
452.494	76.63
452.705	-138.41
452.915	492.37
453.126	254.8
453.337	9.05
453.548	-179.37
453.759	332.62
453.97	576.33
454.181	45.91
454.391	-72.87
454.602	162.64
454.813	338.77
455.024	-40.11
455.235	-117.93
455.445	193.36
455.656	164.69
455.867	156.5
456.078	-95.4
456.288	17.24
456.499	262.99
456.71	-193.7
456.921	166.74
457.131	191.31
457.342	232.27
457.553	-31.91
457.763	-85.16
457.974	283.47
458.184	318.29
458.395	-160.94
458.606	-189.61
458.816	377.68
459.027	576.33
459.237	121.68
459.448	-246.95
459.659	443.21
459.869	672.59
460.08	-232.62
460.29	82.77
460.501	662.35
460.711	17.24
460.922	-271.53
461.132	-87.21
461.343	820.04
461.553	-140.46
461.764	-203.94
461.974	-42.15
462.184	330.58
462.395	226.13
462.605	-72.87
462.816	-122.02
463.026	207.7
463.236	441.17
463.447	-140.46
463.657	-62.63
463.867	355.15
464.078	150.36
464.288	-56.49
464.498	-111.78
464.709	219.99
464.919	236.37
465.129	-58.54
465.339	-171.18
465.55	334.67
465.76	346.96
465.97	-27.82
466.18	-117.93
466.391	326.48
466.601	267.09
466.811	103.25
467.021	-144.55
467.231	344.91
467.441	594.76
467.651	70.48
467.862	-285.86
468.072	189.27
468.282	551.76
468.492	-109.74
468.702	45.91
468.912	262.99
469.122	854.86
469.332	402.26
469.542	-105.64
469.752	467.79
469.962	260.95
470.172	-105.64
470.382	-31.91
470.592	492.37
470.802	605
471.012	148.31
471.222	4.95
471.432	486.22
471.642	420.69
471.852	109.4
472.062	-48.3
472.272	267.09
472.482	-19.63
472.691	-64.68
472.901	-101.55
473.111	314.19
473.321	791.37
473.531	-36.01
473.741	101.2
473.95	514.89
474.16	426.83
474.37	213.84
474.58	-54.44
474.79	707.4
474.999	600.91
475.209	-60.59
475.419	82.77
475.628	256.85
475.838	598.86
476.048	99.16
476.258	0.85
476.467	586.57
476.677	195.41
476.886	328.53
477.096	197.46
477.306	213.84
477.515	576.33
477.725	148.31
477.935	142.16
478.144	684.87
478.354	291.66
478.563	117.59
478.773	109.4
478.982	551.76
479.192	625.48
479.401	248.66
479.611	62.29
479.82	267.09
480.03	424.78
480.239	119.64
480.449	76.63
480.658	783.18
480.868	234.32
481.077	383.82
481.287	240.47
481.496	588.62
481.705	824.14
481.915	461.65
482.124	457.55
482.333	521.04
482.543	824.14
482.752	332.62
482.961	107.35
483.171	713.55
483.38	443.21
483.589	328.53
483.799	183.12
484.008	492.37
484.217	643.92
484.426	240.47
484.636	111.44
484.845	512.85
485.054	275.28
485.263	568.14
485.472	289.62
485.682	953.16
485.891	584.52
486.1	127.83
486.309	275.28
486.518	756.55
486.727	975.69
486.936	246.61
487.146	484.17
487.355	942.92
487.564	402.26
487.773	330.58
487.982	381.78
488.191	469.84
488.4	566.09
488.609	277.33
488.818	400.21
489.027	1186.63
489.236	957.25
489.445	394.06
489.654	260.95
489.863	938.82
490.072	717.64
490.281	738.12
490.49	457.55
490.698	1020.74
490.907	969.54
491.116	484.17
491.325	283.47
491.534	1004.36
491.743	787.27
491.952	514.89
492.16	557.9
492.369	877.38
492.578	955.21
492.787	617.29
492.996	373.58
493.204	643.92
493.413	1164.1
493.622	338.77
493.831	285.52
494.039	1295.17
494.248	541.52
494.457	498.51
494.665	312.14
494.874	934.73
495.083	1215.3
495.291	549.71
495.5	492.37
495.709	1018.69
495.917	914.25
496.126	586.57
496.335	541.52
496.543	813.9
496.752	932.68
496.96	871.24
497.169	340.82
497.377	820.04
497.586	1151.81
497.794	705.35
498.003	379.73
498.211	770.89
498.42	1246.02
498.628	770.89
498.837	541.52
499.045	1033.03
499.254	985.93
499.462	598.86
499.671	615.24
499.879	1401.66
500.087	1143.62
500.296	688.97
500.504	699.21
500.713	1065.8
500.921	1430.34
501.129	680.78
501.338	707.4
501.546	1096.52
501.754	1024.84
501.962	836.42
502.171	594.76
502.379	1059.65
502.587	1467.2
502.795	803.66
503.004	805.71
503.212	971.59
503.42	1401.66
503.628	731.98
503.837	852.81
504.045	1149.76
504.253	1483.58
504.461	631.63
504.669	547.66
504.877	1127.24
505.085	1385.28
505.294	627.53
505.502	967.49
505.71	1133.38
505.918	1315.65
506.126	705.35
506.334	836.42
506.542	1055.56
506.75	1207.11
506.958	901.96
507.166	899.91
507.374	1133.38
507.582	1506.11
507.79	938.82
507.998	793.42
508.206	1336.13
508.414	1248.07
508.622	887.62
508.83	887.62
509.037	1606.46
509.245	1090.37
509.453	844.62
509.661	865.1
509.869	1352.51
510.077	1078.08
510.285	1065.8
510.492	623.44
510.7	1852.22
510.908	1176.39
511.116	889.67
511.324	940.87
511.531	1213.25
511.739	1270.59
511.947	1223.49
512.155	1352.51
512.362	1329.99
512.57	1045.32
512.778	957.25
512.985	820.04
513.193	1530.69
513.401	1688.38
513.608	1110.85
513.816	965.45
514.024	1405.76
514.231	1614.65
514.439	1096.52
514.646	1033.03
514.854	1557.31
515.061	1682.24
515.269	1123.14
515.477	1102.66
515.684	1143.62
515.892	1524.54
516.099	973.64
516.307	910.15
516.514	1715
516.722	1729.34
516.929	1196.87
517.136	1065.8
517.344	1813.31
517.551	1557.31
517.759	1215.3
517.966	1125.19
518.173	1381.18
518.381	1454.91
518.588	1180.48
518.796	1164.1
519.003	1741.63
519.21	1456.96
519.418	1123.14
519.625	1534.78
519.832	1549.12
520.039	1649.47
520.247	1102.66
520.454	1215.3
520.661	1715
520.868	1592.13
521.076	1305.41
521.283	1446.72
521.49	2077.49
521.697	1620.8
521.904	1389.38
522.112	1286.98
522.319	1805.11
522.526	1715
522.733	1155.91
522.94	1411.9
523.147	1604.41
523.354	1833.79
523.561	1162.05
523.768	1473.34
523.975	1954.62
524.183	1696.57
524.39	1508.16
524.597	1252.16
524.804	1729.34
525.011	1440.58
525.218	1358.66
525.425	1409.86
525.632	2104.12
525.838	1612.6
526.045	1477.44
526.252	1424.19
526.459	2804.52
526.666	2581.29
526.873	1477.44
527.08	1459.01
527.287	2046.77
527.494	1995.57
527.701	1381.18
527.907	1432.38
528.114	1942.33
528.321	1745.72
528.528	1553.21
528.735	1428.29
528.941	1749.82
529.148	1614.65
529.355	1643.32
529.562	1512.25
529.768	2306.87
529.975	1880.89
530.182	1553.21
530.388	1569.6
530.595	2089.78
530.802	1555.26
531.008	1823.55
531.215	1676.09
531.422	2384.69
531.628	2642.73
531.835	1712.96
532.042	1829.69
532.248	1778.49
532.455	1983.29
532.661	1749.82
532.868	1762.11
533.074	2157.36
533.281	2396.98
533.487	1755.96
533.694	1710.91
533.9	1778.49
534.107	2120.5
534.313	1639.23
534.52	1643.32
534.726	2343.73
534.933	2648.88
535.139	1696.57
535.345	1729.34
535.552	2145.08
535.758	2186.04
535.965	1854.27
536.171	1776.44
536.377	2308.91
536.584	2560.81
536.79	1796.92
536.996	1872.7
537.203	2274.1
537.409	2470.7
537.615	1848.12
537.821	2061.11
538.028	2347.83
538.234	2319.15
538.44	1903.42
538.646	1954.62
538.853	2339.63
539.059	2261.81
539.265	2325.3
539.471	1827.64
539.677	2472.75
539.883	2188.08
540.09	1987.38
540.296	2433.84
540.502	2409.26
540.708	2106.17
540.914	2261.81
541.12	2138.93
541.326	2491.18
541.532	2360.11
541.738	2286.39
541.944	2128.69
542.15	2612.01
542.356	2358.07
542.562	2067.25
542.768	2149.17
542.974	3081
543.18	3003.18
543.386	2257.71
543.592	1952.57
543.798	2753.32
544.004	2724.65
544.21	2206.52
544.415	2351.92
544.621	2609.97
544.827	2855.72
545.033	2097.97
545.239	2347.83
545.445	2493.23
545.651	2620.21
545.856	2237.24
546.062	2220.85
546.268	2575.15
546.474	2577.2
546.679	2263.86
546.885	2323.25
547.091	2399.02
547.297	3167.01
547.502	2302.77
547.708	2351.92
547.914	2507.57
548.119	2886.44
548.325	2229.04
548.531	2288.43
548.736	3007.27
548.942	2439.98
549.147	2343.73
549.353	2730.8
549.559	3029.8
549.764	2878.25
549.97	2396.98
550.175	2409.26
550.381	2872.11
550.586	2622.25
550.792	2511.66
550.997	2470.7
551.203	3068.71
551.408	2988.84
551.614	2503.47
551.819	2544.43
552.025	3167.01
552.23	3390.24
552.435	2454.32
552.641	2749.23
552.846	2599.73
553.052	3373.86
553.257	2794.28
553.462	2566.96
553.668	2747.18
553.873	3283.75
554.078	2663.21
554.283	2601.77
554.489	3074.85
554.694	3072.81
554.899	2566.96
555.105	2798.38
555.31	3072.81
555.515	3167.01
555.72	2835.24
555.925	2642.73
556.131	3253.03
556.336	3003.18
556.541	2786.09
556.746	2755.37
556.951	3447.58
557.156	3466.02
557.361	2888.49
557.567	2880.3
557.772	3650.33
557.977	3271.46
558.182	2761.52
558.387	2845.48
558.592	2900.78
558.797	3541.79
559.002	3076.9
559.207	3035.94
559.412	3259.17
559.617	3658.53
559.822	2986.79
560.027	2841.39
560.232	3506.98
560.437	3351.33
560.642	2818.86
560.847	2947.88
561.051	3353.38
561.256	3310.37
561.461	3109.67
561.666	2970.41
561.871	3330.85
562.076	3500.83
562.281	2931.5
562.485	2994.98
562.69	3617.57
562.895	3666.72
563.1	3101.48
563.305	2919.21
563.509	3728.16
563.714	4113.17
563.919	3144.49
564.123	3033.9
564.328	3367.71
564.533	3758.88
564.737	3193.64
564.942	3205.92
565.147	3908.38
565.351	3978.01
565.556	3244.84
565.761	3519.26
565.965	3621.66
566.17	3310.37
566.374	3187.49
566.579	3064.61
566.784	3515.17
566.988	3439.39
567.193	3230.5
567.397	3279.65
567.602	3412.77
567.806	3566.37
568.011	3445.54
568.215	3392.29
568.42	3582.75
568.624	3670.81
568.828	3355.43
569.033	3681.05
569.237	3781.4
569.442	4016.92
569.646	3281.7
569.85	3418.91
570.055	3642.14
570.259	3945.24
570.463	3814.17
570.668	3486.5
570.872	3693.34
571.076	3730.2
571.281	3668.77
571.485	3486.5
571.689	3799.84
571.893	3820.32
572.098	3822.36
572.302	3457.82
572.506	3898.14
572.71	3914.52
572.914	3666.72
573.119	3523.36
573.323	4213.53
573.527	4207.38
573.731	3679.01
573.935	3576.61
574.139	4057.88
574.343	3736.35
574.547	3556.13
574.751	3617.57
574.955	4252.44
575.159	4289.3
575.364	3771.16
575.568	3748.64
575.772	3982.1
575.976	4375.31
576.18	3695.39
576.383	3679.01
576.587	4315.92
576.791	4195.09
576.995	3662.62
577.199	3533.6
577.403	4399.89
577.607	4369.17
577.811	3887.9
578.015	3957.53
578.219	4217.62
578.422	4346.64
578.626	3832.6
578.83	4309.78
579.034	4606.74
579.238	4326.16
579.442	3846.94
579.645	4391.7
579.849	4317.97
580.053	4356.88
580.257	3920.67
580.46	4207.38
580.664	4692.75
580.868	4424.47
581.071	4254.48
581.275	4152.09
581.479	4047.64
581.682	4471.57
581.886	3998.49
582.09	4213.53
582.293	4508.43
582.497	4707.09
582.7	4352.79
582.904	4012.82
583.107	4426.51
583.311	4367.12
583.515	4203.29
583.718	4242.2
583.922	4612.88
584.125	4907.79
584.329	4117.27
584.532	4360.98
584.735	4842.25
584.939	4846.35
585.142	4107.03
585.346	4213.53
585.549	4711.18
585.753	4451.09
585.956	4338.45
586.159	4434.71
586.363	5118.73
586.566	4729.61
586.769	4299.54
586.973	4266.77
587.176	4731.66
587.379	4895.5
587.582	4668.17
587.786	4680.46
587.989	4741.9
588.192	5382.92
588.395	4680.46
588.599	4866.83
588.802	4811.53
589.005	4842.25
589.208	4715.28
589.411	4487.95
589.615	5071.62
589.818	5292.8
590.021	4838.16
590.224	4676.37
590.427	5079.82
590.63	5008.14
590.833	4582.16
591.036	4690.7
591.239	4993.8
591.442	4817.68
591.645	4981.51
591.848	4768.52
592.051	5085.96
592.254	5425.92
592.457	4836.11
592.66	4915.98
592.863	5061.38
593.066	5147.4
593.269	4920.07
593.472	4956.94
593.675	4897.55
593.878	5255.94
594.081	5012.23
594.284	4819.72
594.486	5520.13
594.689	5223.17
594.892	5010.18
595.095	5047.05
595.298	5317.38
595.5	5202.69
595.703	5133.06
595.906	5169.93
596.109	5516.03
596.311	5495.55
596.514	4858.64
596.717	5282.56
596.92	5796.6
597.122	5550.85
597.325	4762.38
597.528	5081.86
597.73	5802.75
597.933	5212.93
598.136	5137.16
598.338	5024.52
598.541	5520.13
598.743	5655.3
598.946	5153.54
599.148	5344
599.351	5741.31
599.554	5831.42
599.756	5382.92
599.959	5384.96
600.161	5792.51
600.363	6195.96
600.566	5475.07
600.768	5372.68
600.971	6116.09
601.173	5718.78
601.376	5120.78
601.578	5468.93
601.78	5673.73
601.983	6214.39
602.185	5374.72
602.388	5663.49
602.59	5935.87
602.792	5556.99
602.995	5589.76
603.197	5430.02
603.399	5923.58
603.601	5946.11
603.804	5497.6
604.006	5655.3
604.208	5673.73
604.41	5448.45
604.613	5622.53
604.815	5589.76
605.017	6443.76
605.219	5679.87
605.421	5989.11
605.623	5702.4
605.826	6230.77
606.028	6198.01
606.23	5731.07
606.432	5714.69
606.634	6320.88
606.836	6431.48
607.038	5419.78
607.24	5856
607.442	5987.07
607.644	5980.92
607.846	5970.68
608.048	5632.77
608.25	6228.73
608.452	5896.96
608.654	5903.1
608.856	5411.59
609.058	6111.99
609.26	6173.43
609.462	5982.97
609.664	5980.92
609.866	6613.74
610.067	6333.17
610.269	6279.93
610.471	5880.57
610.673	6273.78
610.875	6378.23
611.077	5948.15
611.278	6071.03
611.48	6187.77
611.682	6722.29
611.884	6048.51
612.085	5882.62
612.287	6161.14
612.489	6435.57
612.69	5884.67
612.892	6095.61
613.094	6679.28
613.295	6433.52
613.497	5962.49
613.699	6083.32
613.9	6587.12
614.102	6515.44
614.304	6204.15
614.505	5743.36
614.707	6335.22
614.908	6284.02
615.11	6208.25
615.311	6300.41
615.513	6511.35
615.714	6697.71
615.916	6136.57
616.117	6183.67
616.319	6572.79
616.52	6497.01
616.722	6179.58
616.923	6202.1
617.124	6922.99
617.326	6595.31
617.527	6411
617.729	6494.96
617.93	6712.05
618.131	6689.52
618.333	6351.6
618.534	6515.44
618.735	6396.66
618.937	6980.33
619.138	6265.59
619.339	6046.46
619.54	6906.6
619.742	6650.61
619.943	6609.65
620.144	6509.3
620.345	6828.78
620.546	7043.82
620.748	6568.69
620.949	6505.2
621.15	6652.66
621.351	6681.33
621.552	6501.11
621.753	6288.12
621.954	6390.52
622.155	7107.3
622.356	6523.63
622.558	6908.65
622.759	6726.38
622.96	7105.26
623.161	6580.98
623.362	6519.54
623.563	6730.48
623.764	6963.95
623.965	6836.97
624.166	6765.29
624.366	6906.6
624.567	6898.41
624.768	6572.79
624.969	6525.68
625.17	6628.08
625.371	6906.6
625.572	6734.57
625.773	6746.86
625.973	7154.41
626.174	7117.54
626.375	6857.45
626.576	6890.22
626.777	7455.46
626.977	7678.69
627.178	6750.96
627.379	7021.29
627.58	7033.58
627.78	7111.4
627.981	6783.73
628.182	6828.78
628.382	7348.97
628.583	6718.19
628.784	6705.9
628.984	7086.83
629.185	7402.21
629.386	7424.74
629.586	7019.24
629.787	6771.44
629.987	7310.05
630.188	7166.7
630.388	6945.52
630.589	7127.78
630.79	7828.19
630.99	7305.96
631.191	7191.27
631.391	7172.84
631.591	7369.44
631.792	7602.91
631.992	7383.78
632.193	7289.57
632.393	7733.98
632.594	7385.83
632.794	7203.56
632.994	7156.46
633.195	7445.22
633.395	7344.87
633.595	7076.59
633.796	7328.49
633.996	7201.51
634.196	7729.89
634.397	7004.91
634.597	7271.14
634.797	7283.43
634.997	8000.22
635.198	7465.7
635.398	7287.53
635.598	7733.98
635.798	7842.53
635.998	7701.22
636.199	7373.54
636.399	7422.69
636.599	7228.14
636.799	7463.65
636.999	7797.47
637.199	7707.36
637.399	8061.66
637.599	7418.6
637.799	7617.25
637.999	7557.86
638.199	7996.12
638.399	7549.67
638.599	7592.67
638.799	7940.83
638.999	8170.2
639.199	7807.71
639.399	7660.26
639.599	8133.34
639.799	7631.58
639.999	7686.88
640.199	7455.46
640.399	8086.23
640.599	7854.81
640.799	7985.88
640.998	7903.96
641.198	8334.04
641.398	7807.71
641.598	7840.48
641.798	7768.8
641.997	8854.22
642.197	7860.96
642.397	8018.65
642.597	7754.46
642.796	8276.7
642.996	8231.64
643.196	7852.77
643.395	7529.19
643.595	8065.75
643.795	7684.83
643.994	7752.42
644.194	7893.72
644.394	8407.77
644.593	8094.43
644.793	7774.94
644.992	8159.96
645.192	8266.46
645.392	7781.09
645.591	8057.56
645.791	7922.4
645.99	8465.11
646.19	8088.28
646.389	7844.57
646.589	8016.6
646.788	8676.05
646.987	8415.96
647.187	8260.31
647.386	8354.52
647.586	8254.17
647.785	8612.56
647.984	8135.39
648.184	8092.38
648.383	8381.14
648.582	8487.64
648.782	8288.98
648.981	8377.05
649.18	8164.06
649.38	8510.16
649.579	8309.46
649.778	8231.64
649.977	8686.29
650.177	8741.58
650.376	8102.62
650.575	8252.12
650.774	8737.49
650.973	8530.64
651.173	8041.18
651.372	8405.72
651.571	8764.11
651.77	8817.36
651.969	8479.44
652.168	8616.66
652.367	8196.82
652.566	8768.21
652.765	8573.65
652.964	8780.5
653.163	9142.99
653.362	8880.85
653.561	8354.52
653.76	8491.73
653.959	8762.06
654.158	8903.37
654.357	8612.56
654.556	8520.4
654.755	8975.05
654.954	9194.19
655.153	8454.87
655.352	8739.54
655.551	9126.6
655.749	8794.83
655.948	8585.94
656.147	8678.1
656.346	9005.77
656.545	8964.81
656.743	8749.78
656.942	8835.79
657.141	8803.02
657.34	8688.34
657.538	8958.67
657.737	8510.16
657.936	8897.23
658.135	9001.68
658.333	8653.52
658.532	8819.41
658.731	9308.87
658.929	9226.95
659.128	9075.4
659.326	8608.47
659.525	9562.82
659.724	9077.45
659.922	8602.32
660.121	8864.46
660.319	9171.66
660.518	8827.6
660.716	8704.72
660.915	8725.2
661.113	9425.61
661.312	8897.23
661.51	9163.47
661.709	8798.93
661.907	9290.44
662.105	9444.04
662.304	9192.14
662.502	9048.78
662.701	9681.6
662.899	9093.83
663.097	9327.3
663.296	8985.29
663.494	9761.47
663.692	9593.54
663.891	8999.63
664.089	8891.09
664.287	9372.36
664.485	9691.84
664.684	9171.66
664.882	9355.97
665.08	9294.54
665.278	9411.27
665.476	9210.57
665.675	9470.66
665.873	9939.65
666.071	9706.18
666.269	9267.91
666.467	9347.78
666.665	9433.8
666.863	9267.91
667.061	9532.1
667.259	9290.44
667.457	9519.81
667.655	9636.55
667.853	9194.19
668.051	9237.19
668.249	9210.57
668.447	9568.96
668.645	9192.14
668.843	9695.94
669.041	9763.52
669.239	9470.66
669.437	9335.49
669.635	9521.86
669.833	9593.54
670.031	9622.21
670.229	9437.89
670.426	9439.94
670.624	9405.13
670.822	9415.37
671.02	9411.27
671.218	9337.54
671.415	9503.43
671.613	9781.95
671.811	9448.13
672.009	9347.78
672.206	9972.41
672.404	9700.03
672.602	9466.56
672.799	9495.24
672.997	9822.91
673.195	10009.28
673.392	9618.11
673.59	9298.63
673.788	9769.66
673.985	8966.86
674.183	9415.37
674.38	9517.76
674.578	9753.28
674.775	9401.03
674.973	9378.5
675.17	9560.77
675.368	10136.25
675.565	9945.79
675.763	9837.25
675.96	9386.69
676.158	10027.71
676.355	9472.71
676.553	9534.15
676.75	9720.51
676.947	9628.35
677.145	9630.4
677.342	9589.44
677.539	9626.31
677.737	9839.3
677.934	10238.65
678.131	9761.47
678.329	9679.55
678.526	10336.95
678.723	10072.76
678.92	9751.23
679.118	9708.23
679.315	9441.99
679.512	10025.66
679.709	9712.32
679.906	9859.77
680.104	10095.29
680.301	9966.27
680.498	9441.99
680.695	9757.38
680.892	9810.62
681.089	9820.86
681.286	9632.45
681.483	9695.94
681.68	10160.83
681.877	10138.3
682.075	9640.64
682.272	9642.69
682.469	10011.32
682.665	9788.1
682.862	9626.31
683.059	9556.68
683.256	10062.52
683.453	10103.48
683.65	9831.1
683.847	10083
684.044	10013.37
684.241	9693.89
684.438	9960.13
684.635	9538.24
684.831	10431.16
685.028	10529.46
685.225	9753.28
685.422	9790.14
685.619	10224.31
685.815	10128.06
686.012	9751.23
686.209	9759.42
686.405	9745.09
686.602	10175.16
686.799	9380.55
686.996	9734.85
687.192	9587.4
687.389	10527.41
687.586	9740.99
687.782	9882.3
687.979	10371.77
688.175	10169.02
688.372	10074.81
688.568	9800.38
688.765	10136.25
688.962	10427.06
689.158	9919.17
689.355	9827.01
689.551	10169.02
689.748	9861.82
689.944	9984.7
690.14	9583.3
690.337	10105.53
690.533	10158.78
690.73	9835.2
690.926	9917.12
691.123	10248.89
691.319	9888.45
691.515	9740.99
691.712	9876.16
691.908	10216.12
692.104	9980.61
692.301	9945.79
692.497	9683.65
692.693	10183.35
692.889	10398.39
693.086	10080.96
693.282	9841.34
693.478	10113.72
693.674	10357.43
693.87	10029.76
694.067	9781.95
694.263	10138.3
694.459	10119.87
694.655	10195.64
694.851	10031.8
695.047	10416.82
695.243	10250.94
695.439	10015.42
695.635	9919.17
695.831	10341.05
696.027	10197.69
696.224	10083
696.42	10273.46
696.615	10672.82
696.811	10394.29
697.007	9679.55
697.203	9732.8
697.399	10257.08
697.595	10425.01
697.791	9880.25
697.987	9994.94
698.183	10064.57
698.379	10154.68
698.575	9919.17
698.77	9964.22
698.966	10369.72
699.162	10511.03
699.358	10134.2
699.554	10035.9
699.749	10371.77
699.945	10400.44
700.141	10228.41
700.337	10179.26
700.532	10160.83
700.728	10046.14
700.924	9962.17
701.119	9892.54
701.315	10257.08
701.511	10363.58
701.706	10232.51
701.902	9812.67
702.097	10328.76
702.293	10232.51
702.489	10056.38
702.684	10146.49
702.88	10238.65
703.075	10146.49
703.271	10113.72
703.466	9888.45
703.662	10023.61
703.857	10527.41
704.053	9921.21
704.248	9970.37
704.443	10648.24
704.639	10574.52
704.834	9966.27
705.03	10173.11
705.225	10619.57
705.42	10580.66
705.616	10414.77
705.811	9771.71
706.006	10359.48
706.202	10386.1
706.397	10283.7
706.592	9925.31
706.787	10439.35
706.983	10537.65
707.178	10298.04
707.373	10150.59
707.568	10457.78
707.763	10795.7
707.959	10162.87
708.154	10072.76
708.349	10474.17
708.544	10306.23
708.739	10365.62
708.934	10052.28
709.129	10576.56
709.324	10551.99
709.519	10289.85
709.714	9999.04
709.909	10681.01
710.104	10453.69
710.299	10289.85
710.494	10263.22
710.689	10582.71
710.884	10531.51
711.079	10289.85
711.274	10302.14
711.469	10601.14
711.664	10685.11
711.859	10105.53
712.054	10373.82
712.249	10474.17
712.443	10607.28
712.638	10134.2
712.833	10134.2
713.028	10506.93
713.223	10474.17
713.417	10410.68
713.612	10191.55
713.807	10707.63
714.002	11002.54
714.196	10529.46
714.391	10068.67
714.586	10595
714.78	10547.89
714.975	10371.77
715.17	10162.87
715.364	10531.51
715.559	10711.73
715.754	9775.81
715.948	10203.83
716.143	10947.25
716.337	10478.26
716.532	10455.73
716.726	10379.96
716.921	10406.58
717.115	10785.46
717.31	10181.31
717.504	10799.79
717.699	10414.77
717.893	10564.28
718.088	9982.65
718.282	10234.55
718.476	10787.5
718.671	10412.73
718.865	10113.72
719.059	10357.43
719.254	10277.56
719.448	10777.26
719.642	11389.61
719.837	9913.02
720.031	10654.39
720.225	10814.13
720.419	10281.66
720.614	10146.49
720.808	10703.54
721.002	10304.18
721.196	9974.46
721.39	10052.28
721.585	10551.99
721.779	10388.15
721.973	10097.34
722.167	9921.21
722.361	10502.84
722.555	10752.69
722.749	10199.74
722.943	10222.27
723.137	10105.53
723.331	10713.78
723.525	10281.66
723.719	10128.06
723.913	10504.89
724.107	10826.42
724.301	10033.85
724.495	10334.9
724.689	10957.49
724.883	11018.93
725.077	10146.49
725.271	10373.82
725.465	10740.4
725.659	10652.34
725.853	10306.23
726.046	10076.86
726.24	10339
726.434	10375.86
726.628	10265.27
726.822	10259.13
727.015	10807.98
727.209	10939.05
727.403	10465.97
727.596	10056.38
727.79	10824.37
727.984	10730.16
728.177	10326.71
728.371	10431.16
728.565	10642.1
728.758	10586.8
728.952	10322.62
729.146	10250.94
729.339	10797.74
729.533	10418.87
729.726	10506.93
729.92	10386.1
730.113	10842.8
730.307	10740.4
730.5	10312.38
730.694	10359.48
730.887	10490.55
731.081	10705.59
731.274	10300.09
731.468	10367.67
731.661	10492.6
731.854	10412.73
732.048	10326.71
732.241	10324.66
732.435	10547.89
732.628	10863.28
732.821	10339
733.014	10250.94
733.208	10400.44
733.401	10861.23
733.594	10431.16
733.788	10222.27
733.981	11193
734.174	10871.47
734.367	10255.03
734.56	10603.19
734.754	10951.34
734.947	10617.52
735.14	10457.78
735.333	10500.79
735.526	11027.12
735.719	10402.49
735.912	10367.67
736.105	10228.41
736.298	10748.59
736.491	10562.23
736.684	10214.07
736.877	10367.67
737.07	10879.66
737.263	10859.18
737.456	10427.06
737.649	10175.16
737.842	10508.98
738.035	10793.65
738.228	10324.66
738.421	10857.14
738.614	11063.98
738.807	10891.95
739	10189.5
739.192	10441.4
739.385	10982.06
739.578	10980.01
739.771	10664.63
739.964	10347.19
740.156	10961.58
740.349	10674.87
740.542	10707.63
740.735	10379.96
740.927	10566.32
741.12	10574.52
741.313	10410.68
741.505	10496.69
741.698	10787.5
741.891	10810.03
742.083	10828.46
742.276	10691.25
742.468	10724.02
742.661	10762.93
742.854	10508.98
743.046	10584.76
743.239	11221.67
743.431	10830.51
743.624	10625.72
743.816	10269.37
744.009	10814.13
744.201	10939.05
744.393	10793.65
744.586	10318.52
744.778	11088.56
744.971	10812.08
745.163	10674.87
745.355	10461.88
745.548	10791.6
745.74	10459.83
745.932	10738.35
746.125	10506.93
746.317	11342.5
746.509	10750.64
746.702	10586.8
746.894	10609.33
747.086	11041.45
747.278	11154.09
747.471	10568.37
747.663	10693.3
747.855	10764.98
748.047	11209.39
748.239	10474.17
748.431	10515.12
748.623	11176.62
748.815	11076.27
749.008	10549.94
749.2	10429.11
749.392	10900.14
749.584	10810.03
749.776	10666.67
749.968	10900.14
750.16	11526.82
750.352	10945.2
750.544	10511.03
750.736	10371.77
750.928	11045.55
751.12	10584.76
751.311	10468.02
751.503	10580.66
751.695	10873.52
751.887	10781.36
752.079	10291.9
752.271	10414.77
752.463	11455.14
752.654	10953.39
752.846	10912.43
753.038	10455.73
753.23	10705.59
753.421	10969.77
753.613	10531.51
753.805	11072.17
753.997	11150
754.188	10775.22
754.38	10242.75
754.572	10547.89
754.763	10961.58
754.955	10771.12
755.146	10861.23
755.338	10482.36
755.53	10846.9
755.721	10734.26
755.913	10269.37
756.104	10322.62
756.296	10818.22
756.487	10885.81
756.679	10562.23
756.87	10500.79
757.062	10242.75
757.253	11025.07
757.445	10414.77
757.636	10642.1
757.827	11006.64
758.019	11360.94
758.21	10216.12
758.401	10420.92
758.593	11238.06
758.784	10881.71
758.975	10496.69
759.167	10404.53
759.358	10678.96
759.549	10842.8
759.74	10504.89
759.932	10531.51
760.123	11047.6
760.314	10590.9
760.505	10441.4
760.696	10406.58
760.888	10941.1
761.079	10599.09
761.27	10306.23
761.461	10281.66
761.652	11123.37
761.843	10470.07
762.034	10379.96
762.225	10635.96
762.416	10635.96
762.607	10711.73
762.798	10347.19
762.989	10269.37
763.18	11324.07
763.371	10726.07
763.562	10322.62
763.753	10255.03
763.944	10953.39
764.135	10744.5
764.326	10355.38
764.517	10367.67
764.708	10816.18
764.899	10726.07
765.089	10355.38
765.28	10128.06
765.471	10625.72
765.662	10635.96
765.853	10201.79
766.043	10121.91
766.234	10867.38
766.425	10595
766.615	10185.4
766.806	10230.46
766.997	10793.65
767.187	10511.03
767.378	10263.22
767.569	10144.44
767.759	10545.84
767.95	10574.52
768.141	10361.53
768.331	10148.54
768.522	10545.84
768.712	10558.13
768.903	10347.19
769.093	10089.15
769.284	10664.63
769.474	10390.2
769.665	10050.24
769.855	10085.05
770.046	10523.32
770.236	10242.75
770.426	10416.82
770.617	10085.05
770.807	10742.45
770.998	10408.63
771.188	10244.79
771.378	9996.99
771.569	10797.74
771.759	10629.81
771.949	9831.1
772.139	9915.07
772.33	10375.86
772.52	10597.04
772.71	9931.45
772.9	9941.69
773.09	10611.38
773.281	10807.98
773.471	9962.17
773.661	10103.48
773.851	10449.59
774.041	10027.71
774.231	9773.76
774.421	10195.64
774.611	10535.6
774.802	10437.3
774.992	10083
775.182	10040
775.372	10212.03
775.562	10420.92
775.752	10152.63
775.942	10095.29
776.131	10638
776.321	10128.06
776.511	9861.82
776.701	9865.92
776.891	10568.37
777.081	10017.47
777.271	9994.94
777.461	10003.13
777.651	10248.89
777.84	10240.7
778.03	9792.19
778.22	9839.3
778.41	10486.45
778.599	10158.78
778.789	9994.94
778.979	9968.32
779.169	10244.79
779.358	10072.76
779.548	10074.81
779.738	9876.16
779.927	10123.96
780.117	9839.3
780.307	9689.79
780.496	9485
780.686	10117.82
780.875	10269.37
781.065	9833.15
781.254	9812.67
781.444	9986.75
781.633	10001.08
781.823	9712.32
782.012	9773.76
782.202	9730.75
782.391	9951.93
782.581	9740.99
782.77	9786.05
782.96	10242.75
783.149	9773.76
783.338	9605.83
783.528	9595.59
783.717	10013.37
783.906	10363.58
784.096	9642.69
784.285	9712.32
784.474	9831.1
784.663	9908.93
784.853	9673.41
785.042	9712.32
785.231	9839.3
785.42	10056.38
785.61	9730.75
785.799	9642.69
785.988	9865.92
786.177	9712.32
786.366	9710.27
786.555	9986.75
786.744	10048.19
786.933	9978.56
787.122	9499.33
787.312	9452.23
787.501	9693.89
787.69	9872.06
787.879	9489.09
788.068	9644.74
788.257	9611.97
788.445	9767.62
788.634	9642.69
788.823	9540.29
789.012	10400.44
789.201	9992.89
789.39	9554.63
789.579	9265.86
789.768	9798.34
789.957	9722.56
790.145	9650.88
790.334	9292.49
790.523	9745.09
790.712	9962.17
790.9	9593.54
791.089	9208.52
791.278	9966.27
791.467	9763.52
791.655	9788.1
791.844	10150.59
792.033	9419.46
792.221	9714.37
792.41	9450.18
792.599	9212.62
792.787	9753.28
792.976	9769.66
793.164	9329.35
793.353	9329.35
793.541	9958.08
793.73	9753.28
793.918	9730.75
794.107	9286.34
794.295	9579.2
794.484	9691.84
794.672	9454.28
794.861	9427.65
795.049	9757.38
795.238	10060.48
795.426	9454.28
795.614	9478.85
795.803	9634.5
795.991	9943.74
796.179	9528
796.368	9155.27
796.556	9890.49
796.744	9341.64
796.932	9355.97
797.121	9089.74
797.309	9667.27
797.497	9888.45
797.685	9464.52
797.874	9282.25
798.062	9415.37
798.25	9847.49
798.438	9343.69
798.626	9513.67
798.814	9679.55
799.002	10212.03
799.19	9482.95
799.378	9398.98
799.566	9728.7
799.755	9913.02
799.943	9523.91
800.131	9290.44
800.318	9732.8
800.506	9781.95
800.694	9335.49
800.882	9433.8
801.07	10185.4
801.258	9675.46
801.446	9405.13
801.634	9276.1
801.822	9767.62
802.01	9822.91
802.197	9573.06
802.385	9493.19
802.573	9773.76
802.761	9405.13
802.949	9468.61
803.136	9233.1
803.324	9863.87
803.512	9616.07
803.699	9605.83
803.887	9435.85
804.075	10054.33
804.262	9677.51
804.45	9491.14
804.638	9691.84
804.825	9478.85
805.013	9697.99
805.201	9534.15
805.388	9405.13
805.576	9947.84
805.763	10519.22
805.951	9595.59
806.138	9650.88
806.326	10408.63
806.513	9958.08
806.701	9745.09
806.888	9333.45
807.075	10138.3
807.263	10224.31
807.45	9552.58
807.638	10040
807.825	10676.91
808.012	10132.15
808.2	9736.9
808.387	9986.75
808.574	10025.66
808.761	10310.33
808.949	9810.62
809.136	10064.57
809.323	9978.56
809.51	10293.94
809.698	9925.31
809.885	10023.61
810.072	10367.67
810.259	10242.75
810.446	9808.58
810.633	9575.11
810.82	10445.49
811.008	10451.64
811.195	10123.96
811.382	10048.19
811.569	10040
811.756	9759.42
811.943	9956.03
812.13	9878.21
812.317	10027.71
812.504	9843.39
812.691	10072.76
812.878	10085.05
813.064	10431.16
813.251	10281.66
813.438	9800.38
813.625	10183.35
813.812	9929.41
813.999	10244.79
814.186	9960.13
814.372	9951.93
814.559	10212.03
814.746	10562.23
814.933	9917.12
815.12	10144.44
815.306	10027.71
815.493	9951.93
815.68	9921.21
815.866	9929.41
816.053	10687.15
816.24	10627.76
816.426	9943.74
816.613	9953.98
816.799	10502.84
816.986	10539.7
817.173	10136.25
817.359	9986.75
817.546	10422.97
817.732	9917.12
817.919	9734.85
818.105	10109.63
818.292	10154.68
818.478	10304.18
818.665	10072.76
818.851	9980.61
819.037	10945.2
819.224	10355.38
819.41	9933.5
819.597	9720.51
819.783	10699.44
819.969	10240.7
820.156	9892.54
820.342	9837.25
820.528	10830.51
820.714	10306.23
820.901	10302.14
821.087	9999.04
821.273	10486.45
821.459	9999.04
821.646	9829.06
821.832	9833.15
822.018	10285.75
822.204	10019.52
822.39	9970.37
822.576	9859.77
822.762	10314.42
822.948	10179.26
823.134	9994.94
823.32	9898.69
823.507	9970.37
823.693	10144.44
823.879	10142.39
824.065	9892.54
824.25	10187.45
824.436	10052.28
824.622	9837.25
824.808	9888.45
824.994	9933.5
825.18	9927.36
825.366	9751.23
825.552	9654.98
825.738	10050.24
825.923	10207.93
826.109	9947.84
826.295	9591.49
826.481	9937.6
826.667	9923.26
826.852	9708.23
827.038	9556.68
827.224	10480.31
827.409	10283.7
827.595	9769.66
827.781	9962.17
827.966	10252.98
828.152	10222.27
828.338	9816.77
828.523	9374.41
828.709	9734.85
828.894	10179.26
829.08	9603.78
829.266	9605.83
829.451	9814.72
829.637	9863.87
829.822	9888.45
830.008	9724.61
830.193	10209.98
830.378	10226.36
830.564	9564.87
830.749	9507.52
830.935	9970.37
831.12	10070.72
831.305	9468.61
831.491	9687.75
831.676	9444.04
831.861	10179.26
832.047	9444.04
832.232	9423.56
832.417	10029.76
832.602	9839.3
832.788	9505.48
832.973	9501.38
833.158	9728.7
833.343	9794.24
833.528	9818.82
833.714	9720.51
833.899	9999.04
834.084	10197.69
834.269	9736.9
834.454	9620.16
834.639	9777.86
834.824	9767.62
835.009	9614.02
835.194	9644.74
835.379	9892.54
835.564	10185.4
835.749	9554.63
835.934	9237.19
836.119	9956.03
836.304	9753.28
836.489	9337.54
836.674	9626.31
836.859	9337.54
837.044	9974.46
837.228	9294.54
837.413	9128.65
837.598	9775.81
837.783	9636.55
837.968	9485
838.152	9036.49
838.337	9136.84
838.522	9689.79
838.707	9798.34
838.891	9609.92
839.076	9597.63
839.261	10001.08
839.445	9290.44
839.63	9290.44
839.815	9812.67
839.999	9597.63
840.184	9046.73
840.368	9163.47
840.553	9689.79
840.737	9720.51
840.922	9102.03
841.106	9212.62
841.291	9253.58
841.475	9536.2
841.66	9052.88
841.844	9085.64
842.029	10248.89
842.213	9425.61
842.397	9063.12
842.582	8958.67
842.766	9654.98
842.951	9702.08
843.135	8897.23
843.319	9192.14
843.504	9337.54
843.688	9585.35
843.872	8903.37
844.056	9110.22
844.241	9560.77
844.425	9251.53
844.609	9091.79
844.793	8913.61
844.977	9364.17
845.161	9683.65
845.346	8909.52
845.53	9005.77
845.714	9290.44
845.898	9669.31
846.082	8692.43
846.266	9005.77
846.45	9269.96
846.634	9319.11
846.818	8981.2
847.002	9007.82
847.186	9441.99
847.37	8989.39
847.554	8741.58
847.738	9089.74
847.922	9329.35
848.106	9237.19
848.29	8755.92
848.473	9042.64
848.657	9423.56
848.841	9083.59
849.025	8897.23
849.209	8858.32
849.392	9304.78
849.576	9056.97
849.76	8661.71
849.944	8946.38
850.127	9358.02
850.311	8889.04
850.495	8731.34
850.678	8508.12
850.862	9374.41
851.046	9437.89
851.229	8993.48
851.413	8606.42
851.596	9089.74
851.78	9016.01
851.964	8831.69
852.147	8581.84
852.331	9888.45
852.514	9085.64
852.698	8766.16
852.881	8514.26
853.065	9286.34
853.248	8968.91
853.431	8864.46
853.615	8766.16
853.798	9589.44
853.982	8975.05
854.165	8848.08
854.348	8508.12
854.532	8508.12
854.715	8827.6
854.898	8729.3
855.081	8659.67
855.265	9022.16
855.448	9407.17
855.631	8491.73
855.814	8540.88
855.997	9036.49
856.181	8649.43
856.364	8583.89
856.547	8438.48
856.73	8901.33
856.913	8483.54
857.096	8336.09
857.279	8602.32
857.462	8655.57
857.645	8954.57
857.828	8508.12
858.011	8590.03
858.194	8549.07
858.377	8864.46
858.56	8372.95
858.743	8600.27
858.926	8487.64
859.109	8919.76
859.292	8323.8
859.475	8194.78
859.658	9087.69
859.841	8700.62
860.023	8237.78
860.206	8250.07
860.389	8753.87
860.572	8600.27
860.755	8411.86
860.937	8223.45
861.12	8530.64
861.303	8475.35
861.486	8415.96
861.668	8102.62
861.851	8938.19
862.034	8745.68
862.216	8288.98
862.399	7949.02
862.581	8637.14
862.764	8581.84
862.947	8360.66
863.129	8192.73
863.312	8180.44
863.494	8864.46
863.677	8663.76
863.859	7854.81
864.042	8618.71
864.224	8710.86
864.406	8293.08
864.589	7975.64
864.771	8506.07
864.954	8211.16
865.136	7987.93
865.318	7736.03
865.501	8422.1
865.683	7801.57
865.865	8090.33
866.048	7832.29
866.23	8250.07
866.412	8233.69
866.594	8053.47
866.777	8131.29
866.959	8409.81
867.141	7994.08
867.323	8301.27
867.505	7908.06
867.687	8348.37
867.869	8295.13
868.052	8104.67
868.234	7834.33
868.416	8262.36
868.598	8309.46
868.78	7944.92
868.962	7707.36
869.144	8418
869.326	8307.41
869.508	7740.13
869.69	7875.29
869.872	8188.63
870.054	8479.44
870.236	7801.57
870.417	7838.43
870.599	8092.38
870.781	8483.54
870.963	8106.71
871.145	7842.53
871.327	7891.68
871.508	8268.5
871.69	7750.37
871.872	7940.83
872.054	8141.53
872.235	8217.3
872.417	8016.6
872.599	7785.18
872.78	8628.95
872.962	8123.1
873.144	7770.85
873.325	8153.82
873.507	8413.91
873.689	8221.4
873.87	7654.11
874.052	7930.59
874.233	8088.28
874.415	8338.13
874.596	7809.76
874.778	7713.5
874.959	8106.71
875.141	8413.91
875.322	7822.05
875.503	7705.31
875.685	8061.66
875.866	7871.2
876.048	7838.43
876.229	7793.37
876.41	8123.1
876.592	8434.39
876.773	7893.72
876.954	7729.89
877.136	8522.45
877.317	8225.5
877.498	7736.03
877.679	7873.25
877.86	8135.39
878.042	8141.53
878.223	7932.64
878.404	8393.43
878.585	8170.2
878.766	8721.1
878.947	8196.82
879.128	8178.39
879.309	8659.67
879.49	8514.26
879.672	8086.23
879.853	8106.71
880.034	8176.34
880.215	8297.17
880.396	7944.92
880.576	8278.74
880.757	8196.82
880.938	8710.86
881.119	8055.51
881.3	8108.76
881.481	8303.32
881.662	9142.99
881.843	8155.86
882.023	8217.3
882.204	8487.64
882.385	8418
882.566	8069.85
882.747	8225.5
882.927	8633.04
883.108	8438.48
883.289	8096.47
883.469	8512.21
883.65	8475.35
883.831	8458.96
884.011	8495.83
884.192	8364.76
884.373	8956.62
884.553	8807.12
884.734	8501.97
884.914	8735.44
885.095	9259.72
885.275	9099.98
885.456	8856.27
885.636	8119
885.817	8671.95
885.997	8729.3
886.178	8354.52
886.358	8471.25
886.538	8729.3
886.719	9880.25
886.899	8250.07
887.08	8481.49
887.26	8899.28
887.44	8653.52
887.621	8350.42
887.801	8571.6
887.981	9521.86
888.161	9204.42
888.342	8774.35
888.522	8708.82
888.702	9171.66
888.882	9126.6
889.062	8649.43
889.242	8241.88
889.423	9294.54
889.603	9073.35
889.783	8792.78
889.963	8684.24
890.143	9018.06
890.323	9169.61
890.503	8651.47
890.683	8870.61
890.863	9028.3
891.043	9226.95
891.223	8889.04
891.403	8782.54
891.583	9046.73
891.763	8985.29
891.943	8846.03
892.122	8661.71
892.302	8934.09
892.482	8917.71
892.662	8739.54
892.842	8710.86
893.022	9161.42
893.201	9044.68
893.381	8968.91
893.561	8741.58
893.741	9149.13
893.92	9204.42
894.1	8991.44
894.28	8866.51
894.459	9132.75
894.639	9114.31
894.819	8811.21
894.998	9046.73
895.178	8979.15
895.357	9263.82
895.537	8694.48
895.716	8630.99
895.896	9003.72
896.075	9523.91
896.255	8794.83
896.434	8547.03
896.614	9349.83
896.793	9444.04
896.973	8809.17
897.152	8796.88
897.331	9114.31
897.511	9337.54
897.69	8569.55
897.87	9020.11
898.049	9134.79
898.228	9087.69
898.407	9003.72
898.587	8940.24
898.766	9061.07
898.945	8889.04
899.124	9147.08
899.304	8577.75
899.483	9216.71
899.662	9468.61
899.841	8823.5
900.02	8600.27
900.199	9224.9
900.378	9085.64
900.557	8731.34
900.737	8559.31
900.916	9116.36
901.095	9157.32
901.274	8743.63
901.453	8493.78
901.632	8811.21
901.811	8592.08
901.989	8800.98
902.168	8450.77
902.347	8936.14
902.526	8608.47
902.705	8452.82
902.884	8628.95
903.063	9181.9
903.242	9134.79
903.42	8338.13
903.599	8766.16
903.778	8897.23
903.957	9196.23
904.135	8749.78
904.314	8571.6
904.493	8780.5
904.672	8753.87
904.85	8512.21
905.029	8403.67
905.207	8893.13
905.386	9513.67
905.565	8303.32
905.743	8348.37
905.922	8602.32
906.1	8856.27
906.279	8274.65
906.457	8344.28
906.636	8772.3
906.814	8600.27
906.993	8356.57
907.171	8375
907.35	8774.35
907.528	8897.23
907.707	8504.02
907.885	8071.9
908.063	8800.98
908.242	8223.45
908.42	8143.58
908.598	8024.79
908.777	8630.99
908.955	8471.25
909.133	8319.7
909.311	8065.75
909.49	8288.98
909.668	8495.83
909.846	8137.43
910.024	7957.21
910.202	8411.86
910.38	8493.78
910.559	7977.69
910.737	7981.79
910.915	8389.33
911.093	8463.06
911.271	8159.96
911.449	8200.92
911.627	8536.79
911.805	8581.84
911.983	7842.53
912.161	7887.58
912.339	8321.75
912.517	8405.72
912.695	8024.79
912.872	8016.6
913.05	7944.92
913.228	8149.72
913.406	7811.81
913.584	7906.01
913.762	8370.9
913.939	7979.74
914.117	7795.42
914.295	7543.52
914.473	7942.88
914.65	7989.98
914.828	7711.46
915.006	7645.92
915.184	7738.08
915.361	7996.12
915.539	7613.15
915.716	7824.09
915.894	7953.12
916.072	8045.27
916.249	7815.9
916.427	7629.54
916.604	7594.72
916.782	8053.47
916.959	7447.27
917.137	7459.56
917.314	7858.91
917.492	7883.49
917.669	7668.45
917.847	7389.92
918.024	7738.08
918.201	7520.99
918.379	7508.71
918.556	7385.83
918.733	7817.95
918.911	7590.63
919.088	7553.76
919.265	7363.3
919.442	7613.15
919.62	7365.35
919.797	7142.12
919.974	7101.16
920.151	7682.78
920.328	7428.84
920.506	7189.22
920.683	7383.78
920.86	7111.4
921.037	7383.78
921.214	7295.72
921.391	7031.53
921.568	7412.45
921.745	7006.95
921.922	7052.01
922.099	6859.5
922.276	7576.29
922.453	7289.57
922.63	7123.69
922.807	7271.14
922.984	7299.81
923.161	6900.46
923.338	6882.03
923.514	6793.97
923.691	7117.54
923.868	7066.35
924.045	6603.5
924.222	6683.38
924.399	7138.02
924.575	7271.14
924.752	6701.81
924.929	6757.1
925.105	7107.3
925.282	6824.69
925.459	6834.93
925.635	6597.36
925.812	6802.16
925.989	6761.2
926.165	6685.42
926.342	6374.13
926.518	6417.14
926.695	6517.49
926.871	6472.43
927.048	6380.28
927.224	6771.44
927.401	6386.42
927.577	6359.8
927.754	6267.64
927.93	6877.93
928.107	6681.33
928.283	6155
928.459	6238.97
928.636	6669.04
928.812	6468.34
928.988	6046.46
929.165	5901.05
929.341	6312.69
929.517	6456.05
929.693	6298.36
929.87	5554.94
930.046	6433.52
930.222	6140.66
930.398	5972.73
930.574	6097.66
930.751	6374.13
930.927	5927.67
931.103	6169.34
931.279	5903.1
931.455	5894.91
931.631	5976.83
931.807	5505.79
931.983	5526.27
932.159	5653.25
932.335	5935.87
932.511	5649.15
932.687	5610.24
932.863	5899
933.039	5786.37
933.215	5554.94
933.391	5448.45
933.566	5591.81
933.742	5645.06
933.918	5493.51
934.094	5182.21
934.27	5530.37
934.445	5524.23
934.621	5325.57
934.797	5098.25
934.973	5651.2
935.148	5450.5
935.324	4973.32
935.5	4713.23
935.675	5221.13
935.851	5110.54
936.027	4733.71
936.202	4682.51
936.378	4950.79
936.553	4989.71
936.729	4932.36
936.904	4459.28
937.08	4414.23
937.255	4494.1
937.431	4229.91
937.606	4064.02
937.782	4305.68
937.957	4530.96
938.133	4088.6
938.308	3965.72
938.483	4150.04
938.659	3883.8
938.834	3760.92
939.009	3679.01
939.185	3765.02
939.36	3633.95
939.535	3318.56
939.71	3760.92
939.886	4000.54
940.061	3822.36
940.236	3539.74
940.411	3576.61
940.586	3617.57
940.761	3617.57
940.937	3437.34
941.112	3105.57
941.287	3375.91
941.462	3435.3
941.637	3070.76
941.812	3216.16
941.987	3486.5
942.162	3384.1
942.337	3101.48
942.512	3126.05
942.687	3404.58
942.862	3392.29
943.037	2816.81
943.212	2657.07
943.386	3066.66
943.561	3099.43
943.736	2986.79
943.911	3267.36
944.086	3255.08
944.26	3179.3
944.435	2966.31
944.61	3003.18
944.785	3466.02
944.959	3498.78
945.134	2947.88
945.309	2648.88
945.483	2937.64
945.658	3298.08
945.833	2808.62
946.007	2585.39
946.182	3439.39
946.357	2949.93
946.531	2814.76
946.706	2741.04
946.88	2573.1
947.055	3099.43
947.229	2722.6
947.404	2822.95
947.578	3113.77
947.752	3009.32
947.927	2663.21
948.101	2640.69
948.276	2908.97
948.45	3124.01
948.624	3083.05
948.799	2562.86
948.973	3113.77
949.147	2704.17
949.321	2726.7
949.496	2804.52
949.67	3250.98
949.844	2966.31
950.018	2706.22
950.193	2775.85
950.367	3564.32
950.541	2962.22
950.715	2878.25
950.889	3115.81
951.063	2982.7
951.237	3232.55
951.411	2624.3
951.585	2558.77
951.759	3064.61
951.933	2825
952.107	2802.47
952.281	3023.66
952.455	3527.46
952.629	3201.83
952.803	2808.62
952.977	2792.23
953.151	3203.88
953.325	3097.38
953.499	2949.93
953.672	2712.36
953.846	2691.88
954.02	2851.63
954.194	2648.88
954.368	2853.67
954.541	3236.64
954.715	2849.58
954.889	2974.5
955.062	2638.64
955.236	2896.68
955.41	3013.42
955.583	2925.35
955.757	2587.44
955.93	2902.83
956.104	2749.23
956.278	2761.52
956.451	2810.67
956.625	3097.38
956.798	3277.6
956.972	3048.23
957.145	2706.22
957.319	2784.04
957.492	2919.21
957.665	2882.35
957.839	2616.11
958.012	3064.61
958.185	2900.78
958.359	2855.72
958.532	2812.71
958.705	3081
958.879	3121.96
959.052	2728.75
959.225	2439.98
959.398	2915.11
959.572	3011.37
959.745	2644.78
959.918	2693.93
960.091	2876.2
960.264	2925.35
960.438	2452.27
960.611	2655.02
960.784	3109.67
960.957	2726.7
961.13	3068.71
961.303	2646.83
961.476	2769.71
961.649	3105.57
961.822	2427.7
961.995	2661.16
962.168	2972.46
962.341	2827.05
962.514	2671.4
962.686	2618.16
962.859	2872.11
963.032	2986.79
963.205	2648.88
963.378	2458.42
963.551	2999.08
963.723	2763.56
963.896	2759.47
964.069	2786.09
964.242	2816.81
964.414	3023.66
964.587	2745.13
964.76	2792.23
964.932	2820.91
965.105	2784.04
965.278	2605.87
965.45	2581.29
965.623	2876.2
965.795	3011.37
965.968	2450.22
966.14	2655.02
966.313	2765.61
966.485	2798.38
966.658	2589.49
966.83	2435.89
967.003	3068.71
967.175	2994.98
967.348	2620.21
967.52	2552.62
967.692	3181.35
967.865	2929.45
968.037	2554.67
968.209	2773.8
968.382	2822.95
968.554	2966.31
968.726	2452.27
968.898	2487.09
969.071	2632.49
969.243	2810.67
969.415	2540.33
969.587	2614.06
969.759	3273.51
969.932	2800.43
970.104	2548.53
970.276	2288.43
970.448	2609.97
970.62	2480.94
970.792	2614.06
970.964	2478.9
971.136	3367.71
971.308	2790.19
971.48	2237.24
971.652	2421.55
971.824	3097.38
971.996	2503.47
972.168	2460.46
972.339	2501.42
972.511	2943.78
972.683	2485.04
972.855	2749.23
973.027	2413.36
973.199	2530.09
973.37	2906.92
973.542	2587.44
973.714	2558.77
973.886	2695.98
974.057	2872.11
974.229	2353.97
974.401	2515.76
974.572	2347.83
974.744	2140.98
974.915	2247.48
975.087	2306.87
975.259	2960.17
975.43	2323.25
975.602	2292.53
975.773	2200.37
975.945	2425.65
976.116	2712.36
976.288	2286.39
976.459	2364.21
976.63	2351.92
976.802	2671.4
976.973	2259.76
977.145	2437.94
977.316	2917.16
977.487	3072.81
977.659	2407.22
977.83	2321.2
978.001	3001.13
978.172	2487.09
978.344	2120.5
978.515	2317.11
978.686	2417.46
978.857	2994.98
979.028	2288.43
979.2	2151.22
979.371	2683.69
979.542	2437.94
979.713	2396.98
979.884	1778.49
980.055	2290.48
980.226	2286.39
980.397	2204.47
980.568	2040.63
980.739	2775.85
980.91	2370.35
981.081	2427.7
981.252	2175.8
981.423	2579.25
981.594	2702.12
981.765	2108.21
981.936	2323.25
982.106	2364.21
982.277	2620.21
982.448	2175.8
982.619	2380.59
982.79	2329.39
982.96	2591.53
983.131	2278.19
983.302	1934.14
983.472	2401.07
983.643	2544.43
983.814	2270
983.984	2097.97
984.155	2351.92
984.326	2585.39
984.496	2196.28
984.667	2126.64
984.837	2163.51
985.008	2589.49
985.178	2351.92
985.349	2143.03
985.519	2321.2
985.69	2130.74
985.86	2083.64
986.031	1889.08
986.201	2347.83
986.371	2433.84
986.542	2034.49
986.712	1852.22
986.882	2392.88
987.053	2308.91
987.223	1876.79
987.393	2114.36
987.563	2126.64
987.734	2482.99
987.904	2388.78
988.074	2007.86
988.244	2274.1
988.414	2196.28
988.585	1895.22
988.755	2024.25
988.925	2220.85
989.095	2669.36
989.265	1981.24
989.435	1985.34
989.605	2325.3
989.775	2313.01
989.945	2052.92
990.115	1833.79
990.285	2046.77
990.455	2296.63
990.625	2020.15
990.795	1870.65
990.965	2546.48
991.134	1829.69
991.304	1835.83
991.474	1805.11
991.644	2247.48
991.814	2517.81
991.984	1659.71
992.153	1827.64
992.323	2122.55
992.493	2081.59
992.662	1577.79
992.832	2114.36
993.002	2220.85
993.171	2077.49
993.341	1643.32
993.511	2046.77
993.68	1979.19
993.85	2263.86
994.019	1585.98
994.189	1659.71
994.358	2079.54
994.528	1995.57
994.697	1528.64
994.867	1694.52
995.036	2167.6
995.206	1925.94
995.375	1698.62
995.544	1817.4
995.714	1995.57
995.883	1782.59
996.052	1954.62
996.222	1598.27
996.391	2413.36
996.56	2024.25
996.73	1567.55
996.899	1577.79
997.068	2333.49
997.237	1927.99
997.406	1526.59
997.576	1497.92
997.745	2104.12
997.914	2067.25
998.083	1303.36
998.252	1594.17
998.421	2028.34
998.59	1610.56
998.759	1551.17
998.928	1389.38
999.097	2179.89
999.266	2065.21
999.435	1680.19
999.604	1442.62
999.773	2356.02
999.942	1809.21
1000.111	1342.27
1000.28	1413.95
1000.448	1614.65
1000.617	1647.42
1000.786	1592.13
1000.955	1461.06
1001.124	1841.98
1001.292	2417.46
1001.461	1475.39
1001.63	1456.96
1001.798	2157.36
1001.967	2114.36
1002.136	1256.26
1002.304	1340.22
1002.473	1753.91
1002.642	1872.7
1002.81	1588.03
1002.979	1405.76
1003.147	2011.96
1003.316	2286.39
1003.484	1436.48
1003.653	1250.11
1003.821	2063.16
1003.99	1762.11
1004.158	1524.54
1004.327	1565.5
1004.495	1825.59
1004.663	1512.25
1004.832	1493.82
1005	1313.6
1005.168	1733.43
1005.337	1712.96
1005.505	1123.14
1005.673	1643.32
1005.842	1809.21
1006.01	1784.63
1006.178	1219.39
1006.346	1389.38
1006.514	1747.77
1006.683	1884.98
1006.851	1217.35
1007.019	1174.34
1007.187	1491.77
1007.355	1110.85
1007.523	1246.02
1007.691	1164.1
1007.859	1311.55
1008.027	1889.08
1008.195	1190.72
1008.363	1262.4
1008.531	1755.96
1008.699	1434.43
1008.867	1104.71
1009.035	1198.92
1009.203	1866.55
1009.37	1651.52
1009.538	1262.4
1009.706	1581.89
1009.874	1540.93
1010.042	1469.25
1010.209	1073.99
1010.377	1092.42
1010.545	1655.61
1010.713	1688.38
1010.88	1076.04
1011.048	1282.88
1011.216	1442.62
1011.383	1801.02
1011.551	965.45
1011.718	1147.72
1011.886	1801.02
1012.054	1551.17
1012.221	1131.33
1012.389	1098.56
1012.556	1389.38
1012.724	1901.37
1012.891	1274.69
1013.058	994.12
1013.226	1596.22
1013.393	1657.66
1013.561	947.01
1013.728	914.25
1013.895	1573.69
1014.063	1534.78
1014.23	934.73
1014.397	1123.14
1014.565	1680.19
1014.732	1383.23
1014.899	1008.45
1015.066	969.54
1015.233	1454.91
1015.401	1542.97
1015.568	1151.81
1015.735	1186.63
1015.902	1356.61
1016.069	1522.49
1016.236	983.88
1016.403	885.58
1016.57	1178.44
1016.737	1618.75
1016.904	1030.98
1017.071	1071.94
1017.238	1243.97
1017.405	1565.5
1017.572	1049.41
1017.739	1125.19
1017.906	1426.24
1018.073	1434.43
1018.24	828.23
1018.407	1026.89
1018.573	1481.53
1018.74	1184.58
1018.907	1010.5
1019.074	787.27
1019.241	1577.79
1019.407	1401.66
1019.574	871.24
1019.741	822.09
1019.907	1344.32
1020.074	1409.86
1020.241	654.16
1020.407	828.23
1020.574	1280.83
1020.74	1397.57
1020.907	930.63
1021.073	734.03
1021.24	1897.27
1021.406	1520.45
1021.573	695.11
1021.739	873.29
1021.906	1420.1
1022.072	1028.93
1022.239	889.67
1022.405	926.54
1022.571	1203.01
1022.738	1088.32
1022.904	906.06
1023.07	838.47
1023.237	1151.81
1023.403	1364.8
1023.569	797.51
1023.735	883.53
1023.902	1235.78
1024.068	1174.34
1024.234	658.25
1024.4	746.31
1024.566	1278.79
1024.732	1286.98
1024.898	863.05
1025.065	697.16
1025.231	1305.41
1025.397	971.59
1025.563	729.93
1025.729	670.54
1025.895	686.92
1026.061	877.38
1026.227	566.09
1026.392	727.88
1026.558	1377.09
1026.724	1239.87
1026.89	627.53
1027.056	754.51
1027.222	1219.39
1027.388	1024.84
1027.553	676.68
1027.719	717.64
1027.885	1418.05
1028.051	1266.5
1028.216	525.13
1028.382	721.74
1028.548	1338.18
1028.713	959.3
1028.879	633.68
1029.045	871.24
1029.21	1258.31
1029.376	1368.9
1029.541	705.35
1029.707	777.03
1029.873	1157.96
1030.038	1231.68
1030.204	680.78
1030.369	666.44
1030.534	1219.39
1030.7	1004.36
1030.865	660.3
1031.031	602.96
1031.196	1149.76
1031.361	1006.41
1031.527	627.53
1031.692	527.18
1031.857	615.24
1032.023	1176.39
1032.188	605
1032.353	705.35
1032.518	1358.66
1032.684	998.21
1032.849	500.56
1033.014	633.68
1033.179	1147.72
1033.344	1037.13
1033.509	598.86
1033.674	535.37
1033.839	1049.41
1034.004	1018.69
1034.17	551.76
1034.335	414.54
1034.5	863.05
1034.664	797.51
1034.829	508.75
1034.994	611.15
1035.159	1012.55
1035.324	942.92
1035.489	480.08
1035.654	510.8
1035.819	1166.15
1035.984	971.59
1036.148	512.85
1036.313	521.04
1036.478	1198.92
1036.643	879.43
1036.807	373.58
1036.972	371.54
1037.137	1160
1037.301	932.68
1037.466	279.38
1037.631	656.2
1037.795	1129.28
1037.96	893.77
1038.124	693.07
1038.289	361.3
1038.454	977.73
1038.618	873.29
1038.783	482.13
1038.947	668.49
1039.111	895.82
1039.276	779.08
1039.44	365.39
1039.605	863.05
1039.769	770.89
1039.933	848.71
1040.098	559.95
1040.262	691.02
1040.426	992.07
1040.591	965.45
1040.755	318.29
1040.919	443.21
1041.083	879.43
1041.248	738.12
1041.412	232.27
1041.576	344.91
1041.74	774.99
1041.904	967.49
1042.068	361.3
1042.232	504.65
1042.397	926.54
1042.561	877.38
1042.725	281.43
1042.889	508.75
1043.053	926.54
1043.217	889.67
1043.381	537.42
1043.544	322.38
1043.708	1094.47
1043.872	492.37
1044.036	168.79
1044.2	308.05
1044.364	992.07
1044.528	1176.39
1044.691	3390.24
1044.855	224.08
1045.019	1006.41
1045.183	920.39
1045.346	328.53
1045.51	267.09
1045.674	805.71
1045.837	957.25
1046.001	451.41
1046.165	242.51
1046.328	1268.55
1046.492	807.75
1046.655	533.33
1046.819	344.91
1046.983	617.29
1047.146	793.42
1047.31	473.93
1047.473	193.36
1047.636	635.72
1047.8	572.24
1047.963	306
1048.127	316.24
1048.29	512.85
