Data from Ink_Intensity_USB4F045381__10__00010.txt Node

Date: Mon Jul 17 09:33:09 EDT 2023
User: mmckonesweet
Spectrometer: USB4F04538
Trigger mode: 4
Integration Time (sec): 9.000000E-1
Scans to average: 1
Electric dark correction enabled: true
Nonlinearity correction enabled: false
Boxcar width: 0
XAxis mode: Wavelengths
Number of Pixels in Spectrum: 3648
>>>>>Begin Spectral Data<<<<<
345.52	-941.72
345.736	-941.72
345.952	-941.72
346.168	-870.05
346.384	-939.68
346.6	-134.82
346.816	-179.88
347.032	-85.67
347.248	186.71
347.464	-226.98
347.68	-73.39
347.896	45.4
348.112	411.98
348.328	-5.8
348.544	-169.64
348.76	-67.24
348.975	299.34
349.191	-204.46
349.407	-112.3
349.623	43.35
349.839	-30.38
350.055	-18.09
350.27	135.51
350.486	180.56
350.702	526.67
350.918	325.97
351.133	-118.44
351.349	217.43
351.565	391.5
351.781	-75.43
351.996	86.36
352.212	291.15
352.428	-108.2
352.644	-104.11
352.859	-198.31
353.075	309.58
353.291	51.54
353.506	-106.15
353.722	-61.1
353.938	-73.39
354.153	545.1
354.369	198.99
354.584	-42.67
354.8	325.97
355.016	-286.37
355.231	-100.01
355.447	35.16
355.662	160.08
355.878	878.92
356.093	-294.57
356.309	2.39
356.524	-229.03
356.74	217.43
356.955	-91.82
357.171	63.83
357.386	194.9
357.602	-259.75
357.817	14.68
358.033	-77.48
358.248	395.6
358.464	182.61
358.679	-73.39
358.895	-200.36
359.11	31.06
359.325	403.79
359.541	274.77
359.756	115.03
359.972	-222.89
360.187	168.27
360.402	-159.4
360.618	-69.29
360.833	921.93
361.048	166.23
361.264	-100.01
361.479	100.69
361.694	-28.33
361.909	244.05
362.125	-93.87
362.34	2.39
362.555	344.4
362.77	102.74
362.986	-200.36
363.201	-16.04
363.416	182.61
363.631	22.87
363.847	-9.9
364.062	-91.82
364.277	260.43
364.492	184.66
364.707	8.53
364.922	-300.71
365.138	346.45
365.353	366.93
365.568	-192.17
365.783	-79.53
365.998	96.6
366.213	698.7
366.428	-136.87
366.643	82.26
366.858	377.17
367.073	239.95
367.288	37.2
367.503	-179.88
367.718	104.79
367.933	391.5
368.148	-208.55
368.363	57.68
368.578	102.74
368.793	477.52
369.008	-63.15
369.223	-11.95
369.438	266.58
369.653	524.62
369.868	-116.39
370.083	-104.11
370.298	172.37
370.513	368.98
370.728	205.14
370.943	-124.58
371.157	-93.87
371.372	579.92
371.587	-179.88
371.802	-81.58
372.017	33.11
372.232	479.57
372.446	110.93
372.661	-167.59
372.876	280.91
373.091	233.81
373.306	61.78
373.52	-128.68
373.735	-61.1
373.95	393.55
374.165	59.73
374.379	-16.04
374.594	33.11
374.809	145.75
375.023	184.66
375.238	-112.3
375.453	332.11
375.667	-81.58
375.882	104.79
376.097	-20.14
376.311	108.88
376.526	127.32
376.741	-67.24
376.955	129.36
377.17	643.4
377.384	571.72
377.599	-7.85
377.813	-71.34
378.028	680.27
378.242	149.84
378.457	53.59
378.672	-75.43
378.886	190.8
379.101	63.83
379.315	-192.17
379.53	-1.71
379.744	282.96
379.958	258.39
380.173	51.54
380.387	2.39
380.602	203.09
380.816	12.63
381.031	-44.71
381.245	69.97
381.459	364.88
381.674	764.23
381.888	-24.23
382.103	235.86
382.317	-40.62
382.531	618.83
382.746	137.56
382.96	2.39
383.174	-22.19
383.388	573.77
383.603	198.99
383.817	-75.43
384.031	352.59
384.246	606.54
384.46	166.23
384.674	422.22
384.888	160.08
385.103	235.86
385.317	-75.43
385.531	84.31
385.745	418.13
385.959	422.22
386.174	-87.72
386.388	-46.76
386.602	84.31
386.816	-13.99
387.03	86.36
387.244	125.27
387.458	176.47
387.672	526.67
387.887	-42.67
388.101	-155.3
388.315	534.86
388.529	358.74
388.743	198.99
388.957	-57
389.171	385.36
389.385	39.25
389.599	127.32
389.813	303.44
390.027	305.49
390.241	778.57
390.455	121.17
390.669	201.04
390.883	55.64
391.097	569.68
391.311	203.09
391.525	74.07
391.738	305.49
391.952	295.25
392.166	160.08
392.38	74.07
392.594	481.61
392.808	498
393.022	141.65
393.236	106.84
393.449	319.82
393.663	325.97
393.877	121.17
394.091	207.19
394.305	72.02
394.518	90.45
394.732	-61.1
394.946	145.75
395.16	631.12
395.373	366.93
395.587	106.84
395.801	86.36
396.015	534.86
396.228	383.31
396.442	49.49
396.656	-52.91
396.869	563.53
397.083	657.74
397.297	264.53
397.51	209.23
397.724	639.31
397.938	328.02
398.151	53.59
398.365	33.11
398.578	454.99
398.792	624.97
399.005	309.58
399.219	250.19
399.433	356.69
399.646	407.89
399.86	229.71
400.073	287.06
400.287	383.31
400.5	198.99
400.714	285.01
400.927	242
401.141	520.53
401.354	1280.32
401.567	500.05
401.781	112.98
401.994	551.24
402.208	846.15
402.421	217.43
402.635	127.32
402.848	391.5
403.061	541.01
403.275	289.1
403.488	98.64
403.701	813.38
403.915	500.05
404.128	315.73
404.341	153.94
404.555	463.18
404.768	309.58
404.981	368.98
405.195	205.14
405.408	803.15
405.621	395.6
405.834	411.98
406.048	143.7
406.261	682.31
406.474	784.71
406.687	209.23
406.9	346.45
407.114	395.6
407.327	461.13
407.54	102.74
407.753	127.32
407.966	121.17
408.179	553.29
408.392	88.4
408.605	162.13
408.819	573.77
409.032	446.8
409.245	244.05
409.458	487.76
409.671	561.48
409.884	651.6
410.097	78.16
410.31	465.23
410.523	577.87
410.736	424.27
410.949	422.22
411.162	252.24
411.375	815.43
411.588	676.17
411.801	512.33
412.014	297.3
412.227	426.32
412.44	330.06
412.653	248.15
412.865	416.08
413.078	637.26
413.291	561.48
413.504	360.78
413.717	233.81
413.93	686.41
414.143	354.64
414.356	364.88
414.568	119.12
414.781	768.33
414.994	553.29
415.207	469.33
415.42	424.27
415.632	770.38
415.845	940.36
416.058	262.48
416.271	309.58
416.483	526.67
416.696	883.02
416.909	338.26
417.121	389.46
417.334	721.23
417.547	989.51
417.759	418.13
417.972	430.41
418.185	422.22
418.397	758.09
418.61	387.41
418.823	348.5
419.035	915.78
419.248	567.63
419.46	467.28
419.673	502.09
419.885	764.23
420.098	526.67
420.311	420.17
420.523	235.86
420.736	801.1
420.948	643.4
421.161	393.55
421.373	229.71
421.586	622.92
421.798	469.33
422.01	342.35
422.223	612.68
422.435	512.33
422.648	721.23
422.86	461.13
423.073	530.77
423.285	930.12
423.497	407.89
423.71	481.61
423.922	375.12
424.134	833.86
424.347	1003.85
424.559	657.74
424.771	876.87
424.984	567.63
425.196	821.58
425.408	332.11
425.621	434.51
425.833	1003.85
426.045	1038.66
426.257	463.18
426.47	475.47
426.682	876.87
426.894	885.06
427.106	594.25
427.318	657.74
427.531	684.36
427.743	915.78
427.955	502.09
428.167	977.22
428.379	903.5
428.591	745.8
428.804	690.51
429.016	483.66
429.228	594.25
429.44	897.35
429.652	803.15
429.864	409.94
430.076	768.33
430.288	741.71
430.5	764.23
430.712	821.58
430.924	1122.63
431.136	809.29
431.348	498
431.56	670.03
431.772	870.73
431.984	811.34
432.196	586.06
432.408	727.37
432.62	817.48
432.832	1042.76
433.044	987.46
433.256	858.44
433.468	1063.24
433.679	608.59
433.891	635.21
434.103	944.45
434.315	1241.41
434.527	1210.69
434.739	813.38
434.95	809.29
435.162	1163.59
435.374	835.91
435.586	858.44
435.798	829.77
436.009	764.23
436.221	950.6
436.433	870.73
436.645	831.82
436.856	792.91
437.068	1237.31
437.28	866.63
437.491	1159.49
437.703	1091.91
437.915	1040.71
438.126	975.17
438.338	1104.2
438.55	1040.71
438.761	1218.88
438.973	940.36
439.184	969.03
439.396	1083.72
439.608	1409.34
439.819	829.77
440.031	1179.97
440.242	1251.65
440.454	1239.36
440.665	1005.89
440.877	1151.3
441.088	1247.55
441.3	1012.04
441.511	903.5
441.723	887.11
441.934	1270.08
442.146	1177.92
442.357	1102.15
442.569	1225.03
442.78	1220.93
442.991	1585.47
443.203	1304.9
443.414	928.07
443.626	1532.22
443.837	1087.81
444.048	926.02
444.26	915.78
444.471	1337.66
444.682	1501.5
444.894	1030.47
445.105	911.69
445.316	1478.97
445.528	1286.47
445.739	1194.31
445.95	1149.25
446.161	1368.38
446.373	1474.88
446.584	1251.65
446.795	1132.87
447.006	1468.73
447.217	1665.34
447.429	999.75
447.64	1032.52
447.851	1513.79
448.062	1397.06
448.273	883.02
448.484	1235.27
448.695	1374.53
448.907	1294.66
449.118	1339.71
449.329	1384.77
449.54	1282.37
449.751	1188.16
449.962	1286.47
450.173	1229.12
450.384	1675.58
450.595	1724.73
450.806	1311.04
451.017	1380.67
451.228	1837.37
451.439	1679.68
451.65	1485.12
451.861	1085.76
452.072	1302.85
452.283	1413.44
452.494	1491.26
452.705	1376.58
452.915	1923.38
453.126	1597.76
453.337	1433.92
453.548	1337.66
453.759	1751.35
453.97	2158.9
454.181	1630.52
454.391	1413.44
454.602	1714.49
454.813	1655.1
455.024	1567.04
455.235	1491.26
455.445	1749.31
455.656	1691.96
455.867	1667.39
456.078	1501.5
456.288	1497.41
456.499	1818.94
456.71	1452.35
456.921	1874.23
457.131	1900.86
457.342	1749.31
457.553	1628.48
457.763	1640.76
457.974	1913.14
458.184	1923.38
458.395	1630.52
458.606	1685.82
458.816	2038.07
459.027	2361.65
459.237	1775.93
459.448	1589.57
459.659	2218.29
459.869	2500.91
460.08	1589.57
460.29	2040.12
460.501	2476.34
460.711	1917.24
460.922	1665.34
461.132	1960.25
461.343	2531.63
461.553	1921.34
461.764	1898.81
461.974	1884.47
462.184	2363.7
462.395	2126.13
462.605	2050.36
462.816	2036.02
463.026	2195.76
463.236	2494.77
463.447	1886.52
463.657	1984.82
463.867	2509.1
464.078	2349.36
464.288	2203.96
464.498	2183.48
464.709	2308.4
464.919	2382.13
465.129	2240.82
465.339	2185.52
465.55	2638.13
465.76	2650.41
465.97	2234.68
466.18	2421.04
466.391	2732.33
466.601	2670.89
466.811	2464.05
467.021	2404.66
467.231	2724.14
467.441	2971.94
467.651	2611.5
467.862	2240.82
468.072	2820.39
468.282	3010.86
468.492	2631.98
468.702	2611.5
468.912	2898.22
469.122	3508.51
469.332	2959.66
469.542	2713.9
469.752	3166.5
469.962	3064.1
470.172	2750.76
470.382	2877.74
470.592	3252.52
470.802	3387.68
471.012	3037.48
471.222	2984.23
471.432	3518.75
471.642	3471.65
471.852	3148.07
472.062	3121.45
472.272	3244.32
472.482	3012.9
472.691	3199.27
472.901	3113.25
473.111	3545.38
473.321	4036.89
473.531	3352.87
473.741	3381.54
473.95	3627.29
474.16	3854.62
474.37	3604.77
474.58	3612.96
474.79	4192.53
474.999	4116.76
475.209	3606.81
475.419	3664.16
475.628	3926.3
475.838	4190.49
476.048	3830.04
476.258	3670.3
476.467	4450.58
476.677	4028.7
476.886	4348.18
477.096	4276.5
477.306	4217.11
477.515	4507.92
477.725	4131.09
477.935	4192.53
478.144	4509.97
478.354	4301.08
478.563	4413.71
478.773	4419.86
478.982	4780.3
479.192	4978.95
479.401	4700.43
479.611	4616.46
479.82	4706.57
480.03	5198.09
480.239	4735.25
480.449	4808.97
480.658	5460.23
480.868	4915.47
481.077	5048.58
481.287	4968.71
481.496	5304.58
481.705	5622.02
481.915	5378.31
482.124	5423.36
482.333	5439.75
482.543	5640.45
482.752	5374.21
482.961	5353.73
483.171	5875.96
483.38	5576.96
483.589	5517.57
483.799	5390.6
484.008	5671.17
484.217	5980.41
484.426	5599.49
484.636	5517.57
484.845	6035.71
485.054	5599.49
485.263	6136.06
485.472	6043.9
485.682	6482.16
485.891	6054.14
486.1	5716.22
486.309	5931.26
486.518	6299.89
486.727	6457.59
486.936	6131.96
487.146	6467.83
487.355	6682.86
487.564	6099.19
487.773	6615.28
487.982	6371.57
488.191	6602.99
488.4	6680.82
488.609	6623.47
488.818	6547.7
489.027	7389.41
489.236	7194.86
489.445	6969.58
489.654	6660.34
489.863	7223.53
490.072	7223.53
490.281	7319.78
490.49	7033.07
490.698	7502.05
490.907	7448.8
491.116	7309.54
491.325	6930.67
491.534	7788.77
491.743	7633.12
491.952	7467.24
492.16	7295.21
492.369	7526.63
492.578	7942.36
492.787	7479.52
492.996	7315.69
493.204	7557.35
493.413	8315.09
493.622	7379.17
493.831	7715.04
494.039	8411.35
494.248	7735.52
494.457	7743.71
494.665	7770.33
494.874	8261.85
495.083	8667.35
495.291	8085.72
495.5	7895.26
495.709	8394.97
495.917	8460.5
496.126	8145.11
496.335	8038.62
496.543	8229.08
496.752	8419.54
496.96	8505.56
497.169	8218.84
497.377	8466.64
497.586	8825.04
497.794	8515.8
498.003	8253.66
498.211	8546.51
498.42	9214.15
498.628	8706.26
498.837	8624.34
499.045	8927.44
499.254	8851.66
499.462	8610
499.671	8773.84
499.879	9238.73
500.087	8972.49
500.296	8935.63
500.504	8968.4
500.713	9248.97
500.921	9849.02
501.129	8894.67
501.338	9066.7
501.546	9353.41
501.754	9451.72
501.962	9060.56
502.171	9009.36
502.379	9799.87
502.587	9771.2
502.795	9453.77
503.004	9466.05
503.212	9603.27
503.42	9935.04
503.628	9578.69
503.837	9582.79
504.045	9902.27
504.253	10213.56
504.461	9781.44
504.669	9515.2
504.877	10004.67
505.085	10309.82
505.294	9853.12
505.502	9812.16
505.71	10115.26
505.918	10172.6
506.126	9789.63
506.334	9838.78
506.542	10098.88
506.75	10262.71
506.958	10086.59
507.166	9801.92
507.374	10227.9
507.582	10653.87
507.79	10354.87
507.998	10012.86
508.206	10637.49
508.414	10412.21
508.622	10252.47
508.83	10041.53
509.037	10784.94
509.245	10365.11
509.453	10475.7
509.661	10090.68
509.869	10733.75
510.077	10387.64
510.285	10621.11
510.492	10170.55
510.7	11307.18
510.908	10832.05
511.116	10533.04
511.324	10510.52
511.531	10733.75
511.739	11030.7
511.947	10842.29
512.155	11026.61
512.362	10918.06
512.57	10657.97
512.778	10752.18
512.985	10741.94
513.193	11423.91
513.401	11714.72
513.608	11036.84
513.816	10811.57
514.024	11253.93
514.231	11456.68
514.439	10789.04
514.646	11135.15
514.854	11356.33
515.061	11518.12
515.269	11106.48
515.477	11040.94
515.684	11212.97
515.892	11876.51
516.099	11305.13
516.307	11161.77
516.514	11575.46
516.722	12066.97
516.929	11448.49
517.136	11319.46
517.344	11946.14
517.551	11815.07
517.759	11298.98
517.966	11731.11
518.173	11681.96
518.381	12058.78
518.588	11798.69
518.796	11708.58
519.003	12138.65
519.21	12087.45
519.418	11907.23
519.625	11923.62
519.832	12040.35
520.039	12257.43
520.247	11684
520.454	12042.4
520.661	12406.94
520.868	12112.03
521.076	12152.99
521.283	12048.54
521.49	12742.8
521.697	12478.61
521.904	12292.25
522.112	12021.92
522.319	12527.77
522.526	12466.33
522.733	12437.66
522.94	12388.5
523.147	12705.94
523.354	12998.8
523.561	12230.81
523.768	12529.81
523.975	13119.63
524.183	12890.26
524.39	12939.41
524.597	12433.56
524.804	12894.35
525.011	12869.78
525.218	12714.13
525.425	12900.5
525.632	13445.26
525.838	12845.2
526.045	12712.08
526.252	12701.84
526.459	14106.75
526.666	13699.2
526.873	13021.33
527.08	13064.33
527.287	13854.85
527.494	13320.33
527.701	13185.16
527.907	13017.23
528.114	13557.89
528.321	13404.3
528.528	13252.75
528.735	13312.14
528.941	13588.61
529.148	13250.7
529.355	13527.17
529.562	12912.78
529.768	13924.48
529.975	13654.15
530.182	13666.44
530.388	13574.28
530.595	13977.73
530.802	13447.3
531.008	13934.72
531.215	13836.42
531.422	14493.82
531.628	14827.64
531.835	13895.81
532.042	13942.91
532.248	13947.01
532.455	14243.96
532.661	14106.75
532.868	14213.24
533.074	14110.85
533.281	14739.57
533.487	14372.99
533.694	14194.81
533.9	14139.52
534.107	14819.44
534.313	14114.94
534.52	14102.65
534.726	14721.14
534.933	15079.54
535.139	14178.43
535.345	14514.3
535.552	14915.7
535.758	15104.11
535.965	14446.71
536.171	14446.71
536.377	15018.1
536.584	15188.08
536.79	14815.35
536.996	14856.31
537.203	15087.73
537.409	15028.34
537.615	14913.65
537.821	14798.96
538.028	15280.24
538.234	15319.15
538.44	15001.71
538.646	14825.59
538.853	15429.74
539.059	14942.32
539.265	15472.75
539.471	15159.41
539.677	15622.25
539.883	15351.92
540.09	15396.97
540.296	15605.86
540.502	15564.9
540.708	15472.75
540.914	15659.11
541.12	15274.09
541.326	15560.81
541.532	15730.79
541.738	15501.42
541.944	15566.95
542.15	16095.33
542.356	16097.38
542.562	15663.21
542.768	15976.55
542.974	16339.04
543.18	16429.15
543.386	16003.17
543.592	15931.49
543.798	16412.76
544.004	16601.18
544.21	16048.22
544.415	16007.27
544.621	16390.24
544.827	16531.55
545.033	16230.49
545.239	16445.53
545.445	16529.5
545.651	16455.77
545.856	16171.1
546.062	16560.22
546.268	16732.25
546.474	16722.01
546.679	16377.95
546.885	16382.04
547.091	16722.01
547.297	17090.64
547.502	16445.53
547.708	16363.61
547.914	16261.21
548.119	16926.8
548.325	16367.71
548.531	16234.59
548.736	17371.21
548.942	16838.74
549.147	16709.72
549.353	17145.94
549.559	17242.19
549.764	16939.09
549.97	16726.1
550.175	16799.83
550.381	17166.42
550.586	17031.25
550.792	17023.06
550.997	16820.31
551.203	17047.63
551.408	17348.68
551.614	17047.63
551.819	17348.68
552.025	17961.03
552.23	17588.3
552.435	17139.79
552.641	17774.66
552.846	17629.26
553.052	18053.19
553.257	17803.33
553.462	17639.5
553.668	17731.65
553.873	18106.43
554.078	17893.44
554.283	17729.61
554.489	17870.92
554.694	18161.73
554.899	17764.42
555.105	18059.33
555.31	18026.56
555.515	18180.16
555.72	18004.03
555.925	17711.18
556.131	18221.12
556.336	17907.78
556.541	18077.76
556.746	17987.65
556.951	18427.96
557.156	18812.98
557.361	17829.96
557.567	18337.85
557.772	18784.31
557.977	18470.97
558.182	18118.72
558.387	18274.37
558.592	18534.46
558.797	18663.48
559.002	18419.77
559.207	18698.3
559.412	18493.5
559.617	18958.39
559.822	18690.1
560.027	18698.3
560.232	18880.57
560.437	18851.89
560.642	18251.84
560.847	18774.07
561.051	18739.26
561.256	18690.1
561.461	18839.61
561.666	18649.14
561.871	19116.08
562.076	19271.73
562.281	18655.29
562.485	18432.06
562.69	19124.27
562.895	19253.3
563.1	18821.17
563.305	18901.04
563.509	19343.41
563.714	19658.79
563.919	19040.31
564.123	19042.35
564.328	19318.83
564.533	19916.84
564.737	18806.84
564.942	18903.09
565.147	20025.38
565.351	20107.3
565.556	19343.41
565.761	19441.71
565.965	19191.86
566.17	19107.89
566.374	19034.16
566.579	19114.03
566.784	19365.93
566.988	19544.11
567.193	19335.21
567.397	19441.71
567.602	19585.07
567.806	19435.56
568.011	19431.47
568.215	19898.41
568.42	19779.62
568.624	19777.58
568.828	19425.32
569.033	19836.97
569.237	20314.14
569.442	20295.71
569.646	19394.61
569.85	19480.62
570.055	20068.39
570.259	20015.14
570.463	20060.2
570.668	19761.19
570.872	19812.39
571.076	20037.67
571.281	19988.52
571.485	19998.76
571.689	20234.27
571.893	20387.87
572.098	20185.12
572.302	20029.48
572.506	20342.81
572.71	20408.35
572.914	20031.52
573.119	20375.58
573.323	21000.21
573.527	20449.31
573.731	20299.81
573.935	20346.91
574.139	20729.88
574.343	20480.03
574.547	20607
574.751	20545.56
574.955	20830.23
575.159	20881.43
575.364	20303.9
575.568	20463.65
575.772	20834.33
575.976	21211.15
576.18	20359.2
576.383	20437.02
576.587	21393.42
576.791	21188.63
576.995	20414.49
577.199	20693.02
577.403	21133.33
577.607	21389.33
577.811	20826.14
578.015	20957.21
578.219	21215.25
578.422	21254.16
578.626	21239.83
578.83	21362.7
579.034	21712.91
579.238	21516.3
579.442	21405.71
579.645	21678.09
579.849	21409.81
580.053	21678.09
580.257	21184.53
580.46	21104.66
580.664	22001.67
580.868	21641.23
581.071	21739.53
581.275	21553.16
581.479	21196.82
581.682	21819.4
581.886	21465.1
582.09	21452.81
582.293	22255.62
582.497	22073.35
582.7	21993.48
582.904	21753.87
583.107	21983.24
583.311	21579.79
583.515	21573.64
583.718	21831.69
583.922	22128.64
584.125	22401.02
584.329	21547.02
584.532	22097.92
584.735	22466.56
584.939	22175.75
585.142	21526.54
585.346	21731.34
585.549	22423.55
585.753	22632.44
585.956	22171.65
586.159	22544.38
586.363	22689.79
586.566	22777.85
586.769	22163.46
586.973	22183.94
587.176	22743.03
587.379	22648.83
587.582	22857.72
587.786	22560.77
587.989	22734.84
588.192	23189.49
588.395	22573.05
588.599	22634.49
588.802	23025.65
589.005	22738.94
589.208	22673.4
589.411	22646.78
589.615	23169.01
589.818	23568.37
590.021	22761.47
590.224	22665.21
590.427	23005.17
590.63	23107.57
590.833	22964.21
591.036	22767.61
591.239	23189.49
591.442	22857.72
591.645	22941.69
591.848	23279.6
592.051	23623.66
592.254	23640.04
592.457	23148.53
592.66	23523.31
592.863	23576.56
593.066	23244.79
593.269	23291.89
593.472	23273.46
593.675	23668.72
593.878	23664.62
594.081	23406.58
594.284	23408.62
594.486	24106.98
594.689	23486.45
594.892	23015.41
595.095	23443.44
595.298	23650.28
595.5	23998.44
595.703	24070.12
595.906	23762.92
596.109	24049.64
596.311	24496.1
596.514	23422.96
596.717	23955.43
596.92	24535.01
597.122	24420.32
597.325	23928.81
597.528	23885.8
597.73	24864.73
597.933	23988.2
598.136	23857.13
598.338	23855.08
598.541	24612.83
598.743	24655.84
598.946	23949.29
599.148	24377.31
599.351	24219.62
599.554	24997.85
599.756	24403.94
599.959	24672.22
600.161	24883.16
600.363	24831.96
600.566	24403.94
600.768	24356.83
600.971	24946.65
601.173	24760.28
601.376	24193
601.578	24791
601.78	25008.09
601.983	25530.32
602.185	24467.42
602.388	24963.03
602.59	24729.56
602.792	24702.94
602.995	24809.43
603.197	24436.7
603.399	25042.9
603.601	24756.19
603.804	24645.6
604.006	24661.98
604.208	24762.33
604.41	24522.72
604.613	24920.03
604.815	24836.06
605.017	25944.01
605.219	24948.7
605.421	25110.49
605.623	25276.37
605.826	25970.63
606.028	25548.75
606.23	25171.93
606.432	24780.76
606.634	25894.86
606.836	25618.38
607.038	25602
607.24	25163.73
607.442	25335.76
607.644	25448.4
607.846	25284.56
608.048	25325.52
608.25	25907.15
608.452	25264.08
608.654	25286.61
608.856	24834.01
609.058	25657.29
609.26	25546.7
609.462	25657.29
609.664	25389.01
609.866	25909.19
610.067	25919.43
610.269	25550.8
610.471	25298.9
610.673	25579.47
610.875	26066.89
611.077	25642.96
611.278	25743.31
611.48	25866.19
611.682	26042.31
611.884	25745.36
612.085	25552.85
612.287	25812.94
612.489	25745.36
612.69	25266.13
612.892	25472.98
613.094	26169.29
613.295	25669.58
613.497	25565.14
613.699	25247.7
613.9	25903.05
614.102	25991.11
614.304	25262.04
614.505	25278.42
614.707	25688.01
614.908	25550.8
615.11	25747.4
615.311	25700.3
615.513	25851.85
615.714	26077.13
615.916	25718.73
616.117	25780.17
616.319	26066.89
616.52	25905.1
616.722	26048.46
616.923	25733.07
617.124	26249.16
617.326	25886.67
617.527	25890.76
617.729	26157
617.93	26535.87
618.131	26279.88
618.333	26062.79
618.534	25718.73
618.735	25849.8
618.937	26689.47
619.138	25472.98
619.339	25665.49
619.54	26464.19
619.742	25970.63
619.943	25999.3
620.144	25888.71
620.345	26253.25
620.546	26277.83
620.748	26111.94
620.949	26603.46
621.15	26073.03
621.351	26001.35
621.552	26109.89
621.753	25769.93
621.954	26142.66
622.155	26402.75
622.356	26361.8
622.558	26240.96
622.759	26177.48
622.96	26765.24
623.161	25993.16
623.362	26394.56
623.563	26865.6
623.764	26677.18
623.965	25972.68
624.166	26556.35
624.366	26537.92
624.567	26613.7
624.768	25843.66
624.969	26148.81
625.17	26681.28
625.371	26861.5
625.572	26449.86
625.773	26085.32
625.973	26922.94
626.174	26605.5
626.375	26834.88
626.576	26668.99
626.777	26967.99
626.977	27101.11
627.178	26410.95
627.379	26681.28
627.58	26660.8
627.78	26851.26
627.981	26386.37
628.182	26412.99
628.382	26877.88
628.583	26523.58
628.784	26607.55
628.984	26314.69
629.185	27119.54
629.386	26613.7
629.586	26654.65
629.787	26617.79
629.987	26589.12
630.188	26820.54
630.388	26578.88
630.589	26789.82
630.79	27738.03
630.99	26922.94
631.191	27068.34
631.391	27187.13
631.591	27215.8
631.792	27686.83
631.992	26877.88
632.193	26785.72
632.393	27371.44
632.594	27066.3
632.794	26927.03
632.994	27185.08
633.195	27064.25
633.395	26963.9
633.595	26580.93
633.796	27301.81
633.996	27316.15
634.196	27936.68
634.397	27092.92
634.597	27105.21
634.797	27162.55
634.997	27723.69
635.198	27262.9
635.398	26781.63
635.598	27316.15
635.798	27721.65
635.998	27414.45
636.199	26863.55
636.399	27305.91
636.599	27047.86
636.799	27209.65
636.999	27197.37
637.199	27819.95
637.399	27662.26
637.599	26865.6
637.799	27559.86
637.999	27520.95
638.199	28086.18
638.399	27137.98
638.599	27807.66
638.799	27899.82
638.999	28452.77
639.199	27912.11
639.399	27744.17
639.599	28317.61
639.799	27500.47
639.999	27475.89
640.199	27396.02
640.399	27811.76
640.599	26910.65
640.799	27930.54
640.998	27723.69
641.198	28106.66
641.398	27787.18
641.598	27629.49
641.798	27750.32
641.997	28905.37
642.197	27713.45
642.397	28028.84
642.597	27744.17
642.796	28098.47
642.996	28198.82
643.196	27815.85
643.395	27488.18
643.595	27873.2
643.795	27383.73
643.994	27674.54
644.194	27649.97
644.394	28301.22
644.593	27944.87
644.793	28114.86
644.992	28110.76
645.192	27981.74
645.392	27760.56
645.591	28053.42
645.791	28133.29
645.99	28391.33
646.19	28456.87
646.389	28540.83
646.589	28342.18
646.788	28516.26
646.987	28395.43
647.187	28440.48
647.386	28278.69
647.586	28231.59
647.785	28786.59
647.984	28135.34
648.184	28270.5
648.383	28254.12
648.582	28252.07
648.782	28503.97
648.981	28286.89
649.18	28473.25
649.38	29058.97
649.579	28118.95
649.778	28471.2
649.977	28657.57
650.177	28518.31
650.376	28422.05
650.575	28284.84
650.774	29116.31
650.973	28426.15
651.173	28286.89
651.372	28424.1
651.571	28483.49
651.77	28676
651.969	28561.31
652.168	28542.88
652.367	28641.18
652.566	28766.11
652.765	28415.91
652.964	28743.58
653.163	28948.38
653.362	28913.56
653.561	28319.65
653.76	28784.54
653.959	28622.75
654.158	29171.61
654.357	28741.53
654.556	28565.41
654.755	28856.22
654.954	28960.67
655.153	28573.6
655.352	29085.59
655.551	28884.89
655.749	28733.34
655.948	28954.52
656.147	28901.28
656.346	29331.35
656.545	28954.52
656.743	28632.99
656.942	28960.67
657.141	28958.62
657.34	29040.54
657.538	28907.42
657.737	29388.69
657.936	29183.9
658.135	29319.06
658.333	28907.42
658.532	28934.04
658.731	29556.63
658.929	29376.41
659.128	29208.47
659.326	28817.31
659.525	30025.61
659.724	29095.83
659.922	28923.8
660.121	28790.69
660.319	29298.58
660.518	28962.72
660.716	28977.05
660.915	29132.7
661.113	30134.15
661.312	29061.02
661.51	29235.1
661.709	29034.39
661.907	29306.77
662.105	29843.34
662.304	29079.45
662.502	29069.21
662.701	29599.63
662.899	29306.77
663.097	29269.91
663.296	29093.79
663.494	29790.09
663.692	29308.82
663.891	28970.91
664.089	28622.75
664.287	29425.56
664.485	29564.82
664.684	29001.63
664.882	29362.07
665.08	29405.08
665.278	30007.18
665.476	29116.31
665.675	29431.7
665.873	29796.24
666.071	29728.66
666.269	29220.76
666.467	29165.46
666.665	29274.01
666.863	29136.79
667.061	29360.02
667.259	29339.54
667.457	29556.63
667.655	29849.49
667.853	29067.16
668.051	29294.49
668.249	29171.61
668.447	29581.2
668.645	29140.89
668.843	29583.25
669.041	29964.17
669.239	29611.92
669.437	29484.95
669.635	29364.12
669.833	29269.91
670.031	29845.39
670.229	29097.88
670.426	29216.66
670.624	29187.99
670.822	29165.46
671.02	29165.46
671.218	29140.89
671.415	28798.88
671.613	28907.42
671.811	29081.5
672.009	29441.94
672.206	29990.8
672.404	29556.63
672.602	29546.39
672.799	29376.41
672.997	29605.78
673.195	29667.22
673.392	29480.85
673.59	29034.39
673.788	29474.71
673.985	28747.68
674.183	29513.62
674.38	29349.78
674.578	29210.52
674.775	29132.7
674.973	29144.98
675.17	28897.18
675.368	29628.31
675.565	29630.35
675.763	29296.53
675.96	28620.7
676.158	29452.18
676.355	28825.5
676.553	29108.12
676.75	29284.25
676.947	29226.9
677.145	28997.53
677.342	29333.4
677.539	29214.62
677.737	29079.45
677.934	29577.11
678.131	29224.86
678.329	29179.8
678.526	29665.17
678.723	29364.12
678.92	29114.27
679.118	29073.31
679.315	28817.31
679.512	29319.06
679.709	29323.16
679.906	29034.39
680.104	29409.17
680.301	29364.12
680.498	28725.15
680.695	29042.59
680.892	28686.24
681.089	28764.06
681.286	28915.61
681.483	28272.55
681.68	28888.99
681.877	28876.7
682.075	28587.94
682.272	29171.61
682.469	29179.8
682.665	28966.81
682.862	28925.85
683.059	28678.05
683.256	29181.85
683.453	29112.22
683.65	28858.27
683.847	29255.57
684.044	28987.29
684.241	28708.77
684.438	29333.4
684.635	28977.05
684.831	29394.84
685.028	29431.7
685.225	28829.6
685.422	28757.92
685.619	28807.07
685.815	29073.31
686.012	28536.74
686.209	28151.72
686.405	28262.31
686.602	28911.52
686.799	28149.67
686.996	28237.73
687.192	28108.71
687.389	28780.45
687.586	27991.98
687.782	28546.98
687.979	29165.46
688.175	29101.98
688.372	28331.94
688.568	28336.04
688.765	28438.44
688.962	28759.97
689.158	28428.2
689.355	28104.62
689.551	28667.81
689.748	28129.19
689.944	28342.18
690.14	28370.85
690.337	28598.18
690.533	29046.68
690.73	28477.35
690.926	28710.82
691.123	28514.21
691.319	28682.14
691.515	28121
691.712	28557.22
691.908	28424.1
692.104	28583.84
692.301	28049.32
692.497	27975.59
692.693	28635.04
692.889	28671.9
693.086	28737.44
693.282	27981.74
693.478	28532.64
693.674	28624.8
693.87	28192.68
694.067	27774.89
694.263	28184.49
694.459	28211.11
694.655	27807.66
694.851	28258.21
695.047	28450.72
695.243	28258.21
695.439	27738.03
695.635	27862.96
695.831	28473.25
696.027	28331.94
696.224	27797.42
696.42	28241.83
696.615	28948.38
696.811	28323.75
697.007	27938.73
697.203	28067.75
697.399	28473.25
697.595	28485.54
697.791	28022.7
697.987	28004.27
698.183	27756.46
698.379	27617.2
698.575	27991.98
698.77	28155.82
698.966	28084.14
699.162	28456.87
699.358	28051.37
699.554	27647.92
699.749	28600.22
699.945	28166.06
700.141	28018.6
700.337	27799.47
700.532	27918.25
700.728	28143.53
700.924	27967.4
701.119	27393.97
701.315	27563.95
701.511	27617.2
701.706	27811.76
701.902	27092.92
702.097	27310
702.293	27879.34
702.489	27660.21
702.684	27342.77
702.88	27629.49
703.075	27535.28
703.271	27408.31
703.466	27430.83
703.662	27998.12
703.857	28026.79
704.053	27727.79
704.248	27883.44
704.443	27654.06
704.639	27680.69
704.834	27295.67
705.03	27451.31
705.225	27891.63
705.42	28028.84
705.616	27795.37
705.811	27047.86
706.006	27537.33
706.202	27518.9
706.397	27404.21
706.592	27430.83
706.787	27541.43
706.983	27717.55
707.178	28422.05
707.373	27742.13
707.568	27674.54
707.763	27928.49
707.959	27670.45
708.154	27709.36
708.349	27387.83
708.544	27375.54
708.739	27353.01
708.934	27340.72
709.129	27621.3
709.324	27621.3
709.519	27447.22
709.714	27070.39
709.909	27715.5
710.104	27252.66
710.299	26951.61
710.494	27639.73
710.689	27662.26
710.884	27316.15
711.079	27226.04
711.274	27062.2
711.469	27441.07
711.664	27451.31
711.859	26970.04
712.054	27336.63
712.249	27164.6
712.443	27211.7
712.638	26939.32
712.833	26658.75
713.028	27135.93
713.223	26496.96
713.417	27176.89
713.612	26918.84
713.807	27719.6
714.002	27940.78
714.196	27361.2
714.391	26914.75
714.586	27463.6
714.78	27092.92
714.975	26916.79
715.17	26646.46
715.364	27051.96
715.559	27307.96
715.754	26283.97
715.948	26748.86
716.143	27512.75
716.337	27037.62
716.532	27336.63
716.726	27131.83
716.921	27342.77
717.115	26834.88
717.31	26488.77
717.504	27051.96
717.699	26769.34
717.893	27070.39
718.088	26628.03
718.282	26568.64
718.476	26482.63
718.671	27129.78
718.865	26425.28
719.059	26673.09
719.254	26689.47
719.448	26558.4
719.642	27488.18
719.837	26154.95
720.031	26681.28
720.225	26392.51
720.419	26621.89
720.614	25866.19
720.808	26570.69
721.002	26357.7
721.196	26154.95
721.39	26402.75
721.585	26767.29
721.779	26281.92
721.973	26261.44
722.167	26171.33
722.361	26329.03
722.555	26720.19
722.749	26374.08
722.943	26427.33
723.137	26062.79
723.331	26576.83
723.525	26249.16
723.719	25782.22
723.913	26652.61
724.107	26204.1
724.301	26021.83
724.495	26118.09
724.689	26367.94
724.883	26220.49
725.077	25853.9
725.271	26011.59
725.465	26359.75
725.659	26017.74
725.853	25755.6
726.046	25722.83
726.24	25554.9
726.434	25759.69
726.628	25798.6
726.822	25794.51
727.015	26359.75
727.209	25968.59
727.403	25841.61
727.596	25749.45
727.79	26496.96
727.984	26478.53
728.177	26089.42
728.371	26030.02
728.565	26423.23
728.758	26093.51
728.952	26136.52
729.146	25626.57
729.339	26148.81
729.533	25702.35
729.726	25745.36
729.92	25661.39
730.113	26044.36
730.307	26394.56
730.5	25780.17
730.694	25698.25
730.887	25767.88
731.081	26353.6
731.274	25739.21
731.468	26050.5
731.661	25925.58
731.854	25935.82
732.048	25876.43
732.241	25700.3
732.435	25941.96
732.628	26007.5
732.821	26351.56
733.014	25753.55
733.208	25931.72
733.401	26140.61
733.594	25710.54
733.788	25343.95
733.981	25980.87
734.174	26136.52
734.367	25370.58
734.56	25671.63
734.754	25974.73
734.947	25954.25
735.14	25569.23
735.333	25759.69
735.526	26095.56
735.719	25796.56
735.912	25278.42
736.105	25774.03
736.298	25577.42
736.491	25350.1
736.684	25114.58
736.877	25499.6
737.07	25782.22
737.263	25747.4
737.456	25493.46
737.649	25327.57
737.842	25272.28
738.035	25376.72
738.228	25489.36
738.421	25360.34
738.614	26083.27
738.807	25886.67
739	25098.2
739.192	25348.05
739.385	25698.25
739.578	25743.31
739.771	25585.61
739.964	25364.43
740.156	25741.26
740.349	25503.7
740.542	25860.04
740.735	25722.83
740.927	25642.96
741.12	25389.01
741.313	25524.18
741.505	25513.94
741.698	25771.98
741.891	25487.31
742.083	25442.26
742.276	25731.02
742.468	25796.56
742.661	25499.6
742.854	25257.94
743.046	25155.54
743.239	26025.93
743.431	25446.35
743.624	25276.37
743.816	25335.76
744.009	25626.57
744.201	25456.59
744.393	25149.4
744.586	25298.9
744.778	25749.45
744.971	25278.42
745.163	25333.71
745.355	25415.63
745.548	25108.44
745.74	25204.69
745.932	25239.51
746.125	25552.85
746.317	26068.94
746.509	24948.7
746.702	25591.76
746.894	25069.53
747.086	25520.08
747.278	25790.41
747.471	25047
747.663	25161.69
747.855	25047
748.047	25429.97
748.239	24752.09
748.431	24494.05
748.623	25196.5
748.815	25106.39
749.008	24322.02
749.2	24889.31
749.392	25223.12
749.584	24786.91
749.776	24907.74
749.968	24879.07
750.16	25728.97
750.352	24838.11
750.544	24858.59
750.736	24758.24
750.928	25049.05
751.12	24612.83
751.311	24516.58
751.503	24612.83
751.695	25102.29
751.887	24606.69
752.079	24498.14
752.271	24782.81
752.463	25679.82
752.654	24653.79
752.846	24858.59
753.038	24596.45
753.23	24477.66
753.421	24821.72
753.613	24446.94
753.805	24549.34
753.997	24795.1
754.188	24555.49
754.38	24158.18
754.572	24655.84
754.763	24637.41
754.955	24483.81
755.146	24180.71
755.338	24360.93
755.53	24551.39
755.721	24287.2
755.913	23846.89
756.104	23891.94
756.296	24063.97
756.487	24350.69
756.679	24338.4
756.87	23861.23
757.062	24305.63
757.253	24516.58
757.445	24002.54
757.636	24293.35
757.827	24061.93
758.019	24483.81
758.21	23977.96
758.401	23824.36
758.593	24659.93
758.784	24473.57
758.975	23721.96
759.167	24109.03
759.358	24072.17
759.549	24293.35
759.74	24229.86
759.932	23728.11
760.123	24348.64
760.314	23980.01
760.505	23668.72
760.696	23857.13
760.888	24459.23
761.079	23764.97
761.27	23541.74
761.461	23588.85
761.652	24066.02
761.843	23566.32
762.034	23504.88
762.225	23734.25
762.416	23736.3
762.607	23500.78
762.798	23322.61
762.989	23416.82
763.18	24250.34
763.371	23269.36
763.562	23244.79
763.753	22980.6
763.944	23762.92
764.135	23523.31
764.326	23676.91
764.517	23238.64
764.708	23312.37
764.899	23412.72
765.089	23181.3
765.28	22953.98
765.471	23603.18
765.662	23500.78
765.853	23197.68
766.043	22915.06
766.234	23535.6
766.425	23353.33
766.615	22904.82
766.806	22964.21
766.997	23488.49
767.187	23158.77
767.378	22988.79
767.569	22783.99
767.759	23093.24
767.95	23252.98
768.141	23037.94
768.331	22923.26
768.522	22929.4
768.712	23058.42
768.903	22798.33
769.093	22601.72
769.284	23072.76
769.474	22872.06
769.665	22366.21
769.855	22362.11
770.046	23029.75
770.236	22429.7
770.426	22853.62
770.617	22116.36
770.807	22519.81
770.998	22315.01
771.188	22511.61
771.378	22505.47
771.569	22687.74
771.759	22814.71
771.949	21950.47
772.139	22360.06
772.33	22487.04
772.52	22964.21
772.71	22081.54
772.9	22081.54
773.09	23105.52
773.281	22839.29
773.471	22009.86
773.661	22075.4
773.851	21989.38
774.041	22052.87
774.231	22149.12
774.421	22145.03
774.611	22456.32
774.802	22054.92
774.992	21938.18
775.182	21768.2
775.372	22153.22
775.562	21874.7
775.752	21714.95
775.942	21254.16
776.131	22228.99
776.321	21993.48
776.511	21594.12
776.701	21573.64
776.891	22095.88
777.081	21633.04
777.271	21616.65
777.461	21878.79
777.651	21886.98
777.84	21966.85
778.03	21487.63
778.22	21334.03
778.41	22016.01
778.599	21383.18
778.789	21262.35
778.979	21530.64
779.169	21813.26
779.358	21624.84
779.548	21669.9
779.738	21164.05
779.927	21475.34
780.117	21282.83
780.307	21387.28
780.496	20969.49
780.686	21655.56
780.875	21981.19
781.065	21180.43
781.254	21336.08
781.444	21317.65
781.633	21587.98
781.823	21002.26
782.012	20834.33
782.202	21219.35
782.391	21022.74
782.581	20690.97
782.77	21153.81
782.96	21473.29
783.149	20922.39
783.338	20910.1
783.528	20525.08
783.717	21438.48
783.906	21317.65
784.096	20885.53
784.285	20848.66
784.474	20881.43
784.663	20695.07
784.853	20789.27
785.042	20613.15
785.231	20721.69
785.42	20955.16
785.61	20701.21
785.799	20580.38
785.988	20756.5
786.177	20873.24
786.366	20680.73
786.555	20635.67
786.744	21020.69
786.933	20760.6
787.122	20559.9
787.312	20314.14
787.501	20418.59
787.69	20664.35
787.879	20422.69
788.068	20154.4
788.257	20224.03
788.445	20275.23
788.634	20178.98
788.823	19998.76
789.012	20770.84
789.201	20682.78
789.39	19959.84
789.579	19941.41
789.768	20187.17
789.957	19965.99
790.145	19968.04
790.334	19695.66
790.523	19970.08
790.712	19912.74
790.9	20017.19
791.089	19570.73
791.278	20537.37
791.467	20113.44
791.655	20029.48
791.844	20422.69
792.033	19877.93
792.221	20183.07
792.41	19859.49
792.599	19406.89
792.787	20078.63
792.976	20396.06
793.164	19458.09
793.353	19662.89
793.541	20088.87
793.73	20029.48
793.918	19863.59
794.107	19628.07
794.295	19775.53
794.484	19916.84
794.672	19863.59
794.861	19314.73
795.049	19945.51
795.238	19982.37
795.426	19523.63
795.614	19845.16
795.803	19970.08
795.991	19793.96
796.179	19476.52
796.368	19116.08
796.556	19828.77
796.744	19130.42
796.932	19333.17
797.121	18987.06
797.309	19626.03
797.497	19716.14
797.685	19200.05
797.874	19216.43
798.062	19320.88
798.25	19574.83
798.438	19540.01
798.626	19413.04
798.814	19413.04
799.002	20189.22
799.19	19484.72
799.378	19488.81
799.566	19458.09
799.755	19542.06
799.943	19656.75
800.131	19617.83
800.318	19640.36
800.506	19607.59
800.694	19232.82
800.882	19322.93
801.07	19939.37
801.258	19777.58
801.446	19521.58
801.634	19472.43
801.822	19636.27
802.01	19636.27
802.197	19638.31
802.385	19566.63
802.573	19748.9
802.761	19236.91
802.949	19578.92
803.136	19195.95
803.324	19509.29
803.512	19408.94
803.699	19132.47
803.887	19040.31
804.075	19816.49
804.262	19234.86
804.45	19288.11
804.638	19462.19
804.825	19382.32
805.013	19300.4
805.201	19529.77
805.388	19277.87
805.576	19576.87
805.763	20383.77
805.951	19607.59
806.138	19529.77
806.326	20291.62
806.513	20213.79
806.701	19277.87
806.888	19531.82
807.075	19947.56
807.263	20035.62
807.45	19644.46
807.638	19507.24
807.825	20217.89
808.012	19570.73
808.2	19410.99
808.387	19832.87
808.574	19855.4
808.761	20099.11
808.949	19640.36
809.136	19587.11
809.323	19746.86
809.51	19767.34
809.698	19839.01
809.885	19742.76
810.072	19914.79
810.259	19884.07
810.446	19591.21
810.633	19630.12
810.82	20162.59
811.008	20518.94
811.195	20105.25
811.382	19998.76
811.569	20103.2
811.756	19732.52
811.943	19951.65
812.13	19787.82
812.317	19884.07
812.504	20068.39
812.691	20273.18
812.878	19832.87
813.064	20602.91
813.251	20164.64
813.438	19728.42
813.625	19783.72
813.812	19712.04
813.999	19916.84
814.186	19714.09
814.372	19879.97
814.559	19996.71
814.746	19959.84
814.933	19709.99
815.12	20135.97
815.306	19703.85
815.493	19771.43
815.68	19916.84
815.866	19808.3
816.053	20303.9
816.24	20525.08
816.426	19998.76
816.613	19879.97
816.799	20199.46
816.986	20213.79
817.173	20015.14
817.359	19345.45
817.546	19955.75
817.732	19677.23
817.919	19394.61
818.105	19619.88
818.292	19845.16
818.478	19970.08
818.665	19613.74
818.851	19591.21
819.037	20217.89
819.224	19820.58
819.41	19750.95
819.597	19437.61
819.783	20226.08
819.969	19750.95
820.156	19611.69
820.342	19494.96
820.528	20504.6
820.714	19970.08
820.901	19929.13
821.087	19146.8
821.273	20000.8
821.459	19460.14
821.646	19562.54
821.832	19365.93
822.018	19505.2
822.204	19464.24
822.39	19236.91
822.576	19271.73
822.762	19556.39
822.948	19189.81
823.134	19316.78
823.32	18980.92
823.507	19210.29
823.693	19730.47
823.879	19658.79
824.065	18925.62
824.25	19312.69
824.436	18905.14
824.622	18804.79
824.808	19093.55
824.994	18829.37
825.18	18634.81
825.366	18391.1
825.552	18542.65
825.738	18710.58
825.923	19200.05
826.109	19107.89
826.295	18862.13
826.481	18911.28
826.667	18837.56
826.852	19042.35
827.038	18876.47
827.224	19662.89
827.409	19722.28
827.595	18698.3
827.781	19099.7
827.966	19337.26
828.152	19177.52
828.338	19161.14
828.523	18407.48
828.709	18753.59
828.894	19189.81
829.08	18763.83
829.266	18663.48
829.451	18643
829.637	18841.65
829.822	18401.34
830.008	18501.69
830.193	18862.13
830.378	18997.3
830.564	18573.37
830.749	18411.58
830.935	18772.02
831.12	18804.79
831.305	18399.29
831.491	18716.73
831.676	18198.59
831.861	18702.39
832.047	18376.76
832.232	18071.62
832.417	18624.57
832.602	18214.98
832.788	17999.94
832.973	18268.22
833.158	18186.3
833.343	18544.7
833.528	18165.82
833.714	18235.46
833.899	18739.26
834.084	18708.54
834.269	18366.53
834.454	17944.64
834.639	18511.93
834.824	18413.63
835.009	18270.27
835.194	18157.63
835.379	18446.4
835.564	18374.72
835.749	18018.37
835.934	18044.99
836.119	18237.5
836.304	17948.74
836.489	17846.34
836.674	18004.03
836.859	17881.16
837.044	18438.2
837.228	17864.77
837.413	17944.64
837.598	17989.7
837.783	18108.48
837.968	17797.19
838.152	17676.36
838.337	17438.8
838.522	18192.45
838.707	17879.11
838.891	17791.05
839.076	17686.6
839.261	17883.2
839.445	17123.41
839.63	17379.4
839.815	17721.41
839.999	17334.35
840.184	17164.37
840.368	17336.4
840.553	17776.71
840.737	17801.29
840.922	17004.63
841.106	17338.44
841.291	17160.27
841.475	17563.72
841.66	17297.49
841.844	17039.44
842.029	17913.92
842.213	17072.21
842.397	16912.47
842.582	16879.7
842.766	17903.68
842.951	17713.22
843.135	17152.08
843.319	17315.92
843.504	17184.85
843.688	17322.06
843.872	16746.58
844.056	17047.63
844.241	17082.45
844.425	16857.17
844.609	16914.52
844.793	16691.29
844.977	17111.12
845.161	17004.63
845.346	16257.12
845.53	16611.42
845.714	16715.86
845.898	17147.98
846.082	16312.41
846.266	17098.83
846.45	17025.11
846.634	17217.61
846.818	16611.42
847.002	16879.7
847.186	16930.9
847.37	16760.92
847.554	16621.66
847.738	16494.68
847.922	16889.94
848.106	16875.6
848.29	16404.57
848.473	16461.91
848.657	16887.89
848.841	16801.88
849.025	16504.92
849.209	16072.8
849.392	16490.59
849.576	16592.98
849.76	16085.09
849.944	16281.69
850.127	16922.71
850.311	16115.81
850.495	15929.44
850.678	15986.79
850.862	16545.88
851.046	16334.94
851.229	16085.09
851.413	15915.11
851.596	16361.56
851.78	16019.55
851.964	16023.65
852.147	16015.46
852.331	16805.97
852.514	16037.98
852.698	16343.13
852.881	15872.1
853.065	16595.03
853.248	15992.93
853.431	16140.38
853.615	15902.82
853.798	16539.74
853.982	16308.32
854.165	16001.12
854.348	15949.92
854.532	15863.91
854.715	16050.27
854.898	15741.03
855.081	15648.87
855.265	16046.18
855.448	16328.8
855.631	15650.92
855.814	15706.21
855.997	16025.7
856.181	15736.93
856.364	15700.07
856.547	15515.75
856.73	15986.79
856.913	15863.91
857.096	15388.78
857.279	15554.66
857.462	15399.02
857.645	15962.21
857.828	15618.15
858.011	15681.64
858.194	15577.19
858.377	15695.97
858.56	15145.07
858.743	15255.66
858.926	15057.01
859.109	15691.88
859.292	15276.14
859.475	15069.3
859.658	15329.39
859.841	15669.35
860.023	15038.58
860.206	15083.63
860.389	15493.22
860.572	15720.55
860.755	15130.73
860.937	15048.82
861.12	15128.69
861.303	15222.89
861.486	15011.95
861.668	15155.31
861.851	15362.15
862.034	15032.43
862.216	14835.83
862.399	14835.83
862.581	15048.82
862.764	15331.44
862.947	14807.16
863.129	14952.56
863.312	14366.84
863.494	15183.98
863.677	14649.46
863.859	14450.81
864.042	15052.91
864.224	15192.17
864.406	14717.04
864.589	14643.32
864.771	15007.86
864.954	14104.7
865.136	14446.71
865.318	14377.08
865.501	14559.35
865.683	14172.29
865.865	14196.86
866.048	14631.03
866.23	14463.1
866.412	14684.28
866.594	14078.08
866.777	14348.41
866.959	14970.99
867.141	14465.14
867.323	14442.62
867.505	14354.55
867.687	14563.45
867.869	14424.19
868.052	14471.29
868.234	13918.34
868.416	14479.48
868.598	14676.09
868.78	14211.2
868.962	14166.14
869.144	14618.74
869.326	14444.66
869.508	14012.54
869.69	14246.01
869.872	14127.23
870.054	14774.39
870.236	14067.84
870.417	14233.72
870.599	14413.95
870.781	14370.94
870.963	14151.81
871.145	13639.81
871.327	13817.99
871.508	14203
871.69	14057.6
871.872	13977.73
872.054	14098.56
872.235	14299.26
872.417	13860.99
872.599	13746.31
872.78	14696.57
872.962	14184.57
873.144	13977.73
873.325	13973.63
873.507	14530.68
873.689	14246.01
873.87	13916.29
874.052	14018.69
874.233	14311.55
874.415	14456.95
874.596	13879.43
874.778	13729.92
874.959	13867.14
875.141	14321.79
875.322	13969.54
875.503	14012.54
875.685	14313.59
875.866	13510.79
876.048	13807.75
876.229	13719.68
876.41	14205.05
876.592	14049.41
876.773	14002.3
876.954	13691.01
877.136	14426.23
877.317	14184.57
877.498	13668.48
877.679	13938.82
877.86	14248.06
878.042	14063.74
878.223	13715.59
878.404	14096.51
878.585	14405.75
878.766	14526.58
878.947	14418.04
879.128	14334.07
879.309	14190.72
879.49	14323.83
879.672	13938.82
879.853	14010.5
880.034	14014.59
880.215	14321.79
880.396	14047.36
880.576	14196.86
880.757	14325.88
880.938	14303.36
881.119	14196.86
881.3	14137.47
881.481	14082.17
881.662	15310.96
881.843	14141.57
882.023	14116.99
882.204	14561.4
882.385	14293.12
882.566	14030.98
882.747	14219.39
882.927	14487.67
883.108	14311.55
883.289	14121.09
883.469	14565.5
883.65	14708.85
883.831	14405.75
884.011	14563.45
884.192	14413.95
884.373	15192.17
884.553	14872.69
884.734	14835.83
884.914	14678.13
885.095	15519.85
885.275	15360.11
885.456	15226.99
885.636	14553.21
885.817	15001.71
885.997	15048.82
886.178	14590.07
886.358	14721.14
886.538	14954.61
886.719	15671.4
886.899	14540.92
887.08	15014
887.26	15376.49
887.44	14512.25
887.621	14784.63
887.801	14942.32
887.981	15581.29
888.161	15235.18
888.342	14848.11
888.522	14989.42
888.702	15339.63
888.882	15077.49
889.062	14909.55
889.242	14721.14
889.423	15536.23
889.603	15292.52
889.783	15374.44
889.963	14944.37
890.143	15147.12
890.323	15544.42
890.503	15177.84
890.683	14989.42
890.863	15165.55
891.043	15206.51
891.223	15042.67
891.403	15040.62
891.583	15151.21
891.763	15132.78
891.943	15100.01
892.122	14997.62
892.302	15159.41
892.482	14796.92
892.662	14841.97
892.842	14833.78
893.022	15241.32
893.201	15077.49
893.381	15061.1
893.561	14710.9
893.741	15226.99
893.92	15112.3
894.1	14747.76
894.28	15042.67
894.459	15226.99
894.639	15151.21
894.819	14594.17
894.998	15116.4
895.178	15122.54
895.357	15216.75
895.537	14788.72
895.716	14895.22
895.896	15116.4
896.075	15435.88
896.255	15042.67
896.434	14561.4
896.614	15261.8
896.793	15270
896.973	14837.87
897.152	14755.96
897.331	15159.41
897.511	15181.93
897.69	14688.37
897.87	14882.93
898.049	15233.13
898.228	14991.47
898.407	14557.3
898.587	15118.45
898.766	14923.89
898.945	15173.74
899.124	14733.43
899.304	14790.77
899.483	15298.67
899.662	15564.9
899.841	14502.01
900.02	14506.1
900.199	15157.36
900.378	15028.34
900.557	14606.45
900.737	14420.09
900.916	15016.05
901.095	15061.1
901.274	14700.66
901.453	14592.12
901.632	14598.26
901.811	14659.7
901.989	14540.92
902.168	14551.16
902.347	14985.33
902.526	14647.41
902.705	14350.46
902.884	14493.82
903.063	15067.25
903.242	15104.11
903.42	14604.41
903.599	14409.85
903.778	14491.77
903.957	14829.68
904.135	14366.84
904.314	14069.89
904.493	14569.59
904.672	14698.61
904.85	14043.26
905.029	14082.17
905.207	14678.13
905.386	15294.57
905.565	14139.52
905.743	14102.65
905.922	14315.64
906.1	14473.34
906.279	13930.62
906.457	13891.71
906.636	14473.34
906.814	14221.44
906.993	14037.12
907.171	13832.32
907.35	14258.3
907.528	14311.55
907.707	13856.9
907.885	13981.82
908.063	14413.95
908.242	13766.79
908.42	13830.27
908.598	13645.96
908.777	14317.69
908.955	14043.26
909.133	13805.7
909.311	13600.9
909.49	13971.58
909.668	13840.51
909.846	13445.26
910.024	13422.73
910.202	13734.02
910.38	13682.82
910.559	13219.98
910.737	13334.67
910.915	13648.01
911.093	13518.98
911.271	13428.87
911.449	13613.19
911.627	13557.89
911.805	14002.3
911.983	13367.43
912.161	13142.16
912.339	13357.19
912.517	13682.82
912.695	13359.24
912.872	13252.75
913.05	13289.61
913.228	13359.24
913.406	13115.53
913.584	13097.1
913.762	13342.86
913.939	12947.6
914.117	12871.82
914.295	12730.52
914.473	13181.07
914.65	13006.99
914.828	12912.78
915.006	12564.63
915.184	12699.8
915.361	13029.52
915.539	12918.93
915.716	12890.26
915.894	12781.71
916.072	13031.57
916.249	12683.41
916.427	12673.17
916.604	12705.94
916.782	12568.73
916.959	12406.94
917.137	12208.28
917.314	12675.22
917.492	12456.09
917.669	12488.85
917.847	12341.4
918.024	12390.55
918.201	12173.47
918.379	11983.01
918.556	12146.84
918.733	12558.49
918.911	12216.47
919.088	12357.78
919.265	11962.53
919.442	12222.62
919.62	12187.8
919.797	11937.95
919.974	11995.29
920.151	12214.43
920.328	12204.19
920.506	11946.14
920.683	12142.75
920.86	11681.96
921.037	11749.54
921.214	11714.72
921.391	11444.39
921.568	11917.47
921.745	11452.58
921.922	11638.95
922.099	11108.52
922.276	11917.47
922.453	11778.21
922.63	11718.82
922.807	11778.21
922.984	11585.7
923.161	11413.67
923.338	11585.7
923.514	11262.12
923.691	11325.61
923.868	11225.26
924.045	11063.47
924.222	10944.69
924.399	11274.41
924.575	11511.97
924.752	11331.75
924.929	11053.23
925.105	11313.32
925.282	10989.74
925.459	10866.86
925.635	10776.75
925.812	10686.64
925.989	10617.01
926.165	10645.68
926.342	10531
926.518	10420.41
926.695	10721.46
926.871	10457.27
927.048	10283.19
927.224	10617.01
927.401	10442.93
927.577	10438.84
927.754	10092.73
927.93	10629.3
928.107	10254.52
928.283	9932.99
928.459	10199.23
928.636	10174.65
928.812	9898.17
928.988	9945.28
929.165	9545.92
929.341	10014.91
929.517	10139.83
929.693	10139.83
929.87	9472.2
930.046	9824.45
930.222	9855.17
930.398	9650.37
930.574	9560.26
930.751	9830.59
930.927	9799.87
931.103	9758.91
931.279	9445.57
931.455	9457.86
931.631	9425.09
931.807	9040.08
931.983	9330.89
932.159	9228.49
932.335	9517.25
932.511	9126.09
932.687	9044.17
932.863	9511.11
933.039	9177.29
933.215	9038.03
933.391	8878.29
933.566	8730.83
933.742	8820.94
933.918	8605.91
934.094	8417.49
934.27	8657.11
934.445	8710.35
934.621	8716.5
934.797	8304.85
934.973	8653.01
935.148	8499.41
935.324	7934.17
935.5	7756
935.675	8208.6
935.851	8116.44
936.027	7631.07
936.202	7491.81
936.378	7825.63
936.553	7536.87
936.729	7639.26
936.904	7229.67
937.08	7104.74
937.255	6918.38
937.431	6762.73
937.606	6664.43
937.782	7061.74
937.957	6865.13
938.133	6490.35
938.308	6246.65
938.483	6371.57
938.659	6121.72
938.834	6113.53
939.009	6060.28
939.185	5853.44
939.36	5718.27
939.535	5519.62
939.71	5888.25
939.886	6119.67
940.061	6037.75
940.236	5593.34
940.411	5413.12
940.586	5593.34
940.761	5800.19
940.937	5363.97
941.112	5148.93
941.287	5378.31
941.462	5372.16
941.637	5001.48
941.812	5079.3
941.987	5376.26
942.162	5060.87
942.337	4997.39
942.512	4968.71
942.687	5237
942.862	5298.44
943.037	4641.04
943.212	4573.46
943.386	4915.47
943.561	5071.11
943.736	4722.96
943.911	5038.34
944.086	4935.95
944.26	4794.64
944.435	4628.75
944.61	4659.47
944.785	5015.82
944.959	5247.24
945.134	4464.91
945.309	4477.2
945.483	4452.63
945.658	4976.91
945.833	4198.68
946.007	4331.8
946.182	5224.71
946.357	4356.37
946.531	4489.49
946.706	4544.78
946.88	4342.04
947.055	4634.89
947.229	4419.86
947.404	4329.75
947.578	4763.92
947.752	4684.05
947.927	4485.39
948.101	4411.67
948.276	4569.36
948.45	4718.86
948.624	4667.66
948.799	4313.36
948.973	4964.62
949.147	4315.41
949.321	4540.69
949.496	4393.23
949.67	4905.23
949.844	4696.33
950.018	4376.85
950.193	4366.61
950.367	4929.8
950.541	4538.64
950.715	4483.34
950.889	4520.21
951.063	4677.9
951.237	4651.28
951.411	4221.2
951.585	4194.58
951.759	4702.48
951.933	4708.62
952.107	4389.14
952.281	4372.75
952.455	5103.88
952.629	4880.65
952.803	4436.24
952.977	4360.47
953.151	4727.05
953.325	4806.92
953.499	4698.38
953.672	4393.23
953.846	4376.85
954.02	4305.17
954.194	4184.34
954.368	4522.26
954.541	4741.39
954.715	4239.64
954.889	4540.69
955.062	4225.3
955.236	4548.88
955.41	4323.6
955.583	4428.05
955.757	4223.25
955.93	4555.02
956.104	4305.17
956.278	4380.95
956.451	4460.82
956.625	4649.23
956.798	5105.93
956.972	4610.32
957.145	4178.2
957.319	4534.54
957.492	4520.21
957.665	4493.58
957.839	4415.76
958.012	4573.46
958.185	4350.23
958.359	4479.25
958.532	4493.58
958.705	4835.6
958.879	4509.97
959.052	4354.32
959.225	3967.26
959.398	4286.74
959.572	4567.31
959.745	4170.01
959.918	4417.81
960.091	4409.62
960.264	4522.26
960.438	4139.29
960.611	4174.1
960.784	4495.63
960.957	4192.53
961.13	4428.05
961.303	4045.08
961.476	4264.21
961.649	4460.82
961.822	3977.5
961.995	4233.49
962.168	4473.11
962.341	4462.87
962.514	4157.72
962.686	4219.16
962.859	4423.95
963.032	4395.28
963.205	4083.99
963.378	3862.81
963.551	4419.86
963.723	4485.39
963.896	4268.31
964.069	4350.23
964.242	4469.01
964.414	4647.18
964.587	4282.64
964.76	4266.26
964.932	4282.64
965.105	4219.16
965.278	4036.89
965.45	4159.77
965.623	4249.88
965.795	4495.63
965.968	4083.99
966.14	4241.68
966.313	4202.77
966.485	4247.83
966.658	3938.59
966.83	3995.93
967.003	4471.06
967.175	4415.76
967.348	4012.31
967.52	3987.74
967.692	4616.46
967.865	4360.47
968.037	4088.09
968.209	4186.39
968.382	4063.51
968.554	4247.83
968.726	4067.61
968.898	4018.46
969.071	4288.79
969.243	4301.08
969.415	4006.17
969.587	3932.44
969.759	4716.81
969.932	4288.79
970.104	3903.77
970.276	3576.09
970.448	3934.49
970.62	3866.91
970.792	4094.23
970.964	3793.18
971.136	4497.68
971.308	4208.92
971.48	3797.28
971.652	3766.56
971.824	4391.19
971.996	3868.95
972.168	3795.23
972.339	3854.62
972.511	4133.14
972.683	3838.23
972.855	3916.06
973.027	3936.54
973.199	3817.76
973.37	4032.79
973.542	3914.01
973.714	3879.19
973.886	4020.5
974.057	4053.27
974.229	3649.82
974.401	3674.4
974.572	3690.78
974.744	3567.9
974.915	3561.76
975.087	3545.38
975.259	4294.93
975.43	3754.27
975.602	3615.01
975.773	3559.71
975.945	3684.64
976.116	3981.59
976.288	3678.49
976.459	3803.42
976.63	3666.21
976.802	3772.7
976.973	3520.8
977.145	3811.61
977.316	4229.4
977.487	3971.35
977.659	3725.6
977.83	3442.98
978.001	4032.79
978.172	3664.16
978.344	3518.75
978.515	3459.36
978.686	3537.18
978.857	3821.85
979.028	3475.74
979.2	3387.68
979.371	3746.08
979.542	3494.18
979.713	3705.12
979.884	3006.76
980.055	3420.45
980.226	3535.14
980.397	3436.83
980.568	3332.39
980.739	3727.64
980.91	3569.95
981.081	3559.71
981.252	3201.32
981.423	3635.49
981.594	3678.49
981.765	3129.64
981.936	3422.5
982.106	3537.18
982.277	3668.25
982.448	3248.42
982.619	3332.39
982.79	3485.98
982.96	3766.56
983.131	3346.72
983.302	3090.73
983.472	3281.19
983.643	3393.83
983.814	3254.56
983.984	3289.38
984.155	3574.05
984.326	3459.36
984.496	3322.15
984.667	3031.34
984.837	3201.32
985.008	3565.85
985.178	3244.32
985.349	3117.35
985.519	3270.95
985.69	3197.22
985.86	3094.82
986.031	2967.85
986.201	3414.31
986.371	3395.87
986.542	3119.4
986.712	2822.44
986.882	3416.35
987.053	3393.83
987.223	2926.89
987.393	3158.31
987.563	3148.07
987.734	3463.46
987.904	3318.05
988.074	3037.48
988.244	3268.9
988.414	3162.41
988.585	3092.77
988.755	3100.97
988.925	3133.73
989.095	3506.46
989.265	2933.03
989.435	3090.73
989.605	3428.64
989.775	3264.8
989.945	3326.24
990.115	2873.64
990.285	3219.75
990.455	3086.63
990.625	3029.29
990.795	2914.6
990.965	3365.15
991.134	2842.92
991.304	2875.69
991.474	2793.77
991.644	3043.62
991.814	3350.82
991.984	2707.76
992.153	2756.91
992.323	2924.84
992.493	2953.51
992.662	2560.3
992.832	2951.46
993.002	3195.17
993.171	2902.31
993.341	2738.48
993.511	2953.51
993.68	2853.16
993.85	3107.11
994.019	2728.24
994.189	2779.43
994.358	2890.03
994.528	2783.53
994.697	2414.9
994.867	2656.56
995.036	3012.9
995.206	2957.61
995.375	2484.53
995.544	2664.75
995.714	2822.44
995.883	2754.86
996.052	2765.1
996.222	2431.28
996.391	3473.7
996.56	2853.16
996.73	2572.59
996.899	2390.32
997.068	3137.83
997.237	2857.26
997.406	2527.53
997.576	2339.12
997.745	2816.3
997.914	2785.58
998.083	2441.52
998.252	2597.17
998.421	2799.91
998.59	2726.19
998.759	2459.95
998.928	2345.27
999.097	2928.94
999.266	2738.48
999.435	2455.86
999.604	2300.21
999.773	3117.35
999.942	2578.73
1000.111	2210.1
1000.28	2328.88
1000.448	2357.55
1000.617	2533.68
1000.786	2527.53
1000.955	2165.04
1001.124	2674.99
1001.292	3203.36
1001.461	2267.44
1001.63	2316.59
1001.798	2963.75
1001.967	2898.22
1002.136	2257.2
1002.304	2269.49
1002.473	2543.92
1002.642	2537.77
1002.81	2373.94
1002.979	2279.73
1003.147	2556.21
1003.316	3066.15
1003.484	2236.72
1003.653	2224.44
1003.821	2660.65
1003.99	2416.94
1004.158	2355.51
1004.327	2361.65
1004.495	2550.06
1004.663	2232.63
1004.832	2220.34
1005	1974.58
1005.168	2591.02
1005.337	2390.32
1005.505	2048.31
1005.673	2337.07
1005.842	2457.9
1006.01	2486.58
1006.178	2105.65
1006.346	2124.08
1006.514	2486.58
1006.683	2795.82
1006.851	1978.68
1007.019	1890.62
1007.187	2167.09
1007.355	2007.35
1007.523	1780.03
1007.691	1870.14
1007.859	1995.06
1008.027	2486.58
1008.195	1970.49
1008.363	1782.07
1008.531	2470.19
1008.699	1939.77
1008.867	1845.56
1009.035	2023.73
1009.203	2529.58
1009.37	2163
1009.538	2052.41
1009.706	2300.21
1009.874	2267.44
1010.042	2212.15
1010.209	1757.5
1010.377	1827.13
1010.545	2320.69
1010.713	2036.02
1010.88	1845.56
1011.048	1947.96
1011.216	2115.89
1011.383	2402.61
1011.551	1792.31
1011.718	1737.02
1011.886	2400.56
1012.054	2109.75
1012.221	1814.84
1012.389	1743.16
1012.556	1970.49
1012.724	2443.57
1012.891	1849.66
1013.058	1657.15
1013.226	2087.22
1013.393	2226.48
1013.561	1661.24
1013.728	1597.76
1013.895	2156.85
1014.063	2064.69
1014.23	1679.68
1014.397	1536.32
1014.565	2046.26
1014.732	1870.14
1014.899	1599.8
1015.066	1515.84
1015.233	1911.1
1015.401	1974.58
1015.568	1757.5
1015.735	1681.72
1015.902	1855.8
1016.069	2095.41
1016.236	1599.8
1016.403	1620.28
1016.57	1671.48
1016.737	2054.45
1016.904	1724.73
1017.071	1610.04
1017.238	1667.39
1017.405	2029.88
1017.572	1614.14
1017.739	1829.18
1017.906	1794.36
1018.073	2044.21
1018.24	1466.69
1018.407	1589.57
1018.573	1974.58
1018.74	1775.93
1018.907	1567.04
1019.074	1427.78
1019.241	2007.35
1019.407	1716.54
1019.574	1519.93
1019.741	1388.86
1019.907	1734.97
1020.074	1855.8
1020.241	1323.33
1020.407	1364.29
1020.574	1839.42
1020.74	1802.55
1020.907	1417.54
1021.073	1362.24
1021.24	2134.32
1021.406	2040.12
1021.573	1380.67
1021.739	1366.34
1021.906	1868.09
1022.072	1597.76
1022.239	1438.02
1022.405	1362.24
1022.571	1691.96
1022.738	1399.1
1022.904	1339.71
1023.07	1454.4
1023.237	1530.17
1023.403	1913.14
1023.569	1392.96
1023.735	1335.62
1023.902	1710.4
1024.068	1663.29
1024.234	1214.79
1024.4	1354.05
1024.566	1665.34
1024.732	1786.17
1024.898	1388.86
1025.065	1233.22
1025.231	1749.31
1025.397	1507.65
1025.563	1304.9
1025.729	1151.3
1025.895	1216.83
1026.061	1431.87
1026.227	1151.3
1026.392	1218.88
1026.558	1583.42
1026.724	1495.36
1026.89	1163.59
1027.056	1141.06
1027.222	1517.89
1027.388	1433.92
1027.553	1214.79
1027.719	1079.62
1027.885	1950.01
1028.051	1605.95
1028.216	1116.48
1028.382	1218.88
1028.548	1628.48
1028.713	1313.09
1028.879	1003.85
1029.045	1284.42
1029.21	1659.2
1029.376	1620.28
1029.541	1218.88
1029.707	1081.67
1029.873	1507.65
1030.038	1636.67
1030.204	1057.09
1030.369	1063.24
1030.534	1616.19
1030.7	1265.99
1030.865	1206.59
1031.031	999.75
1031.196	1429.82
1031.361	1401.15
1031.527	991.56
1031.692	964.93
1031.857	1007.94
1032.023	1515.84
1032.188	954.69
1032.353	1126.72
1032.518	1734.97
1032.684	1362.24
1032.849	938.31
1033.014	1012.04
1033.179	1440.06
1033.344	1376.58
1033.509	1085.76
1033.674	944.45
1033.839	1485.12
1034.004	1405.25
1034.17	850.25
1034.335	905.54
1034.5	1184.07
1034.664	1036.61
1034.829	901.45
1034.994	1020.23
1035.159	1370.43
1035.324	1171.78
1035.489	1034.57
1035.654	928.07
1035.819	1573.18
1035.984	1245.51
1036.148	1018.18
1036.313	979.27
1036.478	1499.45
1036.643	1112.39
1036.807	782.67
1036.972	889.16
1037.137	1519.93
1037.301	1110.34
1037.466	792.91
1037.631	979.27
1037.795	1540.41
1037.96	1231.17
1038.124	1071.43
1038.289	684.36
1038.454	1255.75
1038.618	1163.59
1038.783	932.17
1038.947	926.02
1039.111	1233.22
1039.276	1028.42
1039.44	778.57
1039.605	1212.74
1039.769	1104.2
1039.933	1116.48
1040.098	921.93
1040.262	1091.91
1040.426	1384.77
1040.591	1208.64
1040.755	831.82
1040.919	827.72
1041.083	1104.2
1041.248	1048.9
1041.412	682.31
1041.576	715.08
1041.74	1061.19
1041.904	1227.07
1042.068	622.92
1042.232	799.05
1042.397	1208.64
1042.561	1132.87
1042.725	635.21
1042.889	823.62
1043.053	1110.34
1043.217	1104.2
1043.381	813.38
1043.544	629.07
1043.708	1265.99
1043.872	786.76
1044.036	469.33
1044.2	641.36
1044.364	1227.07
1044.528	1311.04
1044.691	3258.66
1044.855	522.57
1045.019	1126.72
1045.183	1110.34
1045.346	766.28
1045.51	545.1
1045.674	979.27
1045.837	1130.82
1046.001	686.41
1046.165	657.74
1046.328	1534.27
1046.492	1122.63
1046.655	850.25
1046.819	680.27
1046.983	872.78
1047.146	1098.05
1047.31	727.37
1047.473	438.61
1047.636	950.6
1047.8	690.51
1047.963	706.89
1048.127	612.68
1048.29	694.6
