Data from Ink_Intensity_USB4F045381__87__00087.txt Node

Date: Mon Jul 17 10:58:16 EDT 2023
User: mmckonesweet
Spectrometer: USB4F04538
Trigger mode: 4
Integration Time (sec): 9.000000E-1
Scans to average: 1
Electric dark correction enabled: true
Nonlinearity correction enabled: false
Boxcar width: 0
XAxis mode: Wavelengths
Number of Pixels in Spectrum: 3648
>>>>>Begin Spectral Data<<<<<
345.52	-1042.25
345.736	-1042.25
345.952	-1042.25
346.168	-989
346.384	-984.9
346.6	-87.89
346.816	-270.16
347.032	-186.19
347.248	266.41
347.464	-182.1
347.68	-77.65
347.896	88.23
348.112	313.51
348.328	-108.37
348.544	-48.98
348.76	59.56
348.975	233.64
349.191	-239.44
349.407	-223.06
349.623	141.48
349.839	-44.88
350.055	-96.08
350.27	49.32
350.486	184.49
350.702	389.28
350.918	231.59
351.133	-161.62
351.349	198.82
351.565	342.18
351.781	-165.71
351.996	82.09
352.212	374.95
352.428	-139.09
352.644	-173.91
352.859	-194.39
353.075	280.74
353.291	96.43
353.506	-120.66
353.722	-235.35
353.938	-20.31
354.153	518.31
354.369	215.21
354.584	-204.63
354.8	274.6
355.016	-227.15
355.231	-178
355.447	-55.12
355.662	247.97
355.878	782.49
356.093	-296.78
356.309	-30.55
356.524	-235.35
356.74	311.46
356.955	-145.24
357.171	-55.12
357.386	229.54
357.602	-235.35
357.817	-91.99
358.033	-126.8
358.248	352.42
358.464	194.73
358.679	-153.43
358.895	-304.98
359.11	-1.88
359.325	340.13
359.541	67.75
359.756	123.05
359.972	-202.58
360.187	315.56
360.402	-114.52
360.618	-151.38
360.833	977.05
361.048	125.1
361.264	-120.66
361.479	-96.08
361.694	10.41
361.909	204.97
362.125	-104.28
362.34	-55.12
362.555	243.88
362.77	92.33
362.986	-225.11
363.201	-108.37
363.416	247.97
363.631	61.61
363.847	-186.19
364.062	-91.99
364.277	227.5
364.492	207.02
364.707	-198.48
364.922	-356.18
365.138	280.74
365.353	377
365.568	-204.63
365.783	-96.08
365.998	77.99
366.213	575.65
366.428	-169.81
366.643	47.27
366.858	288.93
367.073	252.07
367.288	-44.88
367.503	-198.48
367.718	170.15
367.933	340.13
368.148	-251.73
368.363	-46.93
368.578	127.14
368.793	471.2
369.008	-75.6
369.223	-253.78
369.438	227.5
369.653	454.82
369.868	-194.39
370.083	-180.05
370.298	180.39
370.513	452.77
370.728	73.9
370.943	-118.61
371.157	-163.67
371.372	532.64
371.587	-243.54
371.802	-243.54
372.017	47.27
372.232	534.69
372.446	-22.36
372.661	-235.35
372.876	329.89
373.091	202.92
373.306	-5.97
373.52	-157.52
373.735	-100.18
373.95	456.87
374.165	-14.17
374.379	-28.5
374.594	-169.81
374.809	153.77
375.023	166.06
375.238	-202.58
375.453	182.44
375.667	-143.19
375.882	-20.31
376.097	-163.67
376.311	18.6
376.526	92.33
376.741	-200.53
376.955	198.82
377.17	549.03
377.384	667.81
377.599	-94.04
377.813	-253.78
378.028	678.05
378.242	309.41
378.457	14.51
378.672	-329.55
378.886	141.48
379.101	-20.31
379.315	-259.92
379.53	-87.89
379.744	313.51
379.958	256.17
380.173	-94.04
380.387	-89.94
380.602	211.11
380.816	10.41
381.031	-67.41
381.245	-71.51
381.459	256.17
381.674	2713.73
381.888	-161.62
382.103	112.81
382.317	-169.81
382.531	600.23
382.746	16.55
382.96	-120.66
383.174	-26.45
383.388	563.36
383.603	53.42
383.817	-188.24
384.031	270.5
384.246	524.45
384.46	41.13
384.674	436.39
384.888	137.38
385.103	174.25
385.317	-214.87
385.531	59.56
385.745	503.97
385.959	364.71
386.174	-200.53
386.388	-110.42
386.602	116.9
386.816	-46.93
387.03	45.23
387.244	-71.51
387.458	198.82
387.672	538.79
387.887	-171.86
388.101	-225.11
388.315	452.77
388.529	264.36
388.743	-85.84
388.957	-178
389.171	458.92
389.385	-118.61
389.599	-100.18
389.813	151.72
390.027	286.89
390.241	723.1
390.455	-16.21
390.669	-18.26
390.883	57.51
391.097	551.07
391.311	168.1
391.525	-65.36
391.738	290.98
391.952	288.93
392.166	47.27
392.38	-151.38
392.594	428.2
392.808	436.39
393.022	-32.6
393.236	-10.07
393.449	444.58
393.663	282.79
393.877	-169.81
394.091	14.51
394.305	39.08
394.518	16.55
394.732	-63.32
394.946	10.41
395.16	567.46
395.373	186.54
395.587	-51.03
395.801	-91.99
396.015	397.48
396.228	301.22
396.442	-167.76
396.656	-208.72
396.869	389.28
397.083	604.32
397.297	92.33
397.51	22.7
397.724	458.92
397.938	321.7
398.151	-202.58
398.365	-190.29
398.578	413.86
398.792	641.18
399.005	164.01
399.219	-12.12
399.433	211.11
399.646	399.52
399.86	129.19
400.073	127.14
400.287	446.63
400.5	264.36
400.714	200.87
400.927	67.75
401.141	327.85
401.354	1173.66
401.567	321.7
401.781	-51.03
401.994	413.86
402.208	776.35
402.421	65.71
402.635	149.67
402.848	297.13
403.061	559.27
403.275	176.3
403.488	-18.26
403.701	620.71
403.915	467.11
404.128	207.02
404.341	55.47
404.555	379.04
404.768	297.13
404.981	200.87
405.195	18.6
405.408	696.48
405.621	469.16
405.834	141.48
406.048	6.31
406.261	594.08
406.474	665.76
406.687	47.27
406.9	192.68
407.114	315.56
407.327	395.43
407.54	-36.69
407.753	-26.45
407.966	200.87
408.179	510.11
408.392	73.9
408.605	-42.84
408.819	403.62
409.032	295.08
409.245	86.19
409.458	235.69
409.671	424.1
409.884	497.83
410.097	-55.12
410.31	219.3
410.523	399.52
410.736	266.41
410.949	104.62
411.162	176.3
411.375	737.44
411.588	503.97
411.801	235.69
412.014	53.42
412.227	317.61
412.44	190.63
412.653	147.62
412.865	219.3
413.078	610.47
413.291	434.34
413.504	241.83
413.717	135.34
413.93	594.08
414.143	104.62
414.356	247.97
414.568	-71.51
414.781	546.98
414.994	405.67
415.207	250.02
415.42	239.78
415.632	540.83
415.845	764.06
416.058	61.61
416.271	51.37
416.483	286.89
416.696	870.56
416.909	75.95
417.121	94.38
417.334	549.03
417.547	823.45
417.759	147.62
417.972	96.43
418.185	227.5
418.397	612.51
418.61	92.33
418.823	166.06
419.035	706.72
419.248	366.76
419.46	260.26
419.673	354.47
419.885	469.16
420.098	276.65
420.311	96.43
420.523	55.47
420.736	600.23
420.948	403.62
421.161	223.4
421.373	-36.69
421.586	403.62
421.798	266.41
422.01	37.03
422.223	325.8
422.435	338.09
422.648	667.81
422.86	204.97
423.073	227.5
423.285	727.2
423.497	250.02
423.71	53.42
423.922	166.06
424.134	544.93
424.347	880.8
424.559	487.59
424.771	485.54
424.984	405.67
425.196	678.05
425.408	86.19
425.621	215.21
425.833	702.62
426.045	788.64
426.257	116.9
426.47	276.65
426.682	622.75
426.894	628.9
427.106	313.51
427.318	356.52
427.531	393.38
427.743	716.96
427.955	288.93
428.167	772.25
428.379	587.94
428.591	518.31
428.804	422.05
429.016	256.17
429.228	565.41
429.44	721.06
429.652	608.42
429.864	207.02
430.076	555.17
430.288	551.07
430.5	305.32
430.712	346.28
430.924	831.65
431.136	762.02
431.348	280.74
431.56	303.27
431.772	587.94
431.984	587.94
432.196	436.39
432.408	377
432.62	469.16
432.832	721.06
433.044	747.68
433.256	452.77
433.468	817.31
433.679	407.72
433.891	266.41
434.103	680.1
434.315	1034.39
434.527	768.16
434.739	651.42
434.95	432.29
435.162	848.03
435.374	587.94
435.586	432.29
435.798	503.97
436.009	573.6
436.221	651.42
436.433	522.4
436.645	555.17
436.856	563.36
437.068	1054.87
437.28	495.78
437.491	768.16
437.703	854.17
437.915	891.04
438.126	567.46
438.338	725.15
438.55	768.16
438.761	860.32
438.973	587.94
439.184	544.93
439.396	854.17
439.608	950.43
439.819	501.92
440.031	643.23
440.242	1013.92
440.454	989.34
440.665	499.88
440.877	766.11
441.088	868.51
441.3	759.97
441.511	467.11
441.723	530.59
441.934	987.29
442.146	911.52
442.357	821.41
442.569	870.56
442.78	854.17
442.991	1235.1
443.203	956.57
443.414	530.59
443.626	1263.77
443.837	671.9
444.048	680.1
444.26	512.16
444.471	895.13
444.682	1067.16
444.894	497.83
445.105	514.21
445.316	1208.47
445.528	1114.27
445.739	772.25
445.95	776.35
446.161	952.48
446.373	1306.77
446.584	833.69
446.795	764.06
447.006	1257.62
447.217	1368.21
447.429	569.51
447.64	661.66
447.851	1331.35
448.062	1089.69
448.273	618.66
448.484	749.73
448.695	1235.1
448.907	891.04
449.118	858.27
449.329	1173.66
449.54	932
449.751	829.6
449.962	819.36
450.173	725.15
450.384	1411.22
450.595	1437.84
450.806	866.46
451.017	825.5
451.228	1456.28
451.439	1407.13
451.65	872.61
451.861	673.95
452.072	845.98
452.283	1157.27
452.494	1081.5
452.705	895.13
452.915	1544.34
453.126	1216.66
453.337	987.29
453.548	901.28
453.759	1501.33
453.97	1685.65
454.181	1296.53
454.391	1056.92
454.602	1276.06
454.813	1441.94
455.024	1087.64
455.235	913.56
455.445	1314.97
455.656	1398.93
455.867	1274.01
456.078	1034.39
456.288	1128.6
456.499	1415.32
456.71	1083.55
456.921	1374.36
457.131	1396.89
457.342	1433.75
457.553	1259.67
457.763	1175.7
457.974	1433.75
458.184	1530
458.395	1089.69
458.606	1056.92
458.816	1726.61
459.027	2011.28
459.237	1382.55
459.448	985.24
459.659	1755.28
459.869	1958.03
460.08	1122.46
460.29	1495.19
460.501	2074.76
460.711	1425.56
460.922	1151.13
461.132	1335.45
461.343	2230.41
461.553	1378.45
461.764	1411.22
461.974	1435.8
462.184	1710.22
462.395	1839.25
462.605	1558.67
462.816	1374.36
463.026	1812.62
463.236	2074.76
463.447	1536.15
463.657	1407.13
463.867	2078.86
464.078	1775.76
464.288	1583.25
464.498	1587.35
464.709	1853.58
464.919	1802.38
465.129	1575.06
465.339	1607.83
465.55	1998.99
465.76	2085
465.97	1792.14
466.18	1589.39
466.391	2185.35
466.601	1962.12
466.811	1802.38
467.021	1630.35
467.231	2246.79
467.441	2273.42
467.651	1767.57
467.862	1624.21
468.072	2205.83
468.282	2547.84
468.492	1781.9
468.702	2019.47
468.912	2312.33
469.122	2799.74
469.332	2310.28
469.542	1923.21
469.752	2607.23
469.962	2254.98
470.172	2160.78
470.382	2123.91
470.592	2791.55
470.802	2777.22
471.012	2308.23
471.222	2322.57
471.432	2594.95
471.642	2748.54
471.852	2478.21
472.062	2248.84
472.272	2529.41
472.482	2345.09
472.691	2525.32
472.901	2254.98
473.111	2771.07
473.321	3293.3
473.531	2502.79
473.741	2687.11
473.95	3076.22
474.16	3125.37
474.37	2857.09
474.58	2494.6
474.79	3440.76
474.999	3231.87
475.209	2756.74
475.419	2785.41
475.628	3010.68
475.838	3453.05
476.048	2990.21
476.258	3008.64
476.467	3549.3
476.677	3137.66
476.886	3324.02
477.096	3297.4
477.306	3344.5
477.515	3745.91
477.725	3297.4
477.935	3281.02
478.144	4006
478.354	3399.8
478.563	3434.61
478.773	3317.88
478.982	3987.57
479.192	3936.37
479.401	3725.43
479.611	3432.57
479.82	3799.15
480.03	4094.06
480.239	3713.14
480.449	3500.15
480.658	4571.24
480.868	3952.75
481.077	3917.93
481.287	3909.74
481.496	4343.91
481.705	4442.21
481.915	4231.27
482.124	4237.42
482.333	4270.19
482.543	4720.74
482.752	4188.27
482.961	4259.95
483.171	4540.52
483.38	4411.5
483.589	4393.06
483.799	4300.91
484.008	4542.57
484.217	4896.86
484.426	4542.57
484.636	4180.07
484.845	4903.01
485.054	4554.85
485.263	4903.01
485.472	4687.97
485.682	5300.31
485.891	5109.85
486.1	4561
486.309	4778.08
486.518	5187.68
486.727	5517.4
486.936	4816.99
487.146	4964.45
487.355	5539.93
487.564	5081.18
487.773	5101.66
487.982	5087.33
488.191	5285.98
488.4	5353.56
488.609	5285.98
488.818	5134.43
489.027	6101.07
489.236	6062.16
489.445	5503.06
489.654	5324.89
489.863	6137.93
490.072	5793.87
490.281	5861.46
490.49	5587.03
490.698	6269
490.907	6344.78
491.116	5687.38
491.325	5484.63
491.534	6170.7
491.743	6043.73
491.952	5888.08
492.16	5875.79
492.369	6283.34
492.578	6416.46
492.787	6056.01
492.996	6019.15
493.204	6228.04
493.413	6781
493.622	5711.96
493.831	6072.4
494.039	7004.22
494.248	6281.29
494.457	6312.01
494.665	6119.5
494.874	7022.66
495.083	7311.42
495.291	6451.27
495.5	6242.38
495.709	6879.3
495.917	6973.5
496.126	6387.79
496.335	6639.69
496.543	6729.8
496.752	6959.17
496.96	6924.35
497.169	6588.49
497.377	7051.33
497.586	7270.46
497.794	6950.98
498.003	6543.43
498.211	7161.92
498.42	7587.89
498.628	7024.7
498.837	6967.36
499.045	7534.65
499.254	7301.18
499.462	7082.05
499.671	7141.44
499.879	7919.67
500.087	7784.5
500.296	7358.52
500.504	7350.33
500.713	7757.88
500.921	8132.65
501.129	7272.51
501.338	7268.41
501.546	7606.33
501.754	7684.15
501.962	7395.39
502.171	7426.11
502.379	7997.49
502.587	8435.75
502.795	7786.55
503.004	7764.02
503.212	8052.78
503.42	8235.05
503.628	7596.09
503.837	7821.36
504.045	8316.97
504.253	8505.38
504.461	7764.02
504.669	7759.92
504.877	8226.86
505.085	8615.98
505.294	7895.09
505.502	8181.81
505.71	8376.36
505.918	8509.48
506.126	8349.74
506.334	8144.94
506.542	8523.82
506.75	8517.67
506.958	8402.99
507.166	8321.07
507.374	8595.5
507.582	8984.61
507.79	8407.08
507.998	8359.98
508.206	9056.29
508.414	8837.16
508.622	8482.86
508.83	8579.11
509.037	9195.55
509.245	8534.06
509.453	8624.17
509.661	8644.65
509.869	9140.26
510.077	8892.45
510.285	8839.2
510.492	8556.58
510.7	9658.39
510.908	9152.54
511.116	8706.09
511.324	8851.49
511.531	9277.47
511.739	9283.61
511.947	9066.53
512.155	9302.04
512.362	9252.89
512.57	9279.52
512.778	8896.55
512.985	8759.33
513.193	9660.44
513.401	9689.11
513.608	9160.73
513.816	9080.86
514.024	9631.77
514.231	9746.45
514.439	9183.26
514.646	9349.15
514.854	9801.75
515.061	9768.98
515.269	9388.06
515.477	9447.45
515.684	9463.83
515.892	10291.21
516.099	9605.14
516.307	9414.68
516.514	10096.66
516.722	10184.72
516.929	9570.33
517.136	9545.75
517.344	10137.62
517.551	10065.94
517.759	9701.4
517.966	9963.54
518.173	9963.54
518.381	10231.82
518.588	9996.31
518.796	9668.63
519.003	10639.37
519.21	10461.2
519.418	10045.46
519.625	10364.94
519.832	10274.83
520.039	10594.31
520.247	10037.27
520.454	10371.08
520.661	10729.48
520.868	10559.5
521.076	10422.28
521.283	10383.37
521.49	11159.55
521.697	10840.07
521.904	10403.85
522.112	10360.84
522.319	11030.53
522.526	10938.37
522.733	10582.03
522.94	10508.3
523.147	10813.45
523.354	11081.73
523.561	10534.92
523.768	10844.17
523.975	11059.2
524.183	11096.07
524.39	10997.76
524.597	10762.25
524.804	11280.38
525.011	10981.38
525.218	10856.45
525.425	10942.47
525.632	11456.51
525.838	11200.51
526.045	11051.01
526.252	11053.06
526.459	12638.19
526.666	12101.62
526.873	11210.75
527.08	11223.04
527.287	11986.93
527.494	11675.64
527.701	11458.56
527.907	11091.97
528.114	11872.25
528.321	11995.12
528.528	11755.51
528.735	11853.81
528.941	11573.24
529.148	11769.85
529.355	11526.14
529.562	11472.89
529.768	12457.96
529.975	11618.3
530.182	11528.19
530.388	11845.62
530.595	12267.5
530.802	11816.95
531.008	12019.7
531.215	11911.16
531.422	13019.11
531.628	12910.57
531.835	11966.45
532.042	12238.83
532.248	12242.93
532.455	12507.12
532.661	12378.09
532.868	12306.41
533.074	12912.61
533.281	13043.68
533.487	12318.7
533.694	12386.29
533.9	12574.7
534.107	12986.34
534.313	12480.49
534.52	12568.55
534.726	13023.2
534.933	13256.67
535.139	12328.94
535.345	12595.18
535.552	13234.14
535.758	13293.54
535.965	12603.37
536.171	12931.05
536.377	13459.42
536.584	13453.28
536.79	12640.23
536.996	12838.89
537.203	13340.64
537.409	13416.41
537.615	13074.4
537.821	13094.88
538.028	13821.91
538.234	13461.47
538.44	13117.41
538.646	13174.75
538.853	13639.64
539.059	13455.33
539.265	13518.81
539.471	13150.18
539.677	13881.3
539.883	13707.23
540.09	13385.69
540.296	14041.04
540.502	13893.59
540.708	13627.35
540.914	13780.95
541.12	13701.08
541.326	14190.55
541.532	13950.93
541.738	13830.1
541.944	13762.52
542.15	14383.06
542.356	14354.38
542.562	14112.72
542.768	13707.23
542.974	14979.01
543.18	14886.86
543.386	14022.61
543.592	13975.51
543.798	14890.95
544.004	14860.23
544.21	14290.9
544.415	14342.1
544.621	14854.09
544.827	14976.97
545.033	14309.33
545.239	14526.41
545.445	14612.43
545.651	14925.77
545.856	14569.42
546.062	14770.12
546.268	14557.13
546.474	14755.79
546.679	14565.32
546.885	14624.72
547.091	14747.59
547.297	15583.16
547.502	14802.89
547.708	14385.1
547.914	14757.83
548.119	14927.81
548.325	14700.49
548.531	14518.22
548.736	15370.18
548.942	15099.84
549.147	15028.17
549.353	15230.91
549.559	15474.62
549.764	15462.33
549.97	14874.57
550.175	14940.1
550.381	15669.18
550.586	15024.07
550.792	15077.32
550.997	15202.24
551.203	15706.04
551.408	15968.18
551.614	15091.65
551.819	15417.28
552.025	16050.1
552.23	16265.14
552.435	15265.73
552.641	16078.77
552.846	15517.63
553.052	16355.25
553.257	15622.08
553.462	15724.47
553.668	15663.04
553.873	16209.84
554.078	15855.54
554.283	15755.19
554.489	16635.82
554.694	16420.78
554.899	15871.93
555.105	16205.75
555.31	16639.92
555.515	16586.67
555.72	16525.23
555.925	16017.33
556.131	16857
556.336	16297.91
556.541	16342.96
556.746	16480.18
556.951	16781.23
557.156	16641.96
557.361	16615.34
557.567	16695.21
557.772	17108.9
557.977	17069.99
558.182	16496.56
558.387	16586.67
558.592	16736.17
558.797	17047.46
559.002	16443.31
559.207	16953.26
559.412	17084.33
559.617	17463.2
559.822	16715.69
560.027	16416.69
560.232	17100.71
560.437	17139.62
560.642	16809.9
560.847	16646.06
561.051	17143.72
561.256	17125.29
561.461	16930.73
561.666	16822.19
561.871	17475.49
562.076	17475.49
562.281	16920.49
562.485	16705.45
562.69	17668
562.895	17592.22
563.1	17254.31
563.305	17117.09
563.509	17975.19
563.714	18040.73
563.919	17338.27
564.123	17303.46
564.328	17733.53
564.533	17876.89
564.737	17203.11
564.942	17192.87
565.147	18020.25
565.351	18337.68
565.556	17610.65
565.761	17637.28
565.965	17907.61
566.17	17930.14
566.374	17401.76
566.579	17395.62
566.784	17952.66
566.988	18036.63
567.193	17766.3
567.397	17797.02
567.602	18085.78
567.806	17790.88
568.011	17876.89
568.215	18036.63
568.42	18159.51
568.624	17979.29
568.828	17647.52
569.033	18065.3
569.237	18712.46
569.442	18526.1
569.646	17725.34
569.85	18104.21
570.055	18597.77
570.259	18687.89
570.463	18319.25
570.668	18261.91
570.872	18552.72
571.076	18542.48
571.281	18386.83
571.485	18298.77
571.689	18771.85
571.893	18591.63
572.098	18655.12
572.302	18501.52
572.506	18929.55
572.71	18704.27
572.914	18577.3
573.119	18157.46
573.323	19304.32
573.527	19330.95
573.731	18880.39
573.935	18679.69
574.139	19132.29
574.343	18808.72
574.547	18712.46
574.751	18843.53
574.955	19584.9
575.159	19761.02
575.364	18882.44
575.568	18935.69
575.772	19134.34
575.976	19646.33
576.18	18904.97
576.383	19031.94
576.587	19834.75
576.791	19470.21
576.995	19189.64
577.199	19122.05
577.403	19851.13
577.607	19804.03
577.811	19140.49
578.015	19306.37
578.219	19693.44
578.422	19851.13
578.626	19511.17
578.83	19556.22
579.034	20244.34
579.238	19967.87
579.442	19543.94
579.645	20055.93
579.849	19906.43
580.053	20219.77
580.257	19703.68
580.46	19791.74
580.664	20172.66
580.868	20115.32
581.071	20203.38
581.275	20041.59
581.479	19947.39
581.682	20246.39
581.886	19883.9
582.09	20096.89
582.293	20490.1
582.497	20547.44
582.7	20385.65
582.904	20283.25
583.107	20498.29
583.311	20547.44
583.515	20240.25
583.718	20301.68
583.922	20746.09
584.125	20997.99
584.329	20080.5
584.532	20541.3
584.735	21186.41
584.939	20969.32
585.142	20442.99
585.346	20209.53
585.549	21071.72
585.753	20668.27
585.956	20608.88
586.159	21086.06
586.363	21499.75
586.566	21329.77
586.769	20811.63
586.973	20932.46
587.176	21380.96
587.379	21503.84
587.582	21286.76
587.786	20961.13
587.989	21409.64
588.192	22114.14
588.395	21176.17
588.599	21251.94
588.802	21811.04
589.005	21292.9
589.208	21245.8
589.411	21423.97
589.615	21899.1
589.818	21981.02
590.021	21606.24
590.224	21348.2
590.427	22038.36
590.63	21946.2
590.833	21368.68
591.036	21622.62
591.239	22001.5
591.442	21763.93
591.645	21874.52
591.848	21919.58
592.051	22083.42
592.254	22290.26
592.457	21917.53
592.66	21854.05
592.863	22187.86
593.066	22165.34
593.269	21862.24
593.472	22237.02
593.675	21948.25
593.878	22521.68
594.081	22243.16
594.284	21983.07
594.486	22759.25
594.689	22480.72
594.892	22421.33
595.095	22450
595.298	22814.54
595.5	22460.24
595.703	22710.1
595.906	22447.96
596.109	22859.6
596.311	23226.18
596.514	22390.61
596.717	22609.75
596.92	23465.8
597.122	22787.92
597.325	22415.19
597.528	22640.47
597.73	23482.18
597.933	23134.03
598.136	22841.17
598.338	22435.67
598.541	23306.06
598.743	23676.74
598.946	23002.96
599.148	22644.56
599.351	23615.3
599.554	23600.96
599.756	23000.91
599.959	23273.29
600.161	23619.39
600.363	24110.91
600.566	23697.22
600.768	23203.66
600.971	23826.24
601.173	23824.19
601.376	23349.06
601.578	23488.32
601.78	23783.23
601.983	23977.79
602.185	23285.58
602.388	23326.53
602.59	23832.38
602.792	23781.18
602.995	23738.18
603.197	23660.35
603.399	24178.49
603.601	24080.19
603.804	23467.84
604.006	23861.05
604.208	24033.08
604.41	23770.94
604.613	23691.07
604.815	23562.05
605.017	24377.14
605.219	23885.63
605.421	23705.41
605.623	23371.59
605.826	24450.87
606.028	24209.21
606.23	23947.07
606.432	23668.55
606.634	24565.56
606.836	24532.79
607.038	23797.57
607.24	24139.58
607.442	24033.08
607.644	24383.29
607.846	24254.26
608.048	23832.38
608.25	24723.25
608.452	24467.25
608.654	24186.68
608.856	23791.42
609.058	24377.14
609.26	24698.67
609.462	24360.76
609.664	24344.38
609.866	24880.94
610.067	24833.84
610.269	24608.56
610.471	24180.54
610.673	24405.81
610.875	24782.64
611.077	24311.61
611.278	24688.43
611.48	24471.35
611.682	25085.74
611.884	24534.84
612.085	23975.74
612.287	24874.8
612.489	24686.39
612.69	24274.74
612.892	24997.68
613.094	25001.77
613.295	24510.26
613.497	24381.24
613.699	24450.87
613.9	25026.35
614.102	25095.98
614.304	24829.74
614.505	24094.52
614.707	25087.79
614.908	24799.02
615.11	24553.27
615.311	24872.75
615.513	24893.23
615.714	25046.83
615.916	24676.15
616.117	24747.83
616.319	24928.05
616.52	25007.92
616.722	24811.31
616.923	24966.96
617.124	25458.47
617.326	25374.5
617.527	24923.95
617.729	25063.21
617.93	25394.98
618.131	25339.69
618.333	24704.82
618.534	24651.57
618.735	24989.49
618.937	25458.47
619.138	24213.31
619.339	24844.08
619.54	25474.85
619.742	25175.85
619.943	25175.85
620.144	25300.78
620.345	25814.82
620.546	25495.33
620.748	25399.08
620.949	25290.54
621.15	25603.88
621.351	25503.53
621.552	25253.67
621.753	25085.74
621.954	25378.6
622.155	25788.19
622.356	25415.46
622.558	25253.67
622.759	25601.83
622.96	25976.61
623.161	25347.88
623.362	25118.51
623.563	25710.37
623.764	25567.01
623.965	25440.04
624.166	25495.33
624.366	25530.15
624.567	26064.67
624.768	25317.16
624.969	25118.51
625.17	25665.32
625.371	25935.65
625.572	25450.28
625.773	25405.22
625.973	26138.4
626.174	25849.63
626.375	25804.58
626.576	25990.94
626.777	26103.58
626.977	26316.57
627.178	25829.15
627.379	25605.92
627.58	25659.17
627.78	25974.56
627.981	25780
628.182	26183.45
628.382	26425.11
628.583	25847.58
628.784	25769.76
628.984	26003.23
629.185	26576.66
629.386	26289.95
629.586	26162.97
629.787	26052.38
629.987	26279.71
630.188	26504.98
630.388	26392.34
630.589	26339.1
630.79	26652.44
630.99	26619.67
631.191	26036
631.391	26468.12
631.591	26341.14
631.792	27027.21
631.992	26717.97
632.193	26421.02
632.393	26640.15
632.594	26513.17
632.794	26251.03
632.994	26408.73
633.195	26511.13
633.395	26799.89
633.595	26126.11
633.796	26439.45
633.996	26629.91
634.196	26396.44
634.397	26478.36
634.597	26414.87
634.797	26441.5
634.997	26777.36
635.198	26654.48
635.398	26341.14
635.598	26900.24
635.798	27053.84
635.998	26609.43
636.199	26527.51
636.399	26822.42
636.599	26476.31
636.799	26427.16
636.999	26869.52
637.199	27115.28
637.399	27311.88
637.599	26613.52
637.799	26625.81
637.999	27035.41
638.199	27354.89
638.399	27068.17
638.599	26498.84
638.799	27395.85
638.999	27457.29
639.199	27078.41
639.399	27125.52
639.599	27676.42
639.799	26869.52
639.999	26769.17
640.199	27078.41
640.399	27301.64
640.599	26705.68
640.799	27166.48
640.998	27539.21
641.198	27389.7
641.398	27211.53
641.598	27129.61
641.798	27383.56
641.997	28333.82
642.197	27516.68
642.397	27340.55
642.597	27416.33
642.796	27850.5
642.996	28192.51
643.196	27295.5
643.395	27037.45
643.595	27991.81
643.795	27059.98
643.994	27588.36
644.194	27211.53
644.394	27741.96
644.593	27717.38
644.793	27399.94
644.992	27725.57
645.192	28061.44
645.392	27324.17
645.591	27473.67
645.791	27672.32
645.99	27838.21
646.19	27836.16
646.389	27653.89
646.589	27936.51
646.788	27905.79
646.987	28333.82
647.187	28081.92
647.386	28008.19
647.586	28475.13
647.785	28243.71
647.984	27954.94
648.184	27911.94
648.383	28002.05
648.582	28026.62
648.782	27952.9
648.981	28147.45
649.18	28106.49
649.38	28579.57
649.579	27942.66
649.778	28069.63
649.977	28733.17
650.177	28360.44
650.376	28065.53
650.575	27885.31
650.774	28858.1
650.973	28114.69
651.173	28022.53
651.372	28053.25
651.571	28323.58
651.77	28536.57
651.969	28043.01
652.168	28430.07
652.367	28202.75
652.566	28598.01
652.765	28616.44
652.964	28684.02
653.163	28966.64
653.362	28698.36
653.561	28292.86
653.76	28452.6
653.959	28444.41
654.158	28989.17
654.357	28520.18
654.556	28391.16
654.755	28802.8
654.954	28641.01
655.153	28393.21
655.352	28645.11
655.551	29175.53
655.749	28575.48
655.948	28530.42
656.147	29005.55
656.346	29193.97
656.545	28917.49
656.743	28638.97
656.942	29069.04
657.141	29167.34
657.34	28555
657.538	28655.35
657.737	28718.84
657.936	29038.32
658.135	29095.66
658.333	28821.23
658.532	29216.49
658.731	29652.71
658.929	29302.51
659.128	28966.64
659.326	28624.63
659.525	29654.76
659.724	29193.97
659.922	28557.05
660.121	28811
660.319	29169.39
660.518	28937.97
660.716	29224.68
660.915	29365.99
661.113	29386.47
661.312	28972.78
661.51	29146.86
661.709	28765.94
661.907	29212.4
662.105	29826.79
662.304	29110
662.502	29357.8
662.701	29933.28
662.899	29193.97
663.097	29337.32
663.296	29046.51
663.494	29357.8
663.692	29609.7
663.891	29060.85
664.089	28921.59
664.287	29216.49
664.485	29697.77
664.684	29150.96
664.882	29404.91
665.08	29148.91
665.278	29820.64
665.476	28661.49
665.675	29689.57
665.873	29771.49
666.071	29593.32
666.269	28921.59
666.467	28974.83
666.665	29236.97
666.863	28907.25
667.061	29515.5
667.259	29177.58
667.457	29607.65
667.655	29955.81
667.853	29249.26
668.051	29609.7
668.249	29234.92
668.447	29558.5
668.645	29026.03
668.843	29753.06
669.041	29718.25
669.239	29370.09
669.437	29511.4
669.635	29447.91
669.833	29626.09
670.031	29409
670.229	29562.6
670.426	29196.01
670.624	29517.54
670.822	29714.15
671.02	29191.92
671.218	29667.05
671.415	29279.98
671.613	29507.3
671.811	29419.24
672.009	29263.6
672.206	29853.41
672.404	29355.75
672.602	29519.59
672.799	29431.53
672.997	29644.52
673.195	29918.95
673.392	29243.12
673.59	29183.73
673.788	29759.2
673.985	28935.92
674.183	29251.31
674.38	29333.23
674.578	29957.86
674.775	29402.86
674.973	29601.51
675.17	29116.14
675.368	29867.75
675.565	29689.57
675.763	29077.23
675.96	29023.98
676.158	29933.28
676.355	29009.65
676.553	29320.94
676.75	29388.52
676.947	29697.77
677.145	29394.67
677.342	29454.06
677.539	29214.44
677.737	29312.75
677.934	29925.09
678.131	29589.22
678.329	29286.12
678.526	29769.44
678.723	29695.72
678.92	29695.72
679.118	29374.19
679.315	29116.14
679.512	29718.25
679.709	29583.08
679.906	29372.14
680.104	29775.59
680.301	29609.7
680.498	28829.43
680.695	29030.13
680.892	29466.35
681.089	29339.37
681.286	29198.06
681.483	28716.79
681.68	29255.4
681.877	29525.74
682.075	28913.39
682.272	29185.77
682.469	29222.64
682.665	29269.74
682.862	29058.8
683.059	28755.7
683.256	29269.74
683.453	29462.25
683.65	29507.3
683.847	29101.81
684.044	29261.55
684.241	29112.05
684.438	29202.16
684.635	28669.69
684.831	29736.68
685.028	29626.09
685.225	28878.58
685.422	28880.63
685.619	28985.07
685.815	29218.54
686.012	29079.28
686.209	28587.77
686.405	29175.53
686.602	29341.42
686.799	28450.55
686.996	28970.74
687.192	28636.92
687.389	29441.77
687.586	28753.65
687.782	28800.76
687.979	29515.5
688.175	29406.95
688.372	28821.23
688.568	29159.15
688.765	28520.18
688.962	29452.01
689.158	28761.84
689.355	28759.8
689.551	29122.29
689.748	28749.56
689.944	28788.47
690.14	28520.18
690.337	29177.58
690.533	29148.91
690.73	28802.8
690.926	28952.3
691.123	29095.66
691.319	28765.94
691.515	28774.13
691.712	29005.55
691.908	29198.06
692.104	28798.71
692.301	28786.42
692.497	28329.72
692.693	29247.21
692.889	29124.33
693.086	28587.77
693.282	28372.73
693.478	28751.6
693.674	29306.6
693.87	28329.72
694.067	28348.15
694.263	29130.48
694.459	28567.29
694.655	28919.54
694.851	28651.25
695.047	28964.59
695.243	28749.56
695.439	28616.44
695.635	28366.59
695.831	29118.19
696.027	28804.85
696.224	28352.25
696.42	28944.11
696.615	29226.73
696.811	29034.22
697.007	28522.23
697.203	28473.08
697.399	28378.87
697.595	28899.06
697.791	28339.96
697.987	28251.9
698.183	28149.5
698.379	28303.1
698.575	28591.86
698.77	28444.41
698.966	28825.33
699.162	28839.67
699.358	28356.35
699.554	28452.6
699.749	28960.5
699.945	28866.29
700.141	28421.88
700.337	28514.04
700.532	28802.8
700.728	28573.43
700.924	28210.94
701.119	27997.95
701.315	28536.57
701.511	28266.24
701.706	28624.63
701.902	27934.46
702.097	28434.17
702.293	28669.69
702.489	28436.22
702.684	28071.68
702.88	28180.22
703.075	27979.52
703.271	27750.15
703.466	28268.28
703.662	28344.06
703.857	28890.87
704.053	28182.27
704.248	28395.26
704.443	28438.26
704.639	28737.27
704.834	27981.57
705.03	28268.28
705.225	28204.8
705.42	28612.34
705.616	28124.93
705.811	27764.48
706.006	28016.38
706.202	28210.94
706.397	28161.79
706.592	27770.63
706.787	28026.62
706.983	28260.09
707.178	28901.11
707.373	28176.12
707.568	28366.59
707.763	28487.42
707.959	27979.52
708.154	27991.81
708.349	28350.2
708.544	28479.22
708.739	27963.14
708.934	27389.7
709.129	28194.56
709.324	28112.64
709.519	28026.62
709.714	27703.04
709.909	28528.38
710.104	27991.81
710.299	27805.44
710.494	28290.81
710.689	28399.35
710.884	28010.24
711.079	28141.31
711.274	27799.3
711.469	28524.28
711.664	28061.44
711.859	27623.17
712.054	27995.9
712.249	27987.71
712.443	28364.54
712.638	27494.15
712.833	27762.44
713.028	27993.86
713.223	27793.15
713.417	27956.99
713.612	27760.39
713.807	28110.59
714.002	28575.48
714.196	28219.13
714.391	27354.89
714.586	28421.88
714.78	27672.32
714.975	27922.18
715.17	27471.62
715.364	27731.72
715.559	28133.12
715.754	27002.64
715.948	27647.75
716.143	28129.02
716.337	27541.25
716.532	27854.59
716.726	27717.38
716.921	28083.97
717.115	28206.84
717.31	27336.46
717.504	28153.6
717.699	27662.08
717.893	27864.83
718.088	27086.61
718.282	27191.05
718.476	27870.98
718.671	27682.56
718.865	27197.2
719.059	26922.77
719.254	27506.44
719.448	27920.13
719.642	27197.2
719.837	26875.66
720.031	27457.29
720.225	27547.4
720.419	27291.4
720.614	26869.52
720.808	27582.21
721.002	27166.48
721.196	26879.76
721.39	26783.51
721.585	27215.63
721.779	27664.13
721.973	27092.75
722.167	26527.51
722.361	27033.36
722.555	27698.95
722.749	27154.19
722.943	27019.02
723.137	26625.81
723.331	27320.07
723.525	26560.28
723.719	26525.46
723.913	27422.47
724.107	27404.04
724.301	26558.23
724.495	26681.11
724.689	27608.84
724.883	27526.92
725.077	26707.73
725.271	26935.06
725.465	27596.55
725.659	26713.88
725.853	26711.83
726.046	26787.6
726.24	26437.4
726.434	26920.72
726.628	26570.52
726.822	26732.31
727.015	27481.86
727.209	27373.32
727.403	27066.13
727.596	26617.62
727.79	27234.06
727.984	27301.64
728.177	27121.42
728.371	26914.58
728.565	27086.61
728.758	27113.23
728.952	26738.45
729.146	26922.77
729.339	27350.79
729.533	27010.83
729.726	26881.81
729.92	26611.48
730.113	27272.97
730.307	27361.03
730.5	26275.61
730.694	26597.14
730.887	26812.18
731.081	27082.51
731.274	26535.7
731.468	26433.3
731.661	26513.17
731.854	26875.66
732.048	26750.74
732.241	26273.56
732.435	26783.51
732.628	27084.56
732.821	26517.27
733.014	26535.7
733.208	26511.13
733.401	27146
733.594	26679.06
733.788	26527.51
733.981	26619.67
734.174	26947.34
734.367	26601.24
734.56	26877.71
734.754	27002.64
734.947	26908.43
735.14	26709.78
735.333	26890
735.526	27244.3
735.719	26650.39
735.912	26625.81
736.105	26406.68
736.298	26803.99
736.491	26705.68
736.684	26539.8
736.877	26302.23
737.07	26808.08
737.263	27287.31
737.456	26666.77
737.649	26328.86
737.842	26701.59
738.035	26824.47
738.228	26554.13
738.421	26644.24
738.614	27105.04
738.807	27211.53
739	26351.38
739.192	26195.74
739.385	26945.3
739.578	26879.76
739.771	26744.59
739.964	26242.84
740.156	27068.17
740.349	26642.2
740.542	27031.31
740.735	26060.57
740.927	26492.69
741.12	26498.84
741.313	26646.29
741.505	26550.04
741.698	26752.79
741.891	26314.52
742.083	26595.09
742.276	26507.03
742.468	26840.85
742.661	26500.89
742.854	25939.74
743.046	26091.29
743.239	26691.35
743.431	26672.92
743.624	26242.84
743.816	26117.92
744.009	26554.13
744.201	26507.03
744.393	26527.51
744.586	26185.5
744.778	26435.35
744.971	26308.38
745.163	26511.13
745.355	26296.09
745.548	26570.52
745.74	26119.96
745.932	26158.88
746.125	26197.79
746.317	26879.76
746.509	26689.3
746.702	25986.85
746.894	26457.88
747.086	26263.32
747.278	26681.11
747.471	26203.93
747.663	26033.95
747.855	26478.36
748.047	26629.91
748.239	26474.26
748.431	25947.93
748.623	26912.53
748.815	26388.25
749.008	26146.59
749.2	25808.67
749.392	26273.56
749.584	26400.54
749.776	25925.41
749.968	26222.36
750.16	26556.18
750.352	26339.1
750.544	25743.14
750.736	25753.38
750.928	26357.53
751.12	26142.49
751.311	25667.36
751.503	26029.85
751.695	26023.71
751.887	25722.66
752.079	25442.09
752.271	25538.34
752.463	26701.59
752.654	26074.91
752.846	25528.1
753.038	25403.18
753.23	25693.99
753.421	25823.01
753.613	25194.28
753.805	26146.59
753.997	26083.1
754.188	26158.88
754.38	25397.03
754.572	25489.19
754.763	25790.24
754.955	25638.69
755.146	25683.75
755.338	25562.92
755.53	25593.64
755.721	25550.63
755.913	25485.09
756.104	24969.01
756.296	25753.38
756.487	25442.09
756.679	25050.92
756.87	25392.94
757.062	25169.71
757.253	25767.71
757.445	24909.61
757.636	25257.77
757.827	25421.61
758.019	26081.05
758.21	24911.66
758.401	25362.22
758.593	25671.46
758.784	25511.72
758.975	25022.25
759.167	25057.07
759.358	25327.4
759.549	25564.96
759.74	25020.2
759.932	24973.1
760.123	25095.98
760.314	24964.91
760.505	24792.88
760.696	24676.15
760.888	25679.65
761.079	25181.99
761.27	24780.59
761.461	24880.94
761.652	25130.8
761.843	24565.56
762.034	24663.86
762.225	25104.17
762.416	24901.42
762.607	24516.4
762.798	24774.45
762.989	24411.96
763.18	25489.19
763.371	24358.71
763.562	24524.6
763.753	24491.83
763.944	24882.99
764.135	24743.73
764.326	24665.91
764.517	24127.29
764.708	24667.95
764.899	24495.92
765.089	24287.03
765.28	24129.34
765.471	24557.36
765.662	24565.56
765.853	23979.84
766.043	23840.57
766.234	24485.69
766.425	24563.51
766.615	24229.69
766.806	23818.05
766.997	24313.66
767.187	24123.19
767.378	23953.21
767.569	23471.94
767.759	24104.76
767.95	24422.2
768.141	24061.76
768.331	24270.65
768.522	24088.38
768.712	24325.94
768.903	24043.32
769.093	23836.48
769.284	24178.49
769.474	23938.88
769.665	23285.58
769.855	23404.36
770.046	24338.23
770.236	23586.63
770.426	23756.61
770.617	23168.84
770.807	23887.68
770.998	24026.94
771.188	23680.83
771.378	23568.2
771.569	24074.04
771.759	24170.3
771.949	23166.79
772.139	23217.99
772.33	23424.84
772.52	24049.47
772.71	22998.86
772.9	23254.86
773.09	23795.52
773.281	24338.23
773.471	23088.97
773.661	23131.98
773.851	23883.58
774.041	23207.75
774.231	23009.1
774.421	23639.87
774.611	23336.77
774.802	23121.74
774.992	22892.37
775.182	22779.73
775.372	23611.2
775.562	23426.89
775.752	22959.95
775.942	22697.81
776.131	23390.02
776.321	23201.61
776.511	22890.32
776.701	22513.49
776.891	23435.08
777.081	22906.7
777.271	22501.2
777.461	23117.64
777.651	23037.77
777.84	23246.66
778.03	22574.93
778.22	22486.87
778.41	23461.7
778.599	22654.8
778.789	22507.35
778.979	22370.13
779.169	22347.61
779.358	22916.94
779.548	23117.64
779.738	22194.01
779.927	22865.74
780.117	22677.33
780.307	22224.73
780.496	21905.24
780.686	22611.79
780.875	23074.63
781.065	22343.51
781.254	21800.8
781.444	22253.4
781.633	22624.08
781.823	22200.15
782.012	21995.36
782.202	22398.8
782.391	22212.44
782.581	21962.59
782.77	22167.38
782.96	22687.57
783.149	22089.56
783.338	21976.92
783.528	21860.19
783.717	22519.64
783.906	22581.07
784.096	21813.09
784.285	22128.47
784.474	21866.33
784.663	21837.66
784.853	21690.21
785.042	22024.03
785.231	22095.71
785.42	22359.89
785.61	21792.61
785.799	21530.47
785.988	21864.29
786.177	21677.92
786.366	21735.26
786.555	21858.14
786.744	21929.82
786.933	21743.45
787.122	21571.43
787.312	21577.57
787.501	22042.46
787.69	21839.71
787.879	21645.15
788.068	21411.68
788.257	21190.5
788.445	21235.56
788.634	21421.92
788.823	21344.1
789.012	22015.83
789.201	21786.46
789.39	21624.67
789.579	20971.37
789.768	21645.15
789.957	21622.62
790.145	21342.05
790.334	21215.08
790.523	21227.37
790.712	21528.42
790.9	21419.88
791.089	21051.24
791.278	21821.28
791.467	21518.18
791.655	21362.53
791.844	21604.19
792.033	21297
792.221	21012.33
792.41	21098.34
792.599	20684.66
792.787	21409.64
792.976	21491.55
793.164	20649.84
793.353	21159.78
793.541	21327.72
793.73	21383.01
793.918	20868.97
794.107	20486
794.295	21319.53
794.484	21024.62
794.672	20660.08
794.861	20660.08
795.049	21004.14
795.238	21069.67
795.426	20475.76
795.614	20631.41
795.803	20973.42
795.991	21313.38
796.179	20520.82
796.368	20506.48
796.556	21258.09
796.744	20496.24
796.932	20608.88
797.121	20608.88
797.309	20682.61
797.497	20836.2
797.685	20629.36
797.874	20641.65
798.062	20750.19
798.25	20954.99
798.438	20543.35
798.626	20318.07
798.814	20887.4
799.002	21419.88
799.19	20563.82
799.378	20367.22
799.566	21079.91
799.755	20989.8
799.943	20522.87
800.131	20193.14
800.318	20909.93
800.506	20856.68
800.694	20363.12
800.882	20492.15
801.07	21053.29
801.258	20676.46
801.446	20424.56
801.634	20356.98
801.822	20766.57
802.01	20756.33
802.197	20778.86
802.385	20854.64
802.573	21163.88
802.761	20719.47
802.949	20432.75
803.136	20371.32
803.324	21243.75
803.512	20742
803.699	20508.53
803.887	20107.13
804.075	21321.57
804.262	20729.71
804.45	20389.75
804.638	20688.75
804.825	20739.95
805.013	20803.44
805.201	20789.1
805.388	20580.21
805.576	20938.6
805.763	21485.41
805.951	20701.04
806.138	20799.34
806.326	21198.7
806.513	21061.48
806.701	20920.17
806.888	20914.03
807.075	21217.13
807.263	21620.58
807.45	20780.91
807.638	20965.23
807.825	21661.54
808.012	21165.93
808.2	20770.67
808.387	21190.5
808.574	21079.91
808.761	21452.64
808.949	20842.35
809.136	21075.82
809.323	21041
809.51	21344.1
809.698	21534.56
809.885	21022.57
810.072	21446.5
810.259	21819.23
810.446	21075.82
810.633	21215.08
810.82	21667.68
811.008	21585.76
811.195	21448.55
811.382	21088.1
811.569	21346.15
811.756	21210.98
811.943	21268.33
812.13	21239.65
812.317	21319.53
812.504	21501.79
812.691	21462.88
812.878	21241.7
813.064	21811.04
813.251	21483.36
813.438	21155.69
813.625	21270.37
813.812	21206.89
813.999	21389.16
814.186	21170.02
814.372	21086.06
814.559	21411.68
814.746	21485.41
814.933	20993.9
815.12	21466.98
815.306	21192.55
815.493	21081.96
815.68	21233.51
815.866	21147.5
816.053	21579.62
816.24	21892.96
816.426	21071.72
816.613	21088.1
816.799	21565.28
816.986	21575.52
817.173	21163.88
817.359	21122.92
817.546	21204.84
817.732	20782.96
817.919	20553.59
818.105	20936.56
818.292	21100.39
818.478	21534.56
818.665	21098.34
818.851	21192.55
819.037	22015.83
819.224	21346.15
819.41	20997.99
819.597	20723.57
819.783	21378.92
819.969	21374.82
820.156	20930.41
820.342	21012.33
820.528	22003.55
820.714	21100.39
820.901	21141.35
821.087	20604.78
821.273	21417.83
821.459	21030.76
821.646	20954.99
821.832	21084.01
822.018	20979.56
822.204	20875.12
822.39	21012.33
822.576	20582.26
822.762	20895.6
822.948	20987.75
823.134	20801.39
823.32	20668.27
823.507	21116.78
823.693	20778.86
823.879	20936.56
824.065	20586.35
824.25	20856.68
824.436	20512.63
824.622	20371.32
824.808	20414.32
824.994	20727.66
825.18	20522.87
825.366	20526.96
825.552	20275.06
825.738	20557.68
825.923	20668.27
826.109	20715.37
826.295	20072.31
826.481	20264.82
826.667	20418.42
826.852	20553.59
827.038	20299.64
827.224	20684.66
827.409	20985.71
827.595	19955.58
827.781	20467.57
827.966	20694.89
828.152	20555.63
828.338	20064.12
828.523	19574.66
828.709	20109.18
828.894	20580.21
829.08	19820.41
829.266	19769.21
829.451	20119.42
829.637	20352.88
829.822	20041.59
830.008	19808.12
830.193	20404.08
830.378	20399.99
830.564	19863.42
830.749	19677.05
830.935	20238.2
831.12	20139.9
831.305	19709.82
831.491	19701.63
831.676	19525.5
831.861	19775.36
832.047	19482.5
832.232	19261.32
832.417	19976.06
832.602	19892.09
832.788	19441.54
832.973	19537.79
833.158	19541.89
833.343	19955.58
833.528	19681.15
833.714	19464.07
833.899	19748.73
834.084	19939.19
834.269	19844.99
834.454	19273.6
834.639	19742.59
834.824	19695.49
835.009	19416.96
835.194	19566.46
835.379	19670.91
835.564	19593.09
835.749	19220.36
835.934	18990.98
836.119	19437.44
836.304	19255.17
836.489	19050.38
836.674	19095.43
836.859	18806.67
837.044	19388.29
837.228	18984.84
837.413	18751.37
837.598	19261.32
837.783	19132.29
837.968	18855.82
838.152	18868.11
838.337	18499.47
838.522	19400.58
838.707	19439.49
838.891	18878.35
839.076	19265.41
839.261	19191.69
839.445	18857.87
839.63	18982.79
839.815	19308.42
839.999	18874.25
840.184	18669.45
840.368	18724.75
840.553	19124.1
840.737	19376
840.922	18356.11
841.106	19031.94
841.291	18622.35
841.475	18689.93
841.66	18603.92
841.844	18274.2
842.029	19449.73
842.213	18319.25
842.397	18505.62
842.582	17926.04
842.766	18962.31
842.951	18751.37
843.135	18323.35
843.319	18364.31
843.504	18433.94
843.688	18818.96
843.872	17964.95
844.056	18075.54
844.241	18616.21
844.425	18208.66
844.609	18343.83
844.793	17983.38
844.977	18757.52
845.161	18315.16
845.346	17776.54
845.53	18046.87
845.714	18179.99
845.898	18741.13
846.082	17854.36
846.266	17917.85
846.45	18175.89
846.634	18073.49
846.818	17743.77
847.002	18042.78
847.186	18286.48
847.37	17610.65
847.554	17665.95
847.738	17588.13
847.922	18075.54
848.106	18327.44
848.29	17461.15
848.473	17813.4
848.657	17930.14
848.841	18198.42
849.025	17514.4
849.209	17643.42
849.392	18057.11
849.576	18020.25
849.76	17098.66
849.944	17737.63
850.127	18036.63
850.311	17504.16
850.495	17430.43
850.678	17371.04
850.862	18263.96
851.046	18179.99
851.229	17428.38
851.413	17205.16
851.596	17604.51
851.78	17698.72
851.964	17672.09
852.147	17192.87
852.331	18061.21
852.514	17803.16
852.698	17184.68
852.881	17115.05
853.065	17569.69
853.248	17592.22
853.431	16977.83
853.615	17010.6
853.798	18255.76
853.982	17235.88
854.165	17223.59
854.348	16922.54
854.532	17475.49
854.715	17254.31
854.898	16945.06
855.081	16904.1
855.265	17588.13
855.448	17620.89
855.631	16633.77
855.814	16934.82
855.997	17495.97
856.181	16971.69
856.364	16750.51
856.547	16832.43
856.73	17391.52
856.913	17037.22
857.096	16326.58
857.279	16734.12
857.462	16930.73
857.645	17274.79
857.828	16793.51
858.011	16582.57
858.194	16754.6
858.377	17002.41
858.56	16283.57
858.743	16787.37
858.926	16627.63
859.109	17031.08
859.292	16576.43
859.475	16093.11
859.658	16844.71
859.841	16797.61
860.023	16269.23
860.206	16152.5
860.389	16412.59
860.572	16754.6
860.755	16121.78
860.937	16033.72
861.12	16197.56
861.303	16197.56
861.486	16041.91
861.668	15845.3
861.851	16664.49
862.034	16611.25
862.216	15992.76
862.399	15695.8
862.581	16316.34
862.764	16318.39
862.947	15837.11
863.129	15697.85
863.312	15620.03
863.494	16297.91
863.677	15992.76
863.859	15591.36
864.042	16072.63
864.224	16295.86
864.406	15583.16
864.589	15361.98
864.771	15939.51
864.954	15640.51
865.136	15646.65
865.318	15069.12
865.501	15847.35
865.683	15501.25
865.865	15787.96
866.048	15521.73
866.23	15675.32
866.412	15484.86
866.594	15075.27
866.777	15552.45
866.959	15738.81
867.141	15628.22
867.323	15620.03
867.505	15448
867.687	15587.26
867.869	15626.17
868.052	15249.35
868.234	15306.69
868.416	15241.15
868.598	15546.3
868.78	15275.97
868.962	15069.12
869.144	15722.43
869.326	15683.52
869.508	14868.42
869.69	15122.37
869.872	15130.56
870.054	15800.25
870.236	14950.34
870.417	15192
870.599	15388.61
870.781	16011.19
870.963	15329.22
871.145	15278.02
871.327	15187.91
871.508	15572.93
871.69	15128.52
871.872	15267.78
872.054	15493.05
872.235	15357.89
872.417	15267.78
872.599	14827.46
872.78	15796.15
872.962	15126.47
873.144	14716.87
873.325	15142.85
873.507	15794.11
873.689	15288.26
873.87	15183.81
874.052	15194.05
874.233	15091.65
874.415	15581.12
874.596	15040.45
874.778	14985.16
874.959	15192
875.141	15372.22
875.322	15204.29
875.503	15161.28
875.685	15421.38
875.866	14651.34
876.048	15042.5
876.229	15105.99
876.41	15476.67
876.592	15427.52
876.773	15239.11
876.954	14733.26
877.136	15669.18
877.317	15321.02
877.498	14942.15
877.679	15198.15
877.86	15382.46
878.042	15237.06
878.223	15175.62
878.404	15192
878.585	15486.91
878.766	15716.28
878.947	15411.14
879.128	15257.54
879.309	15587.26
879.49	15697.85
879.672	15159.24
879.853	15103.94
880.034	15226.82
880.215	15486.91
880.396	15374.27
880.576	15255.49
880.757	15292.35
880.938	15861.69
881.119	15161.28
881.3	15292.35
881.481	15407.04
881.662	16588.72
881.843	15214.53
882.023	15396.8
882.204	15841.21
882.385	15978.42
882.566	15314.88
882.747	15345.6
882.927	15796.15
883.108	15677.37
883.289	15534.01
883.469	16082.87
883.65	15884.22
883.831	15984.57
884.011	15828.92
884.192	15736.76
884.373	15933.37
884.553	16082.87
884.734	15738.81
884.914	16089.01
885.095	16707.5
885.275	16367.54
885.456	16224.18
885.636	15458.24
885.817	15820.73
885.997	16015.29
886.178	15849.4
886.358	15794.11
886.538	16234.42
886.719	17258.4
886.899	15720.38
887.08	16031.67
887.26	16660.4
887.44	15966.14
887.621	15884.22
887.801	15939.51
887.981	16680.88
888.161	16564.14
888.342	16209.84
888.522	16166.84
888.702	16627.63
888.882	16828.33
889.062	16504.75
889.242	15855.54
889.423	16639.92
889.603	16437.17
889.783	16349.11
889.963	16220.08
890.143	16502.7
890.323	16752.56
890.503	16248.75
890.683	16279.47
890.863	16500.65
891.043	16715.69
891.223	16480.18
891.403	16508.85
891.583	16551.85
891.763	16777.13
891.943	16242.61
892.122	16222.13
892.302	16879.53
892.482	16541.61
892.662	16441.26
892.842	16631.72
893.022	16560.05
893.201	16517.04
893.381	16693.16
893.561	16261.04
893.741	16603.05
893.92	16435.12
894.1	16261.04
894.28	16490.42
894.459	16779.18
894.639	16748.46
894.819	16205.75
894.998	16504.75
895.178	16699.31
895.357	16791.47
895.537	16113.59
895.716	16191.41
895.896	16467.89
896.075	16977.83
896.255	16250.8
896.434	15957.94
896.614	16914.34
896.793	16813.99
896.973	16488.37
897.152	16115.64
897.331	16582.57
897.511	16566.19
897.69	16091.06
897.87	16123.83
898.049	16437.17
898.228	16582.57
898.407	16295.86
898.587	16297.91
898.766	16394.16
898.945	16588.72
899.124	16160.69
899.304	16177.08
899.483	16601.01
899.662	16689.07
899.841	15992.76
900.02	15937.46
900.199	16697.26
900.378	16310.19
900.557	16084.92
900.737	15763.39
900.916	16316.34
901.095	16410.54
901.274	16021.43
901.453	15667.13
901.632	15853.5
901.811	15849.4
901.989	15523.77
902.168	15617.98
902.347	16334.77
902.526	15837.11
902.705	15781.82
902.884	16017.33
903.063	16408.5
903.242	16201.65
903.42	15718.33
903.599	15783.87
903.778	16179.12
903.957	15953.85
904.135	15886.26
904.314	15663.04
904.493	15601.6
904.672	15716.28
904.85	15456.19
905.029	15364.03
905.207	15921.08
905.386	16293.81
905.565	15241.15
905.743	15325.12
905.922	15327.17
906.1	15830.97
906.279	15196.1
906.457	15093.7
906.636	15396.8
906.814	15517.63
906.993	15194.05
907.171	15058.88
907.35	15599.55
907.528	15699.9
907.707	15230.91
907.885	15255.49
908.063	15716.28
908.242	15331.26
908.42	14733.26
908.598	14714.83
908.777	15331.26
908.955	14962.63
909.133	15163.33
909.311	14804.94
909.49	14913.48
909.668	15042.5
909.846	14884.81
910.024	14438.35
910.202	15183.81
910.38	15173.57
910.559	14366.67
910.737	14366.67
910.915	15017.93
911.093	14979.01
911.271	14417.87
911.449	14641.1
911.627	14886.86
911.805	15067.08
911.983	14395.34
912.161	14135.25
912.339	14669.77
912.517	14573.52
912.695	14395.34
912.872	14331.86
913.05	14559.18
913.228	14675.91
913.406	14014.42
913.584	13912.02
913.762	14489.55
913.939	14223.31
914.117	13961.17
914.295	13797.34
914.473	14397.39
914.65	14231.51
914.828	13619.16
915.006	13850.58
915.184	13858.78
915.361	14137.3
915.539	14082
915.716	14004.18
915.894	13942.74
916.072	14055.38
916.249	13830.1
916.427	13971.41
916.604	13633.5
916.782	13586.4
916.959	13357.02
917.137	13531.1
917.314	13879.25
917.492	13731.8
917.669	13342.69
917.847	13445.09
918.024	13617.11
918.201	13383.65
918.379	13342.69
918.556	13105.12
918.733	13719.51
918.911	13412.32
919.088	13332.45
919.265	13178.85
919.442	13432.8
919.62	13305.82
919.797	13033.44
919.974	12732.39
920.151	13166.56
920.328	13033.44
920.506	12783.59
920.683	12939.24
920.86	12818.41
921.037	12701.67
921.214	12826.6
921.391	12337.13
921.568	13062.12
921.745	12589.03
921.922	12408.81
922.099	12525.55
922.276	13045.73
922.453	12613.61
922.63	12333.04
922.807	12531.69
922.984	12533.74
923.161	12230.64
923.338	12371.95
923.514	12161.01
923.691	12310.51
923.868	12451.82
924.045	12052.47
924.222	11726.84
924.399	12230.64
924.575	12333.04
924.752	12056.56
924.929	12017.65
925.105	12124.15
925.282	11819
925.459	11714.55
925.635	11739.13
925.812	11843.57
925.989	11765.75
926.165	11819
926.342	11388.92
926.518	11610.11
926.695	11687.93
926.871	11405.31
927.048	11241.47
927.224	11593.72
927.401	11249.66
927.577	11188.22
927.754	11026.43
927.93	11802.61
928.107	11655.16
928.283	10985.48
928.459	10977.28
928.636	11190.27
928.812	11100.16
928.988	10788.87
929.165	10618.89
929.341	11102.21
929.517	10969.09
929.693	10608.65
929.87	10469.39
930.046	10887.17
930.222	10336.27
930.398	10373.13
930.574	10649.61
930.751	11018.24
930.927	10516.49
931.103	10217.49
931.279	10309.65
931.455	10170.38
931.631	10321.93
931.807	10194.96
931.983	9953.3
932.159	9906.2
932.335	10072.08
932.511	9902.1
932.687	9740.31
932.863	10217.49
933.039	10018.83
933.215	9533.47
933.391	9443.35
933.566	9932.82
933.742	9734.17
933.918	9291.8
934.094	9025.57
934.27	9562.14
934.445	9474.07
934.621	9373.72
934.797	8824.87
934.973	9322.52
935.148	9164.83
935.324	8538.15
935.5	8480.81
935.675	9048.1
935.851	8765.48
936.027	8378.41
936.202	8321.07
936.378	8521.77
936.553	8349.74
936.729	8339.5
936.904	7788.6
937.08	7725.11
937.255	7698.49
937.431	7235.64
937.606	7129.15
937.782	7221.31
937.957	7467.06
938.133	7135.29
938.308	6752.32
938.483	6967.36
938.659	6860.87
938.834	6781
939.009	6662.21
939.185	6529.1
939.36	6404.17
939.535	6033.49
939.71	6338.63
939.886	6694.98
940.061	6369.35
940.236	6010.96
940.411	5957.71
940.586	6180.94
940.761	6099.02
940.937	5806.16
941.112	5691.48
941.287	5974.1
941.462	5695.57
941.637	5458.01
941.812	5607.51
941.987	5775.44
942.162	5453.91
942.337	5351.51
942.512	5279.83
942.687	5630.04
942.862	5636.18
943.037	4888.67
943.212	4890.72
943.386	5259.35
943.561	5333.08
943.736	5257.31
943.911	5245.02
944.086	5421.14
944.26	5283.93
944.435	5019.74
944.61	4931.68
944.785	5556.31
944.959	5523.54
945.134	4984.93
945.309	4755.55
945.483	5009.5
945.658	5181.53
945.833	4591.72
946.007	4810.85
946.182	5548.12
946.357	4956.26
946.531	4735.07
946.706	4800.61
946.88	4554.85
947.055	5140.57
947.229	4790.37
947.404	4771.94
947.578	5400.66
947.752	4943.97
947.927	4933.73
948.101	4712.55
948.276	5138.52
948.45	5097.56
948.624	5118.04
948.799	4853.86
948.973	5165.15
949.147	4751.46
949.321	5034.08
949.496	4823.14
949.67	5304.41
949.844	5048.41
950.018	4833.38
950.193	4755.55
950.367	5451.86
950.541	5007.45
950.715	5011.55
950.889	5064.8
951.063	5208.16
951.237	5261.4
951.411	4515.94
951.585	4780.13
951.759	5116
951.933	5027.93
952.107	4849.76
952.281	4905.06
952.455	5453.91
952.629	5277.79
952.803	4730.98
952.977	4837.47
953.151	5261.4
953.325	5189.72
953.499	4900.96
953.672	4831.33
953.846	4909.15
954.02	5072.99
954.194	4685.92
954.368	4728.93
954.541	5218.4
954.715	4888.67
954.889	5042.27
955.062	4583.52
955.236	5087.33
955.41	4847.71
955.583	4780.13
955.757	4483.17
955.93	4984.93
956.104	4544.61
956.278	4728.93
956.451	4788.32
956.625	4927.58
956.798	5568.6
956.972	5025.89
957.145	4761.7
957.319	5066.85
957.492	4974.69
957.665	4870.24
957.839	4647.01
958.012	4962.4
958.185	4900.96
958.359	4712.55
958.532	4853.86
958.705	5111.9
958.879	5011.55
959.052	4728.93
959.225	4462.69
959.398	4857.95
959.572	4933.73
959.745	4601.96
959.918	4548.71
960.091	4716.64
960.264	4671.59
960.438	4536.42
960.611	4561
960.784	4946.02
960.957	4634.72
961.13	4933.73
961.303	4520.04
961.476	4745.31
961.649	5060.7
961.822	4505.7
961.995	4606.05
962.168	4892.77
962.341	4860
962.514	4642.92
962.686	4685.92
962.859	4718.69
963.032	4950.11
963.205	4360.3
963.378	4323.43
963.551	4829.28
963.723	4671.59
963.896	4540.52
964.069	4589.67
964.242	4771.94
964.414	5068.89
964.587	4565.09
964.76	4606.05
964.932	4726.88
965.105	4556.9
965.278	4393.06
965.45	4436.07
965.623	4739.17
965.795	4933.73
965.968	4425.83
966.14	4472.93
966.313	4636.77
966.485	4665.44
966.658	4464.74
966.83	4274.28
967.003	4737.12
967.175	4659.3
967.348	4335.72
967.52	4368.49
967.692	4950.11
967.865	4845.66
968.037	4450.41
968.209	4630.63
968.382	4393.06
968.554	4712.55
968.726	4417.64
968.898	4073.58
969.071	4833.38
969.243	4665.44
969.415	4380.78
969.587	4296.81
969.759	5052.51
969.932	4677.73
970.104	4464.74
970.276	3987.57
970.448	4298.86
970.62	4192.36
970.792	4358.25
970.964	4356.2
971.136	5017.69
971.308	4395.11
971.48	4030.57
971.652	4036.72
971.824	4739.17
971.996	4245.61
972.168	4106.35
972.339	4124.78
972.511	4528.23
972.683	4202.6
972.855	4358.25
973.027	4096.11
973.199	4345.96
973.37	4493.41
973.542	4225.13
973.714	4132.97
973.886	4257.9
974.057	4466.79
974.229	3946.61
974.401	3989.61
974.572	4231.27
974.744	3815.54
974.915	3864.69
975.087	3950.7
975.259	4610.15
975.43	3891.31
975.602	3932.27
975.773	3901.55
975.945	3967.09
976.116	4292.71
976.288	3874.93
976.459	4104.3
976.63	4227.18
976.802	4241.51
976.973	3854.45
977.145	4110.44
977.316	4655.2
977.487	4200.55
977.659	4069.48
977.83	3750
978.001	4651.11
978.172	4069.48
978.344	3807.34
978.515	3780.72
978.686	4028.53
978.857	4313.19
979.028	3881.07
979.2	3805.3
979.371	4253.8
979.542	4016.24
979.713	3962.99
979.884	3356.79
980.055	3829.87
980.226	4032.62
980.397	3860.59
980.568	3596.4
980.739	4227.18
980.91	3829.87
981.081	3938.41
981.252	3541.11
981.423	4081.77
981.594	4212.84
981.765	3627.12
981.936	3797.1
982.106	3872.88
982.277	4108.4
982.448	3459.19
982.619	3727.47
982.79	3827.82
982.96	3944.56
983.131	3627.12
983.302	3422.33
983.472	3743.86
983.643	3809.39
983.814	3629.17
983.984	3545.2
984.155	3862.64
984.326	4085.87
984.496	3631.22
984.667	3534.96
984.837	3526.77
985.008	3911.79
985.178	3721.33
985.349	3444.85
985.519	3694.71
985.69	3491.96
985.86	3469.43
986.031	3469.43
986.201	3827.82
986.371	3731.57
986.542	3377.27
986.712	3172.47
986.882	3762.29
987.053	3803.25
987.223	3317.88
987.393	3610.74
987.563	3516.53
987.734	3713.14
987.904	3700.85
988.074	3299.45
988.244	3668.08
988.414	3463.29
988.585	3217.53
988.755	3436.66
988.925	3313.78
989.095	3876.98
989.265	3231.87
989.435	3367.03
989.605	3569.78
989.775	3639.41
989.945	3561.59
990.115	3094.65
990.285	3537.01
990.455	3401.85
990.625	3197.05
990.795	3049.6
990.965	3709.04
991.134	3123.32
991.304	3139.71
991.474	3006.59
991.644	3489.91
991.814	3807.34
991.984	3059.84
992.153	2971.77
992.323	3303.54
992.493	3369.08
992.662	2941.05
992.832	3326.07
993.002	3297.4
993.171	3422.33
993.341	2939.01
993.511	3242.11
993.68	3098.75
993.85	3457.14
994.019	2877.57
994.189	2867.33
994.358	3281.02
994.528	3100.8
994.697	2824.32
994.867	2877.57
995.036	3364.98
995.206	3227.77
995.375	2916.48
995.544	3012.73
995.714	3297.4
995.883	3156.09
996.052	3029.12
996.222	2732.16
996.391	3641.46
996.56	3162.23
996.73	2766.98
996.899	2762.88
997.068	3473.53
997.237	3121.28
997.406	2668.67
997.576	2738.3
997.745	3111.04
997.914	3242.11
998.083	2553.99
998.252	2646.15
998.421	3121.28
998.59	2742.4
998.759	2637.95
998.928	2601.09
999.097	3358.84
999.266	3061.88
999.435	2814.08
999.604	2506.88
999.773	3612.79
999.942	2828.42
1000.111	2453.64
1000.28	2484.36
1000.448	2644.1
1000.617	2705.54
1000.786	2777.22
1000.955	2472.07
1001.124	2936.96
1001.292	3428.47
1001.461	2521.22
1001.63	2537.6
1001.798	3135.61
1001.967	3143.8
1002.136	2492.55
1002.304	2506.88
1002.473	2820.22
1002.642	2939.01
1002.81	2547.84
1002.979	2447.49
1003.147	2977.92
1003.316	3328.12
1003.484	2363.53
1003.653	2449.54
1003.821	3012.73
1003.99	2693.25
1004.158	2584.71
1004.327	2429.06
1004.495	2730.11
1004.663	2566.28
1004.832	2562.18
1005	2156.68
1005.168	2711.68
1005.337	2736.26
1005.505	2238.6
1005.673	2492.55
1005.842	2797.7
1006.01	2699.39
1006.178	2158.73
1006.346	2349.19
1006.514	2592.9
1006.683	2971.77
1006.851	2263.18
1007.019	2218.12
1007.187	2406.53
1007.355	2293.9
1007.523	2095.24
1007.691	2195.59
1007.859	2322.57
1008.027	2793.6
1008.195	2199.69
1008.363	2025.61
1008.531	2644.1
1008.699	2447.49
1008.867	2166.92
1009.035	2037.9
1009.203	2783.36
1009.37	2488.45
1009.538	2164.87
1009.706	2588.8
1009.874	2566.28
1010.042	2302.09
1010.209	2001.04
1010.377	2099.34
1010.545	2713.73
1010.713	2478.21
1010.88	1853.58
1011.048	2123.91
1011.216	2302.09
1011.383	2728.07
1011.551	1953.93
1011.718	1917.07
1011.886	2631.81
1012.054	2336.9
1012.221	1915.02
1012.389	2052.24
1012.556	2181.26
1012.724	2680.96
1012.891	2017.42
1013.058	1779.86
1013.226	2412.68
1013.393	2478.21
1013.561	1824.91
1013.728	1847.44
1013.895	2420.87
1014.063	2347.14
1014.23	1769.62
1014.397	1826.96
1014.565	2547.84
1014.732	2132.11
1014.899	1857.68
1015.066	1812.62
1015.233	2181.26
1015.401	2404.49
1015.568	1980.56
1015.735	1898.64
1015.902	2193.55
1016.069	2173.07
1016.236	1726.61
1016.403	1663.12
1016.57	1912.97
1016.737	2250.89
1016.904	1812.62
1017.071	1656.98
1017.238	1702.03
1017.405	2234.5
1017.572	1796.24
1017.739	1943.69
1017.906	2123.91
1018.073	2357.38
1018.24	1618.07
1018.407	1683.6
1018.573	2259.08
1018.74	1982.6
1018.907	1761.42
1019.074	1484.95
1019.241	2259.08
1019.407	1994.89
1019.574	1618.07
1019.741	1505.43
1019.907	2132.11
1020.074	2101.39
1020.241	1345.69
1020.407	1435.8
1020.574	2082.95
1020.74	1919.12
1020.907	1646.74
1021.073	1419.41
1021.24	2394.25
1021.406	2381.96
1021.573	1278.1
1021.739	1562.77
1021.906	2160.78
1022.072	1831.05
1022.239	1462.42
1022.405	1564.82
1022.571	1951.88
1022.738	1691.79
1022.904	1546.39
1023.07	1452.18
1023.237	1759.38
1023.403	2105.48
1023.569	1437.84
1023.735	1538.2
1023.902	1742.99
1024.068	1829.01
1024.234	1269.91
1024.4	1376.41
1024.566	1937.55
1024.732	1992.84
1024.898	1435.8
1025.065	1251.48
1025.231	1994.89
1025.397	1669.27
1025.563	1448.08
1025.729	1206.42
1025.895	1345.69
1026.061	1480.85
1026.227	1173.66
1026.392	1347.73
1026.558	1939.6
1026.724	1702.03
1026.89	1282.2
1027.056	1452.18
1027.222	1800.34
1027.388	1525.91
1027.553	1147.03
1027.719	1222.81
1027.885	1917.07
1028.051	1648.79
1028.216	1065.11
1028.382	1245.34
1028.548	1822.86
1028.713	1392.79
1028.879	1042.59
1029.045	1274.01
1029.21	1851.53
1029.376	1826.96
1029.541	1235.1
1029.707	1132.7
1029.873	1618.07
1030.038	1693.84
1030.204	1018.01
1030.369	1216.66
1030.534	1661.07
1030.7	1400.98
1030.865	1226.9
1031.031	1075.35
1031.196	1570.96
1031.361	1548.44
1031.527	1018.01
1031.692	1001.63
1031.857	1095.83
1032.023	1677.46
1032.188	1079.45
1032.353	1142.94
1032.518	1775.76
1032.684	1507.48
1032.849	884.89
1033.014	1165.46
1033.179	1493.14
1033.344	1568.91
1033.509	1214.62
1033.674	1112.22
1033.839	1521.81
1034.004	1575.06
1034.17	1058.97
1034.335	944.28
1034.5	1306.77
1034.664	1140.89
1034.829	1015.96
1034.994	1079.45
1035.159	1398.93
1035.324	1374.36
1035.489	1026.2
1035.654	901.28
1035.819	1691.79
1035.984	1411.22
1036.148	1136.79
1036.313	958.62
1036.478	1534.1
1036.643	1284.25
1036.807	878.75
1036.972	841.89
1037.137	1642.64
1037.301	1280.15
1037.466	776.35
1037.631	946.33
1037.795	1601.68
1037.96	1231
1038.124	1073.31
1038.289	649.38
1038.454	1292.44
1038.618	1357.97
1038.783	921.76
1038.947	944.28
1039.111	1226.9
1039.276	1089.69
1039.44	837.79
1039.605	1247.38
1039.769	1118.36
1039.933	1194.14
1040.098	897.18
1040.262	1110.17
1040.426	1454.23
1040.591	1321.11
1040.755	719.01
1040.919	741.54
1041.083	1380.5
1041.248	1173.66
1041.412	655.52
1041.576	637.09
1041.74	1042.59
1041.904	1370.26
1042.068	692.38
1042.232	864.41
1042.397	1419.41
1042.561	1196.18
1042.725	514.21
1042.889	915.61
1043.053	1269.91
1043.217	1228.95
1043.381	813.21
1043.544	575.65
1043.708	1382.55
1043.872	845.98
1044.036	469.16
1044.2	587.94
1044.364	1415.32
1044.528	1388.69
1044.691	3772.53
1044.855	587.94
1045.019	1331.35
1045.183	1159.32
1045.346	698.53
1045.51	598.18
1045.674	1243.29
1045.837	1220.76
1046.001	768.16
1046.165	616.61
1046.328	1501.33
1046.492	1085.59
1046.655	841.89
1046.819	669.86
1046.983	929.95
1047.146	1231
1047.31	735.39
1047.473	524.45
1047.636	1040.54
1047.8	821.41
1047.963	704.67
1048.127	630.95
1048.29	809.12
