Data from Ink_Intensity_USB4F045381__188__00188.txt Node

Date: Mon Jul 17 11:43:53 EDT 2023
User: mmckonesweet
Spectrometer: USB4F04538
Trigger mode: 4
Integration Time (sec): 9.000000E-1
Scans to average: 1
Electric dark correction enabled: true
Nonlinearity correction enabled: false
Boxcar width: 0
XAxis mode: Wavelengths
Number of Pixels in Spectrum: 3648
>>>>>Begin Spectral Data<<<<<
345.52	-1006.41
345.736	-1006.41
345.952	-1006.41
346.168	-1022.79
346.384	-1020.74
346.6	-95.06
346.816	-201.55
347.032	-205.65
347.248	244.9
347.464	-144.21
347.68	-152.4
347.896	93.35
348.112	365.73
348.328	-168.79
348.544	7.34
348.76	-0.85
348.975	257.19
349.191	-283.47
349.407	-146.26
349.623	-31.57
349.839	-107.35
350.055	-160.59
350.27	17.58
350.486	128.17
350.702	384.16
350.918	228.52
351.133	-199.51
351.349	148.65
351.565	375.97
351.781	-226.13
351.996	-25.43
352.212	242.85
352.428	-150.36
352.644	-230.23
352.859	-279.38
353.075	283.81
353.291	126.12
353.506	-156.5
353.722	-277.33
353.938	44.2
354.153	388.26
354.369	25.77
354.584	-191.31
354.8	195.75
355.016	-254.8
355.231	-283.47
355.447	-146.26
355.662	93.35
355.878	826.53
356.093	-342.86
356.309	-66.39
356.524	-244.56
356.74	218.28
356.955	-166.74
357.171	-9.05
357.386	162.98
357.602	-179.03
357.817	-168.79
358.033	-170.83
358.248	330.92
358.464	93.35
358.679	-187.22
358.895	-375.63
359.11	-90.96
359.325	244.9
359.541	36.01
359.756	-9.05
359.972	-394.06
360.187	109.74
360.402	-222.03
360.618	-164.69
360.833	994.46
361.048	19.63
361.264	-191.31
361.479	-90.96
361.694	-9.05
361.909	140.46
362.125	-201.55
362.34	-109.4
362.555	273.57
362.77	50.35
362.986	-312.14
363.201	-207.7
363.416	181.42
363.631	15.53
363.847	-205.65
364.062	-209.75
364.277	171.18
364.492	105.64
364.707	-148.31
364.922	-377.68
365.138	216.23
365.353	249
365.568	-328.53
365.783	-236.37
365.998	-37.72
366.213	421.03
366.428	-262.99
366.643	5.29
366.858	281.77
367.073	117.93
367.288	-117.59
367.503	-238.42
367.718	54.44
367.933	300.2
368.148	-281.43
368.363	-119.64
368.578	-2.9
368.793	408.74
369.008	-101.2
369.223	-303.95
369.438	195.75
369.653	355.49
369.868	-308.05
370.083	-295.76
370.298	101.55
370.513	240.81
370.728	-29.52
370.943	-260.95
371.157	-140.12
371.372	494.76
371.587	-336.72
371.802	-262.99
372.017	15.53
372.232	459.94
372.446	-13.14
372.661	-308.05
372.876	218.28
373.091	162.98
373.306	-127.83
373.52	-258.9
373.735	-162.64
373.95	421.03
374.165	-115.54
374.379	-193.36
374.594	-156.5
374.809	62.63
375.023	21.67
375.238	-330.58
375.453	253.09
375.667	-283.47
375.882	-187.22
376.097	-193.36
376.311	85.16
376.526	-66.39
376.741	-324.43
376.955	95.4
377.17	545.95
377.384	490.66
377.599	-191.31
377.813	-312.14
378.028	541.86
378.242	154.79
378.457	-121.68
378.672	-299.86
378.886	97.45
379.101	-97.11
379.315	-361.3
379.53	-176.98
379.744	158.89
379.958	158.89
380.173	-217.94
380.387	-234.32
380.602	109.74
380.816	-119.64
381.031	-181.07
381.245	-172.88
381.459	183.46
381.674	2610.31
381.888	-254.8
382.103	42.15
382.317	-222.03
382.531	445.6
382.746	-64.34
382.96	-142.16
383.174	-107.35
383.388	455.84
383.603	-25.43
383.817	-318.29
384.031	167.08
384.246	431.27
384.46	-23.38
384.674	285.86
384.888	-9.05
385.103	3.24
385.317	-273.23
385.531	-78.68
385.745	386.21
385.959	330.92
386.174	-293.71
386.388	-281.43
386.602	23.72
386.816	-183.12
387.03	-191.31
387.244	-222.03
387.458	9.39
387.672	345.25
387.887	-277.33
388.101	-324.43
388.315	287.91
388.529	150.7
388.743	-207.7
388.957	-314.19
389.171	373.92
389.385	-242.51
389.599	-162.64
389.813	-29.52
390.027	70.83
390.241	591.01
390.455	-119.64
390.669	-131.92
390.883	-107.35
391.097	369.83
391.311	-62.29
391.525	-209.75
391.738	214.18
391.952	107.69
392.166	-17.24
392.38	-271.19
392.594	273.57
392.808	269.48
393.022	-131.92
393.236	-174.93
393.449	189.61
393.663	109.74
393.877	-303.95
394.091	-41.81
394.305	-4.95
394.518	-146.26
394.732	-250.71
394.946	-213.84
395.16	423.08
395.373	119.98
395.587	-289.62
395.801	-219.99
396.015	193.7
396.228	244.9
396.442	-279.38
396.656	-404.3
396.869	236.71
397.083	457.89
397.297	-138.07
397.51	-252.75
397.724	328.87
397.938	150.7
398.151	-279.38
398.365	-287.57
398.578	111.78
398.792	361.64
399.005	-127.83
399.219	-213.84
399.433	142.5
399.646	160.94
399.86	-15.19
400.073	-4.95
400.287	218.28
400.5	-35.67
400.714	-109.4
400.927	-113.49
401.141	238.76
401.354	1035.42
401.567	101.55
401.781	-324.43
401.994	203.94
402.208	560.29
402.421	-111.44
402.635	-133.97
402.848	25.77
403.061	285.86
403.275	-142.16
403.488	-277.33
403.701	427.17
403.915	179.37
404.128	-39.76
404.341	-279.38
404.555	160.94
404.768	-68.44
404.981	27.82
405.195	-197.46
405.408	425.12
405.621	107.69
405.834	-15.19
406.048	-279.38
406.261	369.83
406.474	464.04
406.687	-230.23
406.9	21.67
407.114	46.25
407.327	181.42
407.54	-387.92
407.753	-279.38
407.966	-154.45
408.179	187.56
408.392	-224.08
408.605	-303.95
408.819	167.08
409.032	173.22
409.245	-273.23
409.458	58.54
409.671	199.85
409.884	203.94
410.097	-328.53
410.31	7.34
410.523	216.23
410.736	-50
410.949	-136.02
411.162	-176.98
411.375	408.74
411.588	234.66
411.801	-47.96
412.014	-234.32
412.227	-45.91
412.44	15.53
412.653	-183.12
412.865	-27.48
413.078	220.33
413.291	214.18
413.504	-152.4
413.717	-248.66
413.93	216.23
414.143	-90.96
414.356	-238.42
414.568	-267.09
414.781	244.9
414.994	107.69
415.207	-95.06
415.42	-131.92
415.632	335.01
415.845	466.08
416.058	-312.14
416.271	-248.66
416.483	1.19
416.696	527.52
416.909	-168.79
417.121	-271.19
417.334	156.84
417.547	548
417.759	-246.61
417.972	-205.65
418.185	-72.53
418.397	197.8
418.61	-254.8
418.823	-150.36
419.035	482.47
419.248	-0.85
419.46	-123.73
419.673	-50
419.885	171.18
420.098	9.39
420.311	-219.99
420.523	-396.11
420.736	107.69
420.948	13.48
421.161	-181.07
421.373	-314.19
421.586	126.12
421.798	-41.81
422.01	-285.52
422.223	3.24
422.435	-95.06
422.648	150.7
422.86	-217.94
423.073	-252.75
423.285	298.15
423.497	-242.51
423.71	-222.03
423.922	-334.67
424.134	87.21
424.347	341.16
424.559	-54.1
424.771	68.78
424.984	-54.1
425.196	136.36
425.408	-344.91
425.621	-310.1
425.833	240.81
426.045	314.53
426.257	-295.76
426.47	-193.36
426.682	156.84
426.894	132.26
427.106	-191.31
427.318	-189.27
427.531	-140.12
427.743	236.71
427.955	-203.6
428.167	181.42
428.379	183.46
428.591	-9.05
428.804	-107.35
429.016	-279.38
429.228	-43.86
429.44	140.46
429.652	-17.24
429.864	-287.57
430.076	-54.1
430.288	-90.96
430.5	-234.32
430.712	-74.58
430.924	326.82
431.136	62.63
431.348	-377.68
431.56	-295.76
431.772	36.01
431.984	-119.64
432.196	-279.38
432.408	-222.03
432.62	-95.06
432.832	156.84
433.044	85.16
433.256	-127.83
433.468	201.9
433.679	-303.95
433.891	-234.32
434.103	19.63
434.315	361.64
434.527	93.35
434.739	-168.79
434.95	-217.94
435.162	244.9
435.374	-123.73
435.586	-187.22
435.798	-217.94
436.009	-258.9
436.221	44.2
436.433	-242.51
436.645	-222.03
436.856	-172.88
437.068	275.62
437.28	-269.14
437.491	44.2
437.703	89.26
437.915	158.89
438.126	-170.83
438.338	48.3
438.55	74.92
438.761	156.84
438.973	-179.03
439.184	-189.27
439.396	42.15
439.608	165.03
439.819	-361.3
440.031	-121.68
440.242	119.98
440.454	218.28
440.665	-160.59
440.877	-111.44
441.088	189.61
441.3	-21.33
441.511	-365.39
441.723	-303.95
441.934	130.22
442.146	7.34
442.357	-107.35
442.569	48.3
442.78	29.87
442.991	410.79
443.203	140.46
443.414	-213.84
443.626	369.83
443.837	-103.25
444.048	-240.47
444.26	-346.96
444.471	60.59
444.682	171.18
444.894	-381.78
445.105	-369.49
445.316	267.43
445.528	203.94
445.739	-119.64
445.95	-176.98
446.161	126.12
446.373	238.76
446.584	-205.65
446.795	-205.65
447.006	199.85
447.217	418.98
447.429	-432.97
447.64	-246.61
447.851	232.62
448.062	17.58
448.273	-422.73
448.484	-258.9
448.695	160.94
448.907	-64.34
449.118	-84.82
449.329	58.54
449.54	-127.83
449.751	-250.71
449.962	-197.46
450.173	-281.43
450.384	302.25
450.595	408.74
450.806	-226.13
451.017	-203.6
451.228	351.4
451.439	259.24
451.65	-217.94
451.861	-398.16
452.072	-189.27
452.283	-4.95
452.494	15.53
452.705	-246.61
452.915	392.36
453.126	130.22
453.337	-193.36
453.548	-152.4
453.759	298.15
453.97	435.36
454.181	-17.24
454.391	-273.23
454.602	101.55
454.813	144.55
455.024	-140.12
455.235	-244.56
455.445	103.59
455.656	208.04
455.867	-82.77
456.078	-181.07
456.288	-136.02
456.499	91.31
456.71	-299.86
456.921	38.06
457.131	134.31
457.342	97.45
457.553	-160.59
457.763	-232.27
457.974	177.32
458.184	195.75
458.395	-254.8
458.606	-349.01
458.816	222.38
459.027	472.23
459.237	-154.45
459.448	-443.21
459.659	259.24
459.869	519.33
460.08	-310.1
460.29	-125.78
460.501	416.93
460.711	-121.68
460.922	-330.58
461.132	-254.8
461.343	746.66
461.553	-373.58
461.764	-301.9
461.974	-217.94
462.184	320.68
462.395	160.94
462.605	-219.99
462.816	-287.57
463.026	130.22
463.236	294.05
463.447	-361.3
463.657	-236.37
463.867	132.26
464.078	7.34
464.288	-207.7
464.498	-217.94
464.709	46.25
464.919	3.24
465.129	-172.88
465.339	-308.05
465.55	146.6
465.76	259.24
465.97	-197.46
466.18	-340.82
466.391	244.9
466.601	154.79
466.811	-191.31
467.021	-308.05
467.231	46.25
467.441	300.2
467.651	-170.83
467.862	-496.46
468.072	-13.14
468.282	322.73
468.492	-279.38
468.702	-181.07
468.912	-35.67
469.122	613.54
469.332	42.15
469.542	-283.47
469.752	160.94
469.962	29.87
470.172	-332.62
470.382	-236.37
470.592	197.8
470.802	351.4
471.012	-156.5
471.222	-285.52
471.432	269.48
471.642	158.89
471.852	-156.5
472.062	-344.91
472.272	-125.78
472.482	-226.13
472.691	-342.86
472.901	-377.68
473.111	3.24
473.321	537.76
473.531	-262.99
473.741	-189.27
473.95	171.18
474.16	191.66
474.37	-37.72
474.58	-332.62
474.79	394.4
474.999	224.42
475.209	-318.29
475.419	-154.45
475.628	-50
475.838	314.53
476.048	-205.65
476.258	-342.86
476.467	345.25
476.677	-70.48
476.886	-56.15
477.096	-170.83
477.306	-74.58
477.515	244.9
477.725	-197.46
477.935	-242.51
478.144	388.26
478.354	-78.68
478.563	-236.37
478.773	-265.04
478.982	195.75
479.192	265.38
479.401	-86.87
479.611	-381.78
479.82	-150.36
480.03	85.16
480.239	-283.47
480.449	-357.2
480.658	404.64
480.868	-168.79
481.077	-148.31
481.287	-232.27
481.496	66.73
481.705	351.4
481.915	1.19
482.124	109.74
482.333	150.7
482.543	285.86
482.752	-176.98
482.961	-299.86
483.171	124.07
483.38	7.34
483.589	-248.66
483.799	-308.05
484.008	15.53
484.217	232.62
484.426	-205.65
484.636	-377.68
484.845	7.34
485.054	-295.76
485.263	17.58
485.472	-191.31
485.682	349.35
485.891	158.89
486.1	-412.5
486.309	-301.9
486.518	165.03
486.727	351.4
486.936	-275.28
487.146	-88.92
487.355	425.12
487.564	-197.46
487.773	-156.5
487.982	-301.9
488.191	-78.68
488.4	-0.85
488.609	-260.95
488.818	-164.69
489.027	615.59
489.236	378.02
489.445	-207.7
489.654	-256.85
489.863	249
490.072	62.63
490.281	105.64
490.49	-244.56
490.698	404.64
490.907	384.16
491.116	-207.7
491.325	-430.93
491.534	271.53
491.743	126.12
491.952	-144.21
492.16	-187.22
492.369	54.44
492.578	269.48
492.787	-170.83
492.996	-383.82
493.204	-197.46
493.413	410.79
493.622	-539.47
493.831	-361.3
494.039	396.45
494.248	-246.61
494.457	-295.76
494.665	-291.66
494.874	130.22
495.083	447.65
495.291	-174.93
495.5	-265.04
495.709	208.04
495.917	97.45
496.126	-179.03
496.335	-349.01
496.543	-41.81
496.752	146.6
496.96	27.82
497.169	-402.26
497.377	17.58
497.586	257.19
497.794	-99.16
498.003	-414.54
498.211	21.67
498.42	384.16
498.628	-199.51
498.837	-320.34
499.045	171.18
499.254	21.67
499.462	-285.52
499.671	-318.29
499.879	445.6
500.087	216.23
500.296	-363.34
500.504	-262.99
500.713	117.93
500.921	523.43
501.129	-308.05
501.338	-258.9
501.546	58.54
501.754	-4.95
501.962	-181.07
502.171	-295.76
502.379	101.55
502.587	427.17
502.795	-211.79
503.004	-211.79
503.212	15.53
503.42	191.66
503.628	-279.38
503.837	-230.23
504.045	222.38
504.253	404.64
504.461	-254.8
504.669	-457.55
504.877	115.88
505.085	431.27
505.294	-406.35
505.502	-70.48
505.71	70.83
505.918	232.62
506.126	-299.86
506.334	-267.09
506.542	-21.33
506.75	56.49
506.958	-195.41
507.166	-215.89
507.374	-88.92
507.582	474.28
507.79	-191.31
507.998	-269.14
508.206	97.45
508.414	175.27
508.622	-283.47
508.83	-174.93
509.037	418.98
509.245	-56.15
509.453	-256.85
509.661	-324.43
509.869	105.64
510.077	46.25
510.285	-109.4
510.492	-508.75
510.7	605.35
510.908	-95.06
511.116	-238.42
511.324	-383.82
511.531	-70.48
511.739	66.73
511.947	-133.97
512.155	-0.85
512.362	58.54
512.57	-283.47
512.778	-353.1
512.985	-455.5
513.193	269.48
513.401	289.96
513.608	-136.02
513.816	-275.28
514.024	183.46
514.231	240.81
514.439	-330.58
514.646	-285.52
514.854	185.51
515.061	326.82
515.269	-306
515.477	-222.03
515.684	-291.66
515.892	277.67
516.099	-430.93
516.307	-394.06
516.514	193.7
516.722	361.64
516.929	-185.17
517.136	-308.05
517.344	414.88
517.551	156.84
517.759	-291.66
517.966	-230.23
518.173	-7
518.381	64.68
518.588	-195.41
518.796	-297.81
519.003	236.71
519.21	-60.24
519.418	-295.76
519.625	-17.24
519.832	60.59
520.039	142.5
520.247	-488.27
520.454	-316.24
520.661	244.9
520.868	165.03
521.076	-203.6
521.283	-205.65
521.49	605.35
521.697	117.93
521.904	-349.01
522.112	-353.1
522.319	122.02
522.526	142.5
522.733	-238.42
522.94	-287.57
523.147	79.02
523.354	249
523.561	-406.35
523.768	-244.56
523.975	187.56
524.183	36.01
524.39	-248.66
524.597	-371.54
524.804	54.44
525.011	-101.2
525.218	-330.58
525.425	-279.38
525.632	306.34
525.838	-43.86
526.045	-224.08
526.252	-281.43
526.459	1137.82
526.666	849.05
526.873	-326.48
527.08	-228.18
527.287	400.55
527.494	187.56
527.701	-459.6
527.907	-342.86
528.114	197.8
528.321	-84.82
528.528	-250.71
528.735	-389.97
528.941	-154.45
529.148	-72.53
529.355	-217.94
529.562	-285.52
529.768	332.97
529.975	-23.38
530.182	-248.66
530.388	-326.48
530.595	246.95
530.802	-154.45
531.008	-93.01
531.215	-324.43
531.422	470.18
531.628	687.26
531.835	-230.23
532.042	-162.64
532.248	-66.39
532.455	68.78
532.661	-189.27
532.868	-346.96
533.074	50.35
533.281	285.86
533.487	-222.03
533.694	-328.53
533.9	-138.07
534.107	263.33
534.313	-308.05
534.52	-387.92
534.726	205.99
534.933	429.22
535.139	-402.26
535.345	-400.21
535.552	-50
535.758	85.16
535.965	-213.84
536.171	-320.34
536.377	177.32
536.584	365.73
536.79	-318.29
536.996	-162.64
537.203	97.45
537.409	33.96
537.615	-242.51
537.821	-185.17
538.028	242.85
538.234	212.14
538.44	-246.61
538.646	-168.79
538.853	238.76
539.059	-54.1
539.265	156.84
539.471	-467.79
539.677	210.09
539.883	-78.68
540.09	-340.82
540.296	142.5
540.502	-56.15
540.708	-129.88
540.914	-170.83
541.12	-283.47
541.326	97.45
541.532	40.11
541.738	-142.16
541.944	-211.79
542.15	187.56
542.356	-78.68
542.562	-346.96
542.768	-191.31
542.974	617.63
543.18	545.95
543.386	-293.71
543.592	-445.26
543.798	386.21
544.004	197.8
544.21	-328.53
544.415	-119.64
544.621	64.68
544.827	300.2
545.033	-377.68
545.239	-150.36
545.445	-301.9
545.651	79.02
545.856	-328.53
546.062	-336.72
546.268	-72.53
546.474	15.53
546.679	-281.43
546.885	-203.6
547.091	-181.07
547.297	523.43
547.502	-187.22
547.708	-383.82
547.914	-166.74
548.119	167.08
548.325	-365.39
548.531	-437.07
548.736	474.28
548.942	-107.35
549.147	-299.86
549.353	-97.11
549.559	355.49
549.764	93.35
549.97	-240.47
550.175	-287.57
550.381	158.89
550.586	-74.58
550.792	-199.51
550.997	-222.03
551.203	203.94
551.408	257.19
551.614	-336.72
551.819	-322.38
552.025	339.11
552.23	431.27
552.435	-361.3
552.641	-150.36
552.846	-136.02
553.052	316.58
553.257	-109.4
553.462	-201.55
553.668	-123.73
553.873	238.76
554.078	-340.82
554.283	-310.1
554.489	36.01
554.694	-99.16
554.899	-373.58
555.105	-74.58
555.31	187.56
555.515	251.05
555.72	-162.64
555.925	-351.06
556.131	255.14
556.336	-54.1
556.541	-289.62
556.746	-349.01
556.951	406.69
557.156	330.92
557.361	-148.31
557.567	-136.02
557.772	498.85
557.977	173.22
558.182	-332.62
558.387	-303.95
558.592	-101.2
558.797	302.25
559.002	-271.19
559.207	-203.6
559.412	72.87
559.617	482.47
559.822	-326.48
560.027	-340.82
560.232	197.8
560.437	203.94
560.642	-410.45
560.847	-271.19
561.051	-0.85
561.256	74.92
561.461	-303.95
561.666	-424.78
561.871	101.55
562.076	197.8
562.281	-256.85
562.485	-367.44
562.69	203.94
562.895	339.11
563.1	-283.47
563.305	-367.44
563.509	351.4
563.714	601.25
563.919	-344.91
564.123	-248.66
564.328	-25.43
564.533	281.77
564.737	-205.65
564.942	-326.48
565.147	396.45
565.351	554.15
565.556	-158.55
565.761	-234.32
565.965	44.2
566.17	-111.44
566.374	-240.47
566.579	-435.02
566.784	105.64
566.988	-113.49
567.193	-349.01
567.397	-271.19
567.602	-301.9
567.806	91.31
568.011	-287.57
568.215	-303.95
568.42	-13.14
568.624	-39.76
568.828	-213.84
569.033	-90.96
569.237	251.05
569.442	107.69
569.646	-367.44
569.85	-279.38
570.055	21.67
570.259	107.69
570.463	-82.77
570.668	-195.41
570.872	-54.1
571.076	-95.06
571.281	-217.94
571.485	-166.74
571.689	-29.52
571.893	228.52
572.098	-209.75
572.302	-240.47
572.506	203.94
572.71	23.72
572.914	-320.34
573.119	-267.09
573.323	384.16
573.527	394.4
573.731	-285.52
573.935	-326.48
574.139	33.96
574.343	-113.49
574.547	-226.13
574.751	-326.48
574.955	304.29
575.159	259.24
575.364	-287.57
575.568	-445.26
575.772	-2.9
575.976	232.62
576.18	-273.23
576.383	-430.93
576.587	216.23
576.791	154.79
576.995	-422.73
577.199	-394.06
577.403	187.56
577.607	273.57
577.811	-389.97
578.015	-133.97
578.219	85.16
578.422	160.94
578.626	-209.75
578.83	-70.48
579.034	310.44
579.238	105.64
579.442	-381.78
579.645	50.35
579.849	21.67
580.053	134.31
580.257	-213.84
580.46	-152.4
580.664	259.24
580.868	249
581.071	-74.58
581.275	-193.36
581.479	-228.18
581.682	199.85
581.886	-244.56
582.09	-236.37
582.293	251.05
582.497	183.46
582.7	-21.33
582.904	-310.1
583.107	42.15
583.311	-41.81
583.515	-158.55
583.718	-201.55
583.922	142.5
584.125	441.51
584.329	-426.83
584.532	-203.6
584.735	353.45
584.939	97.45
585.142	-357.2
585.346	-381.78
585.549	72.87
585.753	-78.68
585.956	-254.8
586.159	-164.69
586.363	519.33
586.566	169.13
586.769	-322.38
586.973	-336.72
587.176	183.46
587.379	300.2
587.582	64.68
587.786	-88.92
587.989	5.29
588.192	609.44
588.395	-136.02
588.599	179.37
588.802	130.22
589.005	222.38
589.208	-326.48
589.411	-250.71
589.615	265.38
589.818	337.06
590.021	23.72
590.224	-117.59
590.427	255.14
590.63	226.47
590.833	-396.11
591.036	-285.52
591.239	-86.87
591.442	-133.97
591.645	-31.57
591.848	-246.61
592.051	60.59
592.254	234.66
592.457	-262.99
592.66	-189.27
592.863	-17.24
593.066	124.07
593.269	-181.07
593.472	-129.88
593.675	-133.97
593.878	283.81
594.081	-115.54
594.284	-242.51
594.486	156.84
594.689	19.63
594.892	-162.64
595.095	-197.46
595.298	154.79
595.5	-109.4
595.703	-72.53
595.906	-107.35
596.109	345.25
596.311	308.39
596.514	-553.8
596.717	-174.93
596.92	335.01
597.122	142.5
597.325	-469.84
597.528	-254.8
597.73	355.49
597.933	81.07
598.136	-316.24
598.338	-441.17
598.541	181.42
598.743	314.53
598.946	-289.62
599.148	-236.37
599.351	375.97
599.554	240.81
599.756	-97.11
599.959	-217.94
600.161	277.67
600.363	613.54
600.566	-21.33
600.768	-230.23
600.971	494.76
601.173	212.14
601.376	-219.99
601.578	-232.27
601.78	165.03
601.983	482.47
602.185	-324.43
602.388	-129.88
602.59	144.55
602.792	-131.92
602.995	-58.2
603.197	-193.36
603.399	353.45
603.601	117.93
603.804	-181.07
604.006	-279.38
604.208	-33.62
604.41	-322.38
604.613	-148.31
604.815	-285.52
605.017	552.1
605.219	-103.25
605.421	105.64
605.623	-213.84
605.826	347.3
606.028	318.63
606.23	-189.27
606.432	-230.23
606.634	449.7
606.836	392.36
607.038	-346.96
607.24	-31.57
607.442	52.39
607.644	31.91
607.846	-111.44
608.048	-320.34
608.25	470.18
608.452	-45.91
608.654	-111.44
608.856	-396.11
609.058	19.63
609.26	175.27
609.462	-58.2
609.664	-217.94
609.866	494.76
610.067	337.06
610.269	-2.9
610.471	-181.07
610.673	-13.14
610.875	296.1
611.077	-349.01
611.278	-64.34
611.48	74.92
611.682	425.12
611.884	-43.86
612.085	-176.98
612.287	-160.59
612.489	193.7
612.69	-361.3
612.892	-62.29
613.094	326.82
613.295	175.27
613.497	-262.99
613.699	-199.51
613.9	418.98
614.102	318.63
614.304	-176.98
614.505	-267.09
614.707	56.49
614.908	27.82
615.11	-338.77
615.311	-144.21
615.513	222.38
615.714	304.29
615.916	-332.62
616.117	-127.83
616.319	72.87
616.52	216.23
616.722	-226.13
616.923	-234.32
617.124	335.01
617.326	263.33
617.527	-131.92
617.729	27.82
617.93	253.09
618.131	269.48
618.333	-209.75
618.534	-181.07
618.735	-33.62
618.937	470.18
619.138	-262.99
619.339	-277.33
619.54	212.14
619.742	-4.95
619.943	-82.77
620.144	-62.29
620.345	269.48
620.546	361.64
620.748	-322.38
620.949	-136.02
621.15	187.56
621.351	93.35
621.552	-213.84
621.753	-336.72
621.954	-334.67
622.155	605.35
622.356	-285.52
622.558	-21.33
622.759	119.98
622.96	584.87
623.161	-90.96
623.362	-129.88
623.563	156.84
623.764	130.22
623.965	-146.26
624.166	-2.9
624.366	48.3
624.567	158.89
624.768	-475.98
624.969	-275.28
625.17	36.01
625.371	205.99
625.572	-99.16
625.773	-205.65
625.973	212.14
626.174	167.08
626.375	-117.59
626.576	-80.72
626.777	269.48
626.977	697.5
627.178	-254.8
627.379	-121.68
627.58	23.72
627.78	201.9
627.981	-199.51
628.182	-66.39
628.382	322.73
628.583	-265.04
628.784	-308.05
628.984	-35.67
629.185	318.63
629.386	330.92
629.586	-101.2
629.787	-267.09
629.987	171.18
630.188	31.91
630.388	-111.44
630.589	-115.54
630.79	662.69
630.99	97.45
631.191	-105.3
631.391	-107.35
631.591	269.48
631.792	484.52
631.992	44.2
632.193	-162.64
632.393	537.76
632.594	101.55
632.794	-187.22
632.994	-74.58
633.195	134.31
633.395	99.5
633.595	-174.93
633.796	46.25
633.996	-84.82
634.196	423.08
634.397	-373.58
634.597	-138.07
634.797	-41.81
634.997	404.64
635.198	-66.39
635.398	-318.29
635.598	148.65
635.798	349.35
635.998	328.87
636.199	-283.47
636.399	-41.81
636.599	-82.77
636.799	-179.03
636.999	68.78
637.199	253.09
637.399	310.44
637.599	-195.41
637.799	-45.91
637.999	-4.95
638.199	459.94
638.399	-226.13
638.599	-193.36
638.799	242.85
638.999	527.52
639.199	-17.24
639.399	-50
639.599	488.61
639.799	-31.57
639.999	-201.55
640.199	-254.8
640.399	138.41
640.599	130.22
640.799	-43.86
640.998	1.19
641.198	400.55
641.398	255.14
641.598	40.11
641.798	-150.36
641.997	992.41
642.197	-60.24
642.397	-2.9
642.597	-148.31
642.796	263.33
642.996	451.75
643.196	-37.72
643.395	-303.95
643.595	289.96
643.795	-326.48
643.994	-150.36
644.194	-76.63
644.394	263.33
644.593	173.22
644.793	-283.47
644.992	31.91
645.192	314.53
645.392	-308.05
645.591	-31.57
645.791	-107.35
645.99	220.33
646.19	126.12
646.389	-47.96
646.589	-70.48
646.788	343.21
646.987	308.39
647.187	113.83
647.386	132.26
647.586	124.07
647.785	347.3
647.984	-82.77
648.184	-109.4
648.383	-43.86
648.582	81.07
648.782	-99.16
648.981	44.2
649.18	-86.87
649.38	205.99
649.579	-176.98
649.778	-158.55
649.977	228.52
650.177	220.33
650.376	-205.65
650.575	-166.74
650.774	537.76
650.973	48.3
651.173	-303.95
651.372	-50
651.571	165.03
651.77	289.96
651.969	-193.36
652.168	-86.87
652.367	-138.07
652.566	140.46
652.765	-170.83
652.964	99.5
653.163	527.52
653.362	1.19
653.561	-144.21
653.76	-107.35
653.959	27.82
654.158	361.64
654.357	85.16
654.556	-52.05
654.755	335.01
654.954	367.78
655.153	-78.68
655.352	-80.72
655.551	443.56
655.749	15.53
655.948	-29.52
656.147	-17.24
656.346	208.04
656.545	85.16
656.743	-33.62
656.942	-70.48
657.141	101.55
657.34	-84.82
657.538	-19.29
657.737	-56.15
657.936	93.35
658.135	208.04
658.333	-105.3
658.532	68.78
658.731	605.35
658.929	332.97
659.128	124.07
659.326	-209.75
659.525	386.21
659.724	85.16
659.922	-338.77
660.121	-148.31
660.319	244.9
660.518	23.72
660.716	-174.93
660.915	-162.64
661.113	525.47
661.312	-181.07
661.51	68.78
661.709	-236.37
661.907	287.91
662.105	513.19
662.304	-105.3
662.502	-56.15
662.701	429.22
662.899	99.5
663.097	224.42
663.296	-224.08
663.494	353.45
663.692	580.77
663.891	-176.98
664.089	-146.26
664.287	249
664.485	476.32
664.684	-179.03
664.882	124.07
665.08	193.7
665.278	156.84
665.476	-234.32
665.675	232.62
665.873	621.73
666.071	328.87
666.269	-119.64
666.467	99.5
666.665	271.53
666.863	130.22
667.061	70.83
667.259	-140.12
667.457	162.98
667.655	437.41
667.853	-197.46
668.051	19.63
668.249	-70.48
668.447	302.25
668.645	-154.45
668.843	126.12
669.041	308.39
669.239	93.35
669.437	40.11
669.635	19.63
669.833	179.37
670.031	310.44
670.229	23.72
670.426	-70.48
670.624	50.35
670.822	-56.15
671.02	-56.15
671.218	-66.39
671.415	-131.92
671.613	212.14
671.811	38.06
672.009	-54.1
672.206	320.68
672.404	212.14
672.602	181.42
672.799	89.26
672.997	263.33
673.195	480.42
673.392	85.16
673.59	-156.5
673.788	449.7
673.985	-226.13
674.183	-4.95
674.38	-25.43
674.578	345.25
674.775	74.92
674.973	-113.49
675.17	-160.59
675.368	502.95
675.565	249
675.763	-41.81
675.96	-129.88
676.158	533.67
676.355	138.41
676.553	-68.44
676.75	25.77
676.947	212.14
677.145	122.02
677.342	21.67
677.539	97.45
677.737	289.96
677.934	691.36
678.131	214.18
678.329	-54.1
678.526	605.35
678.723	373.92
678.92	91.31
679.118	1.19
679.315	-70.48
679.512	574.63
679.709	-4.95
679.906	97.45
680.104	468.13
680.301	160.94
680.498	-50
680.695	-138.07
680.892	-29.52
681.089	56.49
681.286	7.34
681.483	-103.25
681.68	328.87
681.877	402.6
682.075	-41.81
682.272	287.91
682.469	269.48
682.665	138.41
682.862	-181.07
683.059	-140.12
683.256	249
683.453	224.42
683.65	52.39
683.847	-15.19
684.044	122.02
684.241	-50
684.438	134.31
684.635	-142.16
684.831	609.44
685.028	734.37
685.225	-4.95
685.422	97.45
685.619	128.17
685.815	197.8
686.012	85.16
686.209	48.3
686.405	-113.49
686.602	363.69
686.799	-45.91
686.996	-111.44
687.192	-31.57
687.389	660.64
687.586	-103.25
687.782	-47.96
687.979	539.81
688.175	468.13
688.372	52.39
688.568	-54.1
688.765	95.4
688.962	498.85
689.158	177.32
689.355	-226.13
689.551	332.97
689.748	60.59
689.944	113.83
690.14	-189.27
690.337	353.45
690.533	154.79
690.73	134.31
690.926	95.4
691.123	396.45
691.319	130.22
691.515	-90.96
691.712	181.42
691.908	359.59
692.104	328.87
692.301	150.7
692.497	-58.2
692.693	392.36
692.889	427.17
693.086	179.37
693.282	-148.31
693.478	335.01
693.674	613.54
693.87	107.69
694.067	-90.96
694.263	265.38
694.459	179.37
694.655	165.03
694.851	138.41
695.047	408.74
695.243	369.83
695.439	187.56
695.635	-9.05
695.831	490.66
696.027	267.43
696.224	-47.96
696.42	328.87
696.615	580.77
696.811	416.93
697.007	-133.97
697.203	56.49
697.399	359.59
697.595	494.76
697.791	-80.72
697.987	175.27
698.183	-54.1
698.379	70.83
698.575	27.82
698.77	31.91
698.966	408.74
699.162	498.85
699.358	107.69
699.554	72.87
699.749	339.11
699.945	484.52
700.141	150.7
700.337	89.26
700.532	298.15
700.728	76.97
700.924	13.48
701.119	-2.9
701.315	339.11
701.511	216.23
701.706	115.88
701.902	-115.54
702.097	310.44
702.293	437.41
702.489	115.88
702.684	48.3
702.88	246.95
703.075	224.42
703.271	72.87
703.466	-121.68
703.662	326.82
703.857	363.69
704.053	44.2
704.248	13.48
704.443	468.13
704.639	439.46
704.834	99.5
705.03	48.3
705.225	482.47
705.42	570.53
705.616	119.98
705.811	19.63
706.006	224.42
706.202	181.42
706.397	185.51
706.592	-103.25
706.787	398.5
706.983	375.97
707.178	302.25
707.373	113.83
707.568	445.6
707.763	599.2
707.959	-62.29
708.154	-47.96
708.349	244.9
708.544	373.92
708.739	314.53
708.934	23.72
709.129	482.47
709.324	527.52
709.519	-52.05
709.714	-68.44
709.909	570.53
710.104	431.27
710.299	144.55
710.494	113.83
710.689	504.99
710.884	320.68
711.079	126.12
711.274	324.77
711.469	457.89
711.664	418.98
711.859	13.48
712.054	136.36
712.249	427.17
712.443	574.63
712.638	-29.52
712.833	9.39
713.028	294.05
713.223	246.95
713.417	408.74
713.612	50.35
713.807	509.09
714.002	892.06
714.196	228.52
714.391	52.39
714.586	525.47
714.78	310.44
714.975	154.79
715.17	33.96
715.364	142.5
715.559	588.96
715.754	-158.55
715.948	46.25
716.143	728.22
716.337	384.16
716.532	380.07
716.726	81.07
716.921	400.55
717.115	715.94
717.31	-31.57
717.504	631.97
717.699	165.03
717.893	529.57
718.088	-13.14
718.282	11.43
718.476	347.3
718.671	457.89
718.865	107.69
719.059	93.35
719.254	283.81
719.448	611.49
719.642	1479.83
719.837	-119.64
720.031	492.71
720.225	619.68
720.419	249
720.614	52.39
720.808	568.48
721.002	318.63
721.196	40.11
721.39	128.17
721.585	609.44
721.779	425.12
721.973	138.41
722.167	-43.86
722.361	412.84
722.555	566.43
722.749	111.78
722.943	117.93
723.137	29.87
723.331	369.83
723.525	144.55
723.719	140.46
723.913	554.15
724.107	679.07
724.301	19.63
724.495	220.33
724.689	689.31
724.883	646.3
725.077	140.46
725.271	85.16
725.465	603.3
725.659	310.44
725.853	255.14
726.046	-74.58
726.24	185.51
726.434	617.63
726.628	177.32
726.822	199.85
727.015	642.21
727.209	580.77
727.403	146.6
727.596	-58.2
727.79	527.52
727.984	545.95
728.177	58.54
728.371	169.13
728.565	584.87
728.758	44.2
728.952	54.44
729.146	107.69
729.339	617.63
729.533	355.49
729.726	181.42
729.92	33.96
730.113	666.78
730.307	343.21
730.5	203.94
730.694	122.02
730.887	298.15
731.081	560.29
731.274	-35.67
731.468	136.36
731.661	361.64
731.854	339.11
732.048	183.46
732.241	7.34
732.435	216.23
732.628	373.92
732.821	187.56
733.014	-74.58
733.208	113.83
733.401	492.71
733.594	154.79
733.788	111.78
733.981	636.06
734.174	421.03
734.367	119.98
734.56	275.62
734.754	711.84
734.947	371.88
735.14	72.87
735.333	154.79
735.526	629.92
735.719	234.66
735.912	93.35
736.105	27.82
736.298	373.92
736.491	318.63
736.684	89.26
736.877	60.59
737.07	439.46
737.263	722.08
737.456	115.88
737.649	68.78
737.842	292.01
738.035	400.55
738.228	212.14
738.421	302.25
738.614	799.9
738.807	548
739	-78.68
739.192	44.2
739.385	492.71
739.578	582.82
739.771	433.32
739.964	68.78
740.156	421.03
740.349	289.96
740.542	289.96
740.735	-62.29
740.927	187.56
741.12	138.41
741.313	91.31
741.505	326.82
741.698	488.61
741.891	490.66
742.083	228.52
742.276	171.18
742.468	406.69
742.661	355.49
742.854	222.38
743.046	89.26
743.239	683.17
743.431	306.34
743.624	226.47
743.816	-31.57
744.009	375.97
744.201	539.81
744.393	384.16
744.586	52.39
744.778	650.4
744.971	353.45
745.163	294.05
745.355	367.78
745.548	455.84
745.74	416.93
745.932	208.04
746.125	203.94
746.317	863.39
746.509	425.12
746.702	169.13
746.894	259.24
747.086	591.01
747.278	720.03
747.471	269.48
747.663	304.29
747.855	418.98
748.047	746.66
748.239	171.18
748.431	122.02
748.623	834.72
748.815	789.66
749.008	66.73
749.2	-11.09
749.392	615.59
749.584	613.54
749.776	261.29
749.968	289.96
750.16	994.46
750.352	431.27
750.544	183.46
750.736	52.39
750.928	566.43
751.12	527.52
751.311	306.34
751.503	230.57
751.695	560.29
751.887	367.78
752.079	-15.19
752.271	179.37
752.463	1146.01
752.654	621.73
752.846	249
753.038	154.79
753.23	343.21
753.421	552.1
753.613	263.33
753.805	384.16
753.997	560.29
754.188	765.09
754.38	105.64
754.572	191.66
754.763	384.16
754.955	601.25
755.146	349.35
755.338	273.57
755.53	597.15
755.721	433.32
755.913	89.26
756.104	130.22
756.296	502.95
756.487	595.11
756.679	36.01
756.87	212.14
757.062	400.55
757.253	607.39
757.445	154.79
757.636	359.59
757.827	441.51
758.019	1068.19
758.21	87.21
758.401	218.28
758.593	953.5
758.784	849.05
758.975	44.2
759.167	156.84
759.358	433.32
759.549	781.47
759.74	246.95
759.932	218.28
760.123	814.24
760.314	269.48
760.505	410.79
760.696	212.14
760.888	844.96
761.079	408.74
761.27	23.72
761.461	31.91
761.652	849.05
761.843	421.03
762.034	181.42
762.225	398.5
762.416	388.26
762.607	470.18
762.798	162.98
762.989	138.41
763.18	1172.63
763.371	386.21
763.562	238.76
763.753	289.96
763.944	728.22
764.135	615.59
764.326	345.25
764.517	210.09
764.708	605.35
764.899	576.67
765.089	154.79
765.28	136.36
765.471	525.47
765.662	705.7
765.853	423.08
766.043	-13.14
766.234	619.68
766.425	703.65
766.615	300.2
766.806	44.2
766.997	816.29
767.187	492.71
767.378	253.09
767.569	29.87
767.759	627.87
767.95	488.61
768.141	439.46
768.331	132.26
768.522	490.66
768.712	644.26
768.903	105.64
769.093	105.64
769.284	869.53
769.474	613.54
769.665	44.2
769.855	23.72
770.046	631.97
770.236	316.58
770.426	388.26
770.617	117.93
770.807	543.91
770.998	392.36
771.188	427.17
771.378	136.36
771.569	717.98
771.759	605.35
771.949	79.02
772.139	-90.96
772.33	634.02
772.52	873.63
772.71	216.23
772.9	105.64
773.09	894.11
773.281	924.83
773.471	220.33
773.661	302.25
773.851	701.6
774.041	406.69
774.231	117.93
774.421	461.99
774.611	828.57
774.802	525.47
774.992	318.63
775.182	105.64
775.372	572.58
775.562	715.94
775.752	195.75
775.942	216.23
776.131	789.66
776.321	613.54
776.511	298.15
776.701	210.09
776.891	812.19
777.081	367.78
777.271	349.35
777.461	154.79
777.651	720.03
777.84	804
778.03	414.88
778.22	236.71
778.41	834.72
778.599	343.21
778.789	378.02
778.979	160.94
779.169	664.74
779.358	486.56
779.548	539.81
779.738	150.7
779.927	613.54
780.117	302.25
780.307	304.29
780.496	-13.14
780.686	636.06
780.875	992.41
781.065	240.81
781.254	300.2
781.444	457.89
781.633	650.4
781.823	236.71
782.012	179.37
782.202	500.9
782.391	521.38
782.581	126.12
782.77	400.55
782.96	636.06
783.149	533.67
783.338	197.8
783.528	-50
783.717	703.65
783.906	820.38
784.096	388.26
784.285	173.22
784.474	476.32
784.663	345.25
784.853	253.09
785.042	316.58
785.231	384.16
785.42	744.61
785.61	320.68
785.799	113.83
785.988	457.89
786.177	504.99
786.366	337.06
786.555	457.89
786.744	793.76
786.933	400.55
787.122	167.08
787.312	95.4
787.501	361.64
787.69	603.3
787.879	271.53
788.068	208.04
788.257	220.33
788.445	464.04
788.634	294.05
788.823	175.27
789.012	1197.21
789.201	900.25
789.39	306.34
789.579	257.19
789.768	441.51
789.957	461.99
790.145	310.44
790.334	72.87
790.523	484.52
790.712	490.66
790.9	312.49
791.089	175.27
791.278	738.46
791.467	586.91
791.655	431.27
791.844	785.57
792.033	289.96
792.221	564.39
792.41	261.29
792.599	126.12
792.787	705.7
792.976	722.08
793.164	142.5
793.353	294.05
793.541	732.32
793.73	640.16
793.918	275.62
794.107	230.57
794.295	461.99
794.484	601.25
794.672	298.15
794.861	263.33
795.049	625.83
795.238	928.92
795.426	124.07
795.614	242.85
795.803	672.93
795.991	828.57
796.179	285.86
796.368	277.67
796.556	832.67
796.744	261.29
796.932	244.9
797.121	208.04
797.309	564.39
797.497	742.56
797.685	292.01
797.874	279.72
798.062	466.08
798.25	916.64
798.438	179.37
798.626	238.76
798.814	666.78
799.002	1023.13
799.19	523.43
799.378	408.74
799.566	758.94
799.755	924.83
799.943	525.47
800.131	263.33
800.318	615.59
800.506	693.41
800.694	216.23
800.882	449.7
801.07	830.62
801.258	511.14
801.446	292.01
801.634	265.38
801.822	539.81
802.01	498.85
802.197	203.94
802.385	435.36
802.573	677.02
802.761	330.92
802.949	347.3
803.136	122.02
803.324	734.37
803.512	617.63
803.699	466.08
803.887	76.97
804.075	945.31
804.262	457.89
804.45	236.71
804.638	502.95
804.825	312.49
805.013	457.89
805.201	314.53
805.388	242.85
805.576	613.54
805.763	982.17
805.951	292.01
806.138	507.04
806.326	1012.89
806.513	736.42
806.701	404.64
806.888	210.09
807.075	650.4
807.263	951.45
807.45	269.48
807.638	552.1
807.825	1049.75
808.012	851.1
808.2	355.49
808.387	556.19
808.574	707.74
808.761	992.41
808.949	345.25
809.136	339.11
809.323	513.19
809.51	509.09
809.698	638.11
809.885	498.85
810.072	720.03
810.259	732.32
810.446	496.8
810.633	335.01
810.82	928.92
811.008	943.26
811.195	511.14
811.382	461.99
811.569	511.14
811.756	431.27
811.943	429.22
812.13	308.39
812.317	443.56
812.504	466.08
812.691	453.8
812.878	498.85
813.064	1072.28
813.251	695.46
813.438	316.58
813.625	529.57
813.812	625.83
813.999	642.21
814.186	494.76
814.372	425.12
814.559	728.22
814.746	1055.9
814.933	386.21
815.12	558.24
815.306	539.81
815.493	470.18
815.68	343.21
815.866	382.12
816.053	914.59
816.24	1176.73
816.426	459.94
816.613	453.8
816.799	748.7
816.986	904.35
817.173	447.65
817.359	298.15
817.546	724.13
817.732	285.86
817.919	85.16
818.105	459.94
818.292	617.63
818.478	740.51
818.665	560.29
818.851	365.73
819.037	1088.67
819.224	670.88
819.41	296.1
819.597	464.04
819.783	1191.06
819.969	789.66
820.156	361.64
820.342	246.95
820.528	1442.96
820.714	586.91
820.901	736.42
821.087	369.83
821.273	978.08
821.459	609.44
821.646	375.97
821.832	361.64
822.018	687.26
822.204	703.65
822.39	478.37
822.576	259.24
822.762	785.57
822.948	703.65
823.134	650.4
823.32	435.36
823.507	498.85
823.693	720.03
823.879	894.11
824.065	392.36
824.25	717.98
824.436	337.06
824.622	433.32
824.808	310.44
824.994	548
825.18	478.37
825.366	302.25
825.552	402.6
825.738	642.21
825.923	785.57
826.109	627.87
826.295	302.25
826.481	486.56
826.667	513.19
826.852	601.25
827.038	396.45
827.224	859.29
827.409	1182.87
827.595	269.48
827.781	631.97
827.966	924.83
828.152	922.78
828.338	461.99
828.523	357.54
828.709	539.81
828.894	1010.84
829.08	384.16
829.266	279.72
829.451	502.95
829.637	855.2
829.822	621.73
830.008	425.12
830.193	933.02
830.378	1084.57
830.564	539.81
830.749	302.25
830.935	783.52
831.12	865.44
831.305	365.73
831.491	593.06
831.676	416.93
831.861	959.64
832.047	449.7
832.232	304.29
832.417	1031.32
832.602	828.57
832.788	474.28
832.973	418.98
833.158	683.17
833.343	720.03
833.528	576.67
833.714	574.63
833.899	769.18
834.084	1301.65
834.269	640.16
834.454	531.62
834.639	1014.94
834.824	742.56
835.009	568.48
835.194	613.54
835.379	867.49
835.564	1135.77
835.749	584.87
835.934	365.73
836.119	916.64
836.304	777.37
836.489	400.55
836.674	640.16
836.859	621.73
837.044	1047.71
837.228	498.85
837.413	400.55
837.598	820.38
837.783	969.88
837.968	533.67
838.152	330.92
838.337	302.25
838.522	984.22
838.707	947.36
838.891	564.39
839.076	789.66
839.261	986.27
839.445	466.08
839.63	564.39
839.815	1150.11
839.999	681.12
840.184	429.22
840.368	502.95
840.553	933.02
840.737	1088.67
840.922	455.84
841.106	431.27
841.291	504.99
841.475	767.13
841.66	457.89
841.844	406.69
842.029	1512.6
842.213	396.45
842.397	468.13
842.582	335.01
842.766	965.79
842.951	1045.66
843.135	347.3
843.319	470.18
843.504	777.37
843.688	914.59
843.872	375.97
844.056	378.02
844.241	887.97
844.425	740.51
844.609	658.59
844.793	314.53
844.977	922.78
845.161	871.58
845.346	246.95
845.53	402.6
845.714	754.85
845.898	1172.63
846.082	289.96
846.266	435.36
846.45	779.42
846.634	765.09
846.818	527.52
847.002	638.11
847.186	906.4
847.37	537.76
847.554	498.85
847.738	543.91
847.922	836.77
848.106	840.86
848.29	330.92
848.473	470.18
848.657	883.87
848.841	670.88
849.025	416.93
849.209	285.86
849.392	928.92
849.576	658.59
849.76	162.98
849.944	611.49
850.127	1115.29
850.311	554.15
850.495	388.26
850.678	380.07
850.862	1049.75
851.046	1129.63
851.229	674.98
851.413	431.27
851.596	781.47
851.78	736.42
851.964	668.83
852.147	548
852.331	1524.88
852.514	1068.19
852.698	525.47
852.881	394.4
853.065	951.45
853.248	646.3
853.431	545.95
853.615	529.57
853.798	1313.94
853.982	820.38
854.165	644.26
854.348	570.53
854.532	566.43
854.715	674.98
854.898	476.32
855.081	464.04
855.265	1162.39
855.448	1256.6
855.631	427.17
855.814	545.95
855.997	1004.7
856.181	687.26
856.364	486.56
856.547	330.92
856.73	736.42
856.913	824.48
857.096	427.17
857.279	664.74
857.462	529.57
857.645	1010.84
857.828	611.49
858.011	713.89
858.194	701.6
858.377	973.98
858.56	363.69
858.743	500.9
858.926	556.19
859.109	844.96
859.292	529.57
859.475	416.93
859.658	1008.8
859.841	935.07
860.023	396.45
860.206	433.32
860.389	806.05
860.572	1164.44
860.755	556.19
860.937	353.45
861.12	793.76
861.303	838.81
861.486	507.04
861.668	373.92
861.851	861.34
862.034	724.13
862.216	695.46
862.399	341.16
862.581	896.16
862.764	1152.15
862.947	539.81
863.129	484.52
863.312	492.71
863.494	1195.16
863.677	832.67
863.859	275.62
864.042	1021.08
864.224	1066.14
864.406	662.69
864.589	300.2
864.771	1000.6
864.954	488.61
865.136	441.51
865.318	320.68
865.501	939.16
865.683	433.32
865.865	543.91
866.048	421.03
866.23	896.16
866.412	683.17
866.594	502.95
866.777	496.8
866.959	1000.6
867.141	613.54
867.323	709.79
867.505	660.64
867.687	824.48
867.869	773.28
868.052	498.85
868.234	564.39
868.416	720.03
868.598	949.4
868.78	591.01
868.962	457.89
869.144	906.4
869.326	990.36
869.508	451.75
869.69	355.49
869.872	621.73
870.054	1023.13
870.236	347.3
870.417	367.78
870.599	771.23
870.781	1137.82
870.963	652.45
871.145	416.93
871.327	486.56
871.508	945.31
871.69	523.43
871.872	550.05
872.054	763.04
872.235	904.35
872.417	531.62
872.599	443.56
872.78	1166.49
872.962	828.57
873.144	361.64
873.325	466.08
873.507	1164.44
873.689	930.97
873.87	357.54
874.052	646.3
874.233	724.13
874.415	957.6
874.596	535.71
874.778	367.78
874.959	840.86
875.141	1092.76
875.322	515.23
875.503	418.98
875.685	810.14
875.866	494.76
876.048	378.02
876.229	423.08
876.41	773.28
876.592	867.49
876.773	457.89
876.954	361.64
877.136	1066.14
877.317	613.54
877.498	249
877.679	599.2
877.86	973.98
878.042	853.15
878.223	525.47
878.404	834.72
878.585	963.74
878.766	1234.07
878.947	851.1
879.128	754.85
879.309	1039.51
879.49	1059.99
879.672	691.36
879.853	517.28
880.034	572.58
880.215	685.22
880.396	648.35
880.576	564.39
880.757	685.22
880.938	1170.58
881.119	470.18
881.3	472.23
881.481	507.04
881.662	1670.29
881.843	427.17
882.023	427.17
882.204	859.29
882.385	824.48
882.566	441.51
882.747	449.7
882.927	779.42
883.108	998.56
883.289	529.57
883.469	693.41
883.65	765.09
883.831	744.61
884.011	744.61
884.192	572.58
884.373	1008.8
884.553	984.22
884.734	689.31
884.914	894.11
885.095	1457.3
885.275	1199.26
885.456	926.88
885.636	498.85
885.817	916.64
885.997	799.9
886.178	582.82
886.358	664.74
886.538	836.77
886.719	1889.42
886.899	550.05
887.08	644.26
887.26	1070.23
887.44	564.39
887.621	400.55
887.801	713.89
887.981	1387.67
888.161	1154.2
888.342	654.5
888.522	562.34
888.702	1059.99
888.882	1207.45
889.062	654.5
889.242	382.12
889.423	1281.18
889.603	1080.47
889.783	689.31
889.963	597.15
890.143	1035.42
890.323	1205.4
890.503	584.87
890.683	654.5
890.863	949.4
891.043	926.88
891.223	715.94
891.403	875.68
891.583	920.73
891.763	1004.7
891.943	724.13
892.122	613.54
892.302	976.03
892.482	818.33
892.662	754.85
892.842	720.03
893.022	939.16
893.201	777.37
893.381	863.39
893.561	629.92
893.741	1156.25
893.92	1047.71
894.1	740.51
894.28	789.66
894.459	1109.15
894.639	1096.86
894.819	578.72
894.998	738.46
895.178	953.5
895.357	924.83
895.537	625.83
895.716	691.36
895.896	883.87
896.075	1250.46
896.255	621.73
896.434	468.13
896.614	1205.4
896.793	1277.08
896.973	861.34
897.152	771.23
897.331	1000.6
897.511	1156.25
897.69	527.52
897.87	765.09
898.049	1197.21
898.228	992.41
898.407	953.5
898.587	914.59
898.766	730.27
898.945	1162.39
899.124	943.26
899.304	832.67
899.483	1201.3
899.662	1412.25
899.841	627.87
900.02	746.66
900.199	1260.7
900.378	1035.42
900.557	611.49
900.737	652.45
900.916	1068.19
901.095	1236.12
901.274	1049.75
901.453	638.11
901.632	836.77
901.811	785.57
901.989	732.32
902.168	597.15
902.347	1338.52
902.526	822.43
902.705	793.76
902.884	818.33
903.063	1164.44
903.242	1318.04
903.42	634.02
903.599	898.2
903.778	1305.75
903.957	1348.76
904.135	744.61
904.314	808.09
904.493	1041.56
904.672	1121.43
904.85	711.84
905.029	793.76
905.207	1143.96
905.386	1717.39
905.565	588.96
905.743	701.6
905.922	847.01
906.1	1201.3
906.279	687.26
906.457	674.98
906.636	752.8
906.814	896.16
906.993	685.22
907.171	681.12
907.35	1103
907.528	1172.63
907.707	947.36
907.885	677.02
908.063	1332.37
908.242	699.55
908.42	754.85
908.598	421.03
908.777	1092.76
908.955	834.72
909.133	826.53
909.311	595.11
909.49	896.16
909.668	947.36
909.846	648.35
910.024	511.14
910.202	1019.04
910.38	1076.38
910.559	623.78
910.737	695.46
910.915	1096.86
911.093	1080.47
911.271	658.59
911.449	892.06
911.627	1070.23
911.805	1483.92
911.983	711.84
912.161	634.02
912.339	1008.8
912.517	1320.09
912.695	908.44
912.872	715.94
913.05	814.24
913.228	1098.91
913.406	793.76
913.584	646.3
913.762	1178.78
913.939	773.28
914.117	597.15
914.295	539.81
914.473	1180.82
914.65	1047.71
914.828	597.15
915.006	666.78
915.184	658.59
915.361	945.31
915.539	726.18
915.716	982.17
915.894	1088.67
916.072	1053.85
916.249	908.44
916.427	869.53
916.604	799.9
916.782	1033.37
916.959	541.86
917.137	660.64
917.314	992.41
917.492	1123.48
917.669	844.96
917.847	793.76
918.024	1082.52
918.201	797.85
918.379	695.46
918.556	834.72
918.733	1107.1
918.911	871.58
919.088	873.63
919.265	687.26
919.442	1047.71
919.62	969.88
919.797	648.35
919.974	500.9
920.151	1088.67
920.328	926.88
920.506	670.88
920.683	818.33
920.86	797.85
921.037	738.46
921.214	771.23
921.391	513.19
921.568	1225.88
921.745	777.37
921.922	736.42
922.099	597.15
922.276	1160.34
922.453	1088.67
922.63	640.16
922.807	908.44
922.984	941.21
923.161	810.14
923.338	773.28
923.514	586.91
923.691	861.34
923.868	1066.14
924.045	654.5
924.222	654.5
924.399	1043.61
924.575	1121.43
924.752	703.65
924.929	687.26
925.105	916.64
925.282	746.66
925.459	670.88
925.635	679.07
925.812	930.97
925.989	816.29
926.165	707.74
926.342	523.43
926.518	760.99
926.695	849.05
926.871	595.11
927.048	472.23
927.224	1100.95
927.401	711.84
927.577	689.31
927.754	433.32
927.93	1055.9
928.107	1062.04
928.283	513.19
928.459	720.03
928.636	1072.28
928.812	756.9
928.988	488.61
929.165	492.71
929.341	871.58
929.517	730.27
929.693	914.59
929.87	400.55
930.046	933.02
930.222	746.66
930.398	507.04
930.574	754.85
930.751	910.49
930.927	720.03
931.103	646.3
931.279	654.5
931.455	593.06
931.631	879.77
931.807	466.08
931.983	390.31
932.159	431.27
932.335	838.81
932.511	705.7
932.687	580.77
932.863	926.88
933.039	789.66
933.215	386.21
933.391	435.36
933.566	674.98
933.742	769.18
933.918	511.14
934.094	404.64
934.27	777.37
934.445	847.01
934.621	744.61
934.797	515.23
934.973	890.01
935.148	914.59
935.324	390.31
935.5	302.25
935.675	1041.56
935.851	765.09
936.027	494.76
936.202	584.87
936.378	746.66
936.553	738.46
936.729	879.77
936.904	396.45
937.08	548
937.255	507.04
937.431	335.01
937.606	261.29
937.782	568.48
937.957	654.5
938.133	429.22
938.308	337.06
938.483	627.87
938.659	421.03
938.834	322.73
939.009	345.25
939.185	556.19
939.36	461.99
939.535	-41.81
939.71	445.6
939.886	945.31
940.061	740.51
940.236	535.71
940.411	359.59
940.586	629.92
940.761	717.98
940.937	414.88
941.112	238.76
941.287	558.24
941.462	621.73
941.637	158.89
941.812	367.78
941.987	634.02
942.162	566.43
942.337	433.32
942.512	275.62
942.687	734.37
942.862	648.35
943.037	31.91
943.212	-21.33
943.386	414.88
943.561	578.72
943.736	328.87
943.911	543.91
944.086	582.82
944.26	562.34
944.435	179.37
944.61	361.64
944.785	730.27
944.959	900.25
945.134	283.81
945.309	191.66
945.483	318.63
945.658	763.04
945.833	13.48
946.007	70.83
946.182	863.39
946.357	183.46
946.531	167.08
946.706	142.5
946.88	122.02
947.055	560.29
947.229	296.1
947.404	232.62
947.578	631.97
947.752	337.06
947.927	56.49
948.101	83.11
948.276	507.04
948.45	504.99
948.624	402.6
948.799	99.5
948.973	521.38
949.147	212.14
949.321	273.57
949.496	257.19
949.67	683.17
949.844	445.6
950.018	189.61
950.193	236.71
950.367	937.12
950.541	367.78
950.715	380.07
950.889	330.92
951.063	384.16
951.237	683.17
951.411	-0.85
951.585	-13.14
951.759	500.9
951.933	412.84
952.107	134.31
952.281	343.21
952.455	744.61
952.629	681.12
952.803	162.98
952.977	158.89
953.151	566.43
953.325	476.32
953.499	359.59
953.672	117.93
953.846	314.53
954.02	439.46
954.194	111.78
954.368	154.79
954.541	560.29
954.715	388.26
954.889	279.72
955.062	169.13
955.236	472.23
955.41	253.09
955.583	343.21
955.757	87.21
955.93	318.63
956.104	144.55
956.278	85.16
956.451	230.57
956.625	550.05
956.798	918.68
956.972	468.13
957.145	101.55
957.319	447.65
957.492	259.24
957.665	382.12
957.839	203.94
958.012	513.19
958.185	388.26
958.359	296.1
958.532	347.3
958.705	562.34
958.879	570.53
959.052	234.66
959.225	70.83
959.398	394.4
959.572	562.34
959.745	189.61
959.918	253.09
960.091	367.78
960.264	498.85
960.438	132.26
960.611	203.94
960.784	615.59
960.957	339.11
961.13	658.59
961.303	181.42
961.476	421.03
961.649	584.87
961.822	117.93
961.995	312.49
962.168	515.23
962.341	560.29
962.514	154.79
962.686	242.85
962.859	500.9
963.032	513.19
963.205	169.13
963.378	25.77
963.551	515.23
963.723	459.94
963.896	292.01
964.069	367.78
964.242	470.18
964.414	672.93
964.587	201.9
964.76	289.96
964.932	513.19
965.105	369.83
965.278	81.07
965.45	205.99
965.623	517.28
965.795	588.96
965.968	230.57
966.14	132.26
966.313	326.82
966.485	472.23
966.658	224.42
966.83	99.5
967.003	629.92
967.175	638.11
967.348	240.81
967.52	269.48
967.692	812.19
967.865	554.15
968.037	146.6
968.209	474.28
968.382	502.95
968.554	656.54
968.726	228.52
968.898	154.79
969.071	474.28
969.243	558.24
969.415	285.86
969.587	347.3
969.759	920.73
969.932	672.93
970.104	191.66
970.276	-4.95
970.448	416.93
970.62	400.55
970.792	341.16
970.964	191.66
971.136	908.44
971.308	597.15
971.48	185.51
971.652	122.02
971.824	707.74
971.996	326.82
972.168	218.28
972.339	265.38
972.511	662.69
972.683	447.65
972.855	408.74
973.027	160.94
973.199	498.85
973.37	652.45
973.542	310.44
973.714	369.83
973.886	402.6
974.057	644.26
974.229	87.21
974.401	122.02
974.572	289.96
974.744	119.98
974.915	134.31
975.087	111.78
975.259	847.01
975.43	289.96
975.602	130.22
975.773	109.74
975.945	236.71
976.116	552.1
976.288	183.46
976.459	425.12
976.63	392.36
976.802	476.32
976.973	191.66
977.145	283.81
977.316	857.25
977.487	887.97
977.659	314.53
977.83	162.98
978.001	787.61
978.172	453.8
978.344	89.26
978.515	97.45
978.686	412.84
978.857	758.94
979.028	218.28
979.2	130.22
979.371	685.22
979.542	445.6
979.713	386.21
979.884	-148.31
980.055	244.9
980.226	310.44
980.397	134.31
980.568	27.82
980.739	691.36
980.91	412.84
981.081	273.57
981.252	40.11
981.423	648.35
981.594	613.54
981.765	171.18
981.936	322.73
982.106	421.03
982.277	683.17
982.448	91.31
982.619	281.77
982.79	375.97
982.96	593.06
983.131	224.42
983.302	-76.63
983.472	281.77
983.643	474.28
983.814	167.08
983.984	142.5
984.155	435.36
984.326	670.88
984.496	330.92
984.667	199.85
984.837	232.62
985.008	763.04
985.178	382.12
985.349	267.43
985.519	355.49
985.69	167.08
985.86	236.71
986.031	126.12
986.201	402.6
986.371	496.8
986.542	36.01
986.712	-60.24
986.882	576.67
987.053	531.62
987.223	76.97
987.393	310.44
987.563	302.25
987.734	543.91
987.904	447.65
988.074	130.22
988.244	478.37
988.414	271.53
988.585	97.45
988.755	175.27
988.925	384.16
989.095	816.29
989.265	103.59
989.435	199.85
989.605	504.99
989.775	535.71
989.945	492.71
990.115	21.67
990.285	371.88
990.455	408.74
990.625	226.47
990.795	56.49
990.965	699.55
991.134	179.37
991.304	27.82
991.474	76.97
991.644	496.8
991.814	703.65
991.984	-27.48
992.153	130.22
992.323	322.73
992.493	425.12
992.662	-84.82
992.832	226.47
993.002	335.01
993.171	449.7
993.341	-39.76
993.511	208.04
993.68	236.71
993.85	478.37
994.019	31.91
994.189	19.63
994.358	320.68
994.528	187.56
994.697	-193.36
994.867	-54.1
995.036	652.45
995.206	193.7
995.375	74.92
995.544	146.6
995.714	382.12
995.883	255.14
996.052	175.27
996.222	-88.92
996.391	822.43
996.56	502.95
996.73	9.39
996.899	-52.05
997.068	679.07
997.237	349.35
997.406	-11.09
997.576	-136.02
997.745	416.93
997.914	470.18
998.083	-189.27
998.252	91.31
998.421	394.4
998.59	171.18
998.759	-103.25
998.928	-107.35
999.097	554.15
999.266	404.64
999.435	146.6
999.604	-101.2
999.773	832.67
999.942	253.09
1000.111	-168.79
1000.28	-131.92
1000.448	130.22
1000.617	240.81
1000.786	222.38
1000.955	-7
1001.124	367.78
1001.292	1002.65
1001.461	-68.44
1001.63	-27.48
1001.798	695.46
1001.967	570.53
1002.136	-152.4
1002.304	-129.88
1002.473	388.26
1002.642	425.12
1002.81	44.2
1002.979	-39.76
1003.147	529.57
1003.316	855.2
1003.484	36.01
1003.653	-62.29
1003.821	543.91
1003.99	257.19
1004.158	89.26
1004.327	42.15
1004.495	535.71
1004.663	183.46
1004.832	109.74
1005	-244.56
1005.168	382.12
1005.337	386.21
1005.505	-166.74
1005.673	185.51
1005.842	457.89
1006.01	429.22
1006.178	-123.73
1006.346	25.77
1006.514	437.41
1006.683	584.87
1006.851	-88.92
1007.019	-217.94
1007.187	76.97
1007.355	-164.69
1007.523	-191.31
1007.691	-144.21
1007.859	-99.16
1008.027	486.56
1008.195	-27.48
1008.363	-189.27
1008.531	550.05
1008.699	107.69
1008.867	-191.31
1009.035	-52.05
1009.203	593.06
1009.37	298.15
1009.538	11.43
1009.706	396.45
1009.874	375.97
1010.042	259.24
1010.209	-164.69
1010.377	-176.98
1010.545	541.86
1010.713	285.86
1010.88	-84.82
1011.048	11.43
1011.216	169.13
1011.383	642.21
1011.551	-99.16
1011.718	-181.07
1011.886	568.48
1012.054	355.49
1012.221	-109.4
1012.389	-154.45
1012.556	269.48
1012.724	631.97
1012.891	1.19
1013.058	-217.94
1013.226	355.49
1013.393	396.45
1013.561	-226.13
1013.728	-254.8
1013.895	552.1
1014.063	378.02
1014.23	-123.73
1014.397	-95.06
1014.565	476.32
1014.732	183.46
1014.899	-99.16
1015.066	-133.97
1015.233	302.25
1015.401	429.22
1015.568	-29.52
1015.735	-82.77
1015.902	312.49
1016.069	429.22
1016.236	-97.11
1016.403	-154.45
1016.57	126.12
1016.737	523.43
1016.904	-17.24
1017.071	-119.64
1017.238	115.88
1017.405	425.12
1017.572	-68.44
1017.739	105.64
1017.906	363.69
1018.073	480.42
1018.24	-119.64
1018.407	-41.81
1018.573	433.32
1018.74	238.76
1018.907	1.19
1019.074	-265.04
1019.241	484.52
1019.407	312.49
1019.574	-90.96
1019.741	-230.23
1019.907	367.78
1020.074	398.5
1020.241	-306
1020.407	-193.36
1020.574	353.45
1020.74	345.25
1020.907	-82.77
1021.073	-148.31
1021.24	781.47
1021.406	582.82
1021.573	-170.83
1021.739	-226.13
1021.906	515.23
1022.072	224.42
1022.239	-131.92
1022.405	-25.43
1022.571	244.9
1022.738	154.79
1022.904	-160.59
1023.07	-17.24
1023.237	214.18
1023.403	535.71
1023.569	-119.64
1023.735	-82.77
1023.902	203.94
1024.068	367.78
1024.234	-207.7
1024.4	-78.68
1024.566	296.1
1024.732	400.55
1024.898	-103.25
1025.065	-269.14
1025.231	404.64
1025.397	93.35
1025.563	-113.49
1025.729	-158.55
1025.895	-197.46
1026.061	38.06
1026.227	-306
1026.392	-78.68
1026.558	591.01
1026.724	388.26
1026.89	-148.31
1027.056	-47.96
1027.222	369.83
1027.388	230.57
1027.553	-113.49
1027.719	-172.88
1027.885	625.83
1028.051	326.82
1028.216	-269.14
1028.382	-138.07
1028.548	347.3
1028.713	132.26
1028.879	-250.71
1029.045	81.07
1029.21	435.36
1029.376	468.13
1029.541	-45.91
1029.707	-115.54
1029.873	425.12
1030.038	400.55
1030.204	-170.83
1030.369	-90.96
1030.534	504.99
1030.7	199.85
1030.865	-74.58
1031.031	-121.68
1031.196	330.92
1031.361	335.01
1031.527	-144.21
1031.692	-164.69
1031.857	-152.4
1032.023	404.64
1032.188	-232.27
1032.353	-62.29
1032.518	593.06
1032.684	365.73
1032.849	-277.33
1033.014	-154.45
1033.179	449.7
1033.344	330.92
1033.509	-45.91
1033.674	-140.12
1033.839	437.41
1034.004	437.41
1034.17	-158.55
1034.335	-172.88
1034.5	179.37
1034.664	-0.85
1034.829	-271.19
1034.994	-144.21
1035.159	236.71
1035.324	265.38
1035.489	-121.68
1035.654	-201.55
1035.819	515.23
1035.984	296.1
1036.148	-131.92
1036.313	-140.12
1036.478	447.65
1036.643	242.85
1036.807	-181.07
1036.972	-211.79
1037.137	492.71
1037.301	216.23
1037.466	-301.9
1037.631	-9.05
1037.795	550.05
1037.96	292.01
1038.124	42.15
1038.289	-232.27
1038.454	365.73
1038.618	335.01
1038.783	-95.06
1038.947	-54.1
1039.111	238.76
1039.276	97.45
1039.44	-107.35
1039.605	322.73
1039.769	249
1039.933	304.29
1040.098	-33.62
1040.262	117.93
1040.426	423.08
1040.591	414.88
1040.755	-172.88
1040.919	-111.44
1041.083	388.26
1041.248	234.66
1041.412	-320.34
1041.576	-205.65
1041.74	255.14
1041.904	369.83
1042.068	-160.59
1042.232	-123.73
1042.397	410.79
1042.561	246.95
1042.725	-426.83
1042.889	-9.05
1043.053	394.4
1043.217	408.74
1043.381	-17.24
1043.544	-185.17
1043.708	490.66
1043.872	-33.62
1044.036	-439.12
1044.2	-318.29
1044.364	453.8
1044.528	654.5
1044.691	4633.7
1044.855	-207.7
1045.019	441.51
1045.183	416.93
1045.346	-160.59
1045.51	-279.38
1045.674	410.79
1045.837	363.69
1046.001	-183.12
1046.165	-111.44
1046.328	818.33
1046.492	357.54
1046.655	-35.67
1046.819	-109.4
1046.983	130.22
1047.146	330.92
1047.31	9.39
1047.473	-344.91
1047.636	271.53
1047.8	-23.38
1047.963	-72.53
1048.127	-152.4
1048.29	29.87
