Data from Ink_Intensity_USB4F045381__4__00004.txt Node

Date: Mon Jul 17 09:26:24 EDT 2023
User: mmckonesweet
Spectrometer: USB4F04538
Trigger mode: 4
Integration Time (sec): 9.000000E-1
Scans to average: 1
Electric dark correction enabled: true
Nonlinearity correction enabled: false
Boxcar width: 0
XAxis mode: Wavelengths
Number of Pixels in Spectrum: 3648
>>>>>Begin Spectral Data<<<<<
345.52	-853.15
345.736	-853.15
345.952	-853.15
346.168	-904.35
346.384	-898.2
346.6	-74.92
346.816	-173.22
347.032	-197.8
347.248	248.66
347.464	-199.85
347.68	-134.31
347.896	84.82
348.112	367.44
348.328	-19.63
348.544	-97.45
348.76	4.95
348.975	191.31
349.191	-205.99
349.407	-66.73
349.623	-33.96
349.839	-52.39
350.055	31.57
350.27	217.94
350.486	217.94
350.702	361.3
350.918	346.96
351.133	-62.63
351.349	183.12
351.565	349.01
351.781	-70.83
351.996	127.83
352.212	439.12
352.428	-105.64
352.644	-21.67
352.859	-193.7
353.075	254.8
353.291	23.38
353.506	-9.39
353.722	-72.87
353.938	-21.67
354.153	500.56
354.369	88.92
354.584	-72.87
354.8	291.66
355.016	-267.43
355.231	-103.59
355.447	-46.25
355.662	154.45
355.878	1012.55
356.093	-238.76
356.309	50
356.524	-109.74
356.74	293.71
356.955	4.95
357.171	99.16
357.386	207.7
357.602	-152.74
357.817	39.76
358.033	-40.11
358.248	482.13
358.464	217.94
358.679	33.62
358.895	-197.8
359.11	27.48
359.325	449.36
359.541	269.14
359.756	125.78
359.972	-208.04
360.187	238.42
360.402	-83.11
360.618	41.81
360.833	867.14
361.048	271.19
361.264	-60.59
361.479	50
361.694	37.72
361.909	238.42
362.125	-64.68
362.34	50
362.555	242.51
362.77	121.68
362.986	-103.59
363.201	9.05
363.416	215.89
363.631	125.78
363.847	-29.87
364.062	-70.83
364.277	242.51
364.492	162.64
364.707	19.29
364.922	-269.48
365.138	420.69
365.353	447.31
365.568	43.86
365.783	52.05
365.998	176.98
366.213	660.3
366.428	-44.2
366.643	199.51
366.858	355.15
367.073	326.48
367.288	47.96
367.503	-79.02
367.718	176.98
367.933	363.34
368.148	-138.41
368.363	103.25
368.578	160.59
368.793	432.97
369.008	29.52
369.223	-23.72
369.438	310.1
369.653	539.47
369.868	-29.87
370.083	4.95
370.298	226.13
370.513	457.55
370.728	246.61
370.943	2.9
371.157	-9.39
371.372	531.28
371.587	-62.63
371.802	-31.91
372.017	80.72
372.232	621.39
372.446	113.49
372.661	-58.54
372.876	349.01
373.091	252.75
373.306	43.86
373.52	-9.39
373.735	4.95
373.95	432.97
374.165	185.17
374.379	68.44
374.594	47.96
374.809	260.95
375.023	260.95
375.238	-66.73
375.453	424.78
375.667	-68.78
375.882	131.92
376.097	70.48
376.311	201.55
376.526	174.93
376.741	88.92
376.955	189.27
377.17	725.83
377.384	619.34
377.599	86.87
377.813	-9.39
378.028	717.64
378.242	277.33
378.457	154.45
378.672	-101.55
378.886	230.23
379.101	60.24
379.315	-42.15
379.53	11.09
379.744	277.33
379.958	340.82
380.173	72.53
380.387	80.72
380.602	332.62
380.816	47.96
381.031	101.2
381.245	174.93
381.459	424.78
381.674	2464.56
381.888	39.76
382.103	338.77
382.317	-25.77
382.531	822.09
382.746	146.26
382.96	84.82
383.174	113.49
383.388	570.19
383.603	303.95
383.817	97.11
384.031	469.84
384.246	682.83
384.46	316.24
384.674	551.76
384.888	312.14
385.103	291.66
385.317	9.05
385.531	228.18
385.745	482.13
385.959	498.51
386.174	125.78
386.388	125.78
386.602	199.51
386.816	90.96
387.03	232.27
387.244	279.38
387.458	375.63
387.672	611.15
387.887	142.16
388.101	-3.24
388.315	627.53
388.529	383.82
388.743	269.14
388.957	183.12
389.171	551.76
389.385	187.22
389.599	269.14
389.813	488.27
390.027	430.93
390.241	938.82
390.455	299.86
390.669	303.95
390.883	246.61
391.097	643.92
391.311	371.54
391.525	236.37
391.738	496.46
391.952	447.31
392.166	332.62
392.38	242.51
392.594	547.66
392.808	629.58
393.022	273.23
393.236	244.56
393.449	498.51
393.663	525.13
393.877	187.22
394.091	310.1
394.305	404.3
394.518	275.28
394.732	152.4
394.946	314.19
395.16	664.4
395.373	361.3
395.587	359.25
395.801	299.86
396.015	643.92
396.228	559.95
396.442	236.37
396.656	168.79
396.869	693.07
397.083	789.32
397.297	363.34
397.51	287.57
397.724	740.17
397.938	504.65
398.151	179.03
398.365	310.1
398.578	611.15
398.792	830.28
399.005	457.55
399.219	408.4
399.433	514.89
399.646	512.85
399.86	469.84
400.073	484.17
400.287	635.72
400.5	449.36
400.714	521.04
400.927	396.11
401.141	639.82
401.354	1502.01
401.567	535.37
401.781	308.05
401.994	873.29
402.208	1010.5
402.421	437.07
402.635	506.7
402.848	545.61
403.061	777.03
403.275	432.97
403.488	416.59
403.701	975.69
403.915	684.87
404.128	467.79
404.341	482.13
404.555	617.29
404.768	555.85
404.981	637.77
405.195	455.5
405.408	1117
405.621	793.42
405.834	605
406.048	449.36
406.261	908.1
406.474	990.02
406.687	469.84
406.9	680.78
407.114	553.8
407.327	684.87
407.54	426.83
407.753	351.06
407.966	523.09
408.179	834.38
408.392	574.28
408.605	379.73
408.819	854.86
409.032	873.29
409.245	500.56
409.458	834.38
409.671	828.23
409.884	838.47
410.097	523.09
410.31	752.46
410.523	742.22
410.736	633.68
410.949	600.91
411.162	627.53
411.375	1104.71
411.588	994.12
411.801	879.43
412.014	523.09
412.227	725.83
412.44	594.76
412.653	631.63
412.865	858.95
413.078	1028.93
413.291	1018.69
413.504	768.84
413.717	629.58
413.93	1030.98
414.143	627.53
414.356	615.24
414.568	480.08
414.781	1057.61
414.994	895.82
415.207	832.33
415.42	727.88
415.632	1086.28
415.845	1194.82
416.058	627.53
416.271	643.92
416.483	824.14
416.696	1270.59
416.909	764.75
417.121	707.4
417.334	1143.62
417.547	1375.04
417.759	727.88
417.972	799.56
418.185	729.93
418.397	1149.76
418.61	727.88
418.823	826.18
419.035	1411.9
419.248	957.25
419.46	809.8
419.673	963.4
419.885	1194.82
420.098	901.96
420.311	865.1
420.523	631.63
420.736	1200.96
420.948	918.34
421.161	932.68
421.373	734.03
421.586	1151.81
421.798	861
422.01	701.26
422.223	1067.85
422.435	971.59
422.648	1225.54
422.86	947.01
423.073	807.75
423.285	1418.05
423.497	791.37
423.71	936.78
423.922	924.49
424.134	1284.93
424.347	1381.18
424.559	1217.35
424.771	1205.06
424.984	1069.89
425.196	1313.6
425.408	897.86
425.621	897.86
425.833	1491.77
426.045	1411.9
426.257	963.4
426.47	973.64
426.682	1286.98
426.894	1340.22
427.106	1073.99
427.318	1137.48
427.531	1225.54
427.743	1481.53
427.955	1010.5
428.167	1475.39
428.379	1436.48
428.591	1205.06
428.804	1260.35
429.016	1047.37
429.228	1239.87
429.44	1409.86
429.652	1352.51
429.864	1010.5
430.076	1289.03
430.288	1260.35
430.5	1407.81
430.712	1440.58
430.924	1669.95
431.136	1473.34
431.348	1114.95
431.56	1243.97
431.772	1350.46
431.984	1307.46
432.196	1252.16
432.408	1375.04
432.62	1413.95
432.832	1538.88
433.044	1594.17
433.256	1655.61
433.468	1747.77
433.679	1291.07
433.891	1305.41
434.103	1700.67
434.315	1893.18
434.527	1776.44
434.739	1530.69
434.95	1422.14
435.162	1811.26
435.374	1508.16
435.586	1594.17
435.798	1395.52
436.009	1416
436.221	1579.84
436.433	1471.29
436.645	1581.89
436.856	1686.33
437.068	1825.59
437.28	1491.77
437.491	1880.89
437.703	1745.72
437.915	1864.5
438.126	1653.56
438.338	1725.24
438.55	1807.16
438.761	1997.62
438.973	1747.77
439.184	1772.35
439.396	1747.77
439.608	2024.25
439.819	1424.19
440.031	1831.74
440.242	2077.49
440.454	2005.81
440.665	1653.56
440.877	1950.52
441.088	1932.09
441.3	1868.6
441.511	1743.67
441.723	1592.13
441.934	1919.8
442.146	2009.91
442.357	1950.52
442.569	2083.64
442.78	2005.81
442.991	2216.76
443.203	2177.84
443.414	1743.67
443.626	2399.02
443.837	1973.05
444.048	1852.22
444.26	1702.72
444.471	2011.96
444.682	2284.34
444.894	1690.43
445.105	1696.57
445.316	2183.99
445.528	2257.71
445.739	2057.01
445.95	2087.73
446.161	2210.61
446.373	2452.27
446.584	2034.49
446.795	1968.95
447.006	2347.83
447.217	2542.38
447.429	1919.8
447.64	2108.21
447.851	2356.02
448.062	2167.6
448.273	1962.81
448.484	2079.54
448.695	2413.36
448.907	2134.84
449.118	2257.71
449.329	2257.71
449.54	2054.97
449.751	2059.06
449.962	2196.28
450.173	2243.38
450.384	2618.16
450.595	2693.93
450.806	2337.59
451.017	2222.9
451.228	2620.21
451.439	2657.07
451.65	2296.63
451.861	2136.88
452.072	2227
452.283	2388.78
452.494	2583.34
452.705	2433.84
452.915	2849.58
453.126	2642.73
453.337	2437.94
453.548	2468.66
453.759	2896.68
453.97	3234.6
454.181	2499.38
454.391	2523.95
454.602	2753.32
454.813	2833.19
455.024	2726.7
455.235	2675.5
455.445	2759.47
455.656	2786.09
455.867	2648.88
456.078	2587.44
456.288	2769.71
456.499	2825
456.71	2616.11
456.921	2964.26
457.131	3001.13
457.342	2880.3
457.553	2806.57
457.763	2804.52
457.974	3081
458.184	3248.93
458.395	2857.77
458.606	2718.51
458.816	3177.25
459.027	3543.84
459.237	3015.46
459.448	2781.99
459.659	3336.99
459.869	3691.29
460.08	2790.19
460.29	3240.74
460.501	3693.34
460.711	3177.25
460.922	2986.79
461.132	3363.62
461.343	3959.58
461.553	3244.84
461.764	3156.77
461.974	3054.37
462.184	3568.41
462.395	3463.97
462.605	3531.55
462.816	3406.63
463.026	3613.47
463.236	3715.87
463.447	3443.49
463.657	3396.39
463.867	3810.08
464.078	3754.78
464.288	3644.19
464.498	3838.75
464.709	3801.88
464.919	3846.94
465.129	3713.82
465.339	3697.44
465.55	3885.85
465.76	4053.78
465.97	3728.16
466.18	3652.38
466.391	4270.87
466.601	4021.02
466.811	4150.04
467.021	3908.38
467.231	4281.11
467.441	4313.88
467.651	4342.55
467.862	4023.06
468.072	4397.84
468.282	4752.14
468.492	4166.42
468.702	4459.28
468.912	4662.03
469.122	5161.73
469.332	4805.39
469.542	4619.02
469.752	4922.12
469.962	4797.2
470.172	4514.58
470.382	4780.81
470.592	5067.53
470.802	5221.13
471.012	5110.54
471.222	5022.47
471.432	5462.79
471.642	5307.14
471.852	5335.81
472.062	5055.24
472.272	5268.23
472.482	5137.16
472.691	5235.46
472.901	5186.31
473.111	5720.83
473.321	6046.46
473.531	5579.52
473.741	5698.3
473.95	5964.54
474.16	6142.71
474.37	5950.2
474.58	5948.15
474.79	6345.46
474.999	6333.17
475.209	5937.91
475.419	6261.49
475.628	6402.8
475.838	6451.95
476.048	6257.4
476.258	6220.53
476.467	6939.37
476.677	6595.31
476.886	6920.94
477.096	6533.87
477.306	6626.03
477.515	7256.81
477.725	6744.81
477.935	6798.06
478.144	7279.33
478.354	6867.69
478.563	7221.99
478.773	7176.94
478.982	7357.16
479.192	7731.94
479.401	7353.06
479.611	7457.51
479.82	7480.04
480.03	7906.01
480.239	7535.33
480.449	7594.72
480.658	8440.53
480.868	7766.75
481.077	8086.23
481.287	7910.11
481.496	8291.03
481.705	8657.62
481.915	8272.6
482.124	8495.83
482.333	8489.68
482.543	8915.66
482.752	8389.33
482.961	8612.56
483.171	8786.64
483.38	8641.23
483.589	8925.9
483.799	8774.35
484.008	8872.65
484.217	9468.61
484.426	9198.28
484.636	9192.14
484.845	9446.09
485.054	9118.41
485.263	9505.48
485.472	9419.46
485.682	9878.21
485.891	9673.41
486.1	9431.75
486.309	9800.38
486.518	10097.34
486.727	10287.8
486.936	9968.32
487.146	9951.93
487.355	10508.98
487.564	10044.09
487.773	10222.27
487.982	10113.72
488.191	10531.51
488.4	10541.75
488.609	10478.26
488.818	10556.08
489.027	11231.91
489.236	11041.45
489.445	10666.67
489.654	10599.09
489.863	11256.49
490.072	10891.95
490.281	11328.17
490.49	11041.45
490.698	11627.17
490.907	11571.88
491.116	11311.78
491.325	11293.35
491.534	11733.67
491.743	11872.93
491.952	11633.32
492.16	11532.97
492.369	11954.85
492.578	12008.09
492.787	11801.25
492.996	11557.54
493.204	11922.08
493.413	12286.62
493.622	11778.72
493.831	12081.82
494.039	12458.65
494.248	12229.27
494.457	12280.47
494.665	12120.73
494.874	12575.38
495.083	12923.54
495.291	12419.74
495.5	12413.59
495.709	12972.69
495.917	13046.41
496.126	12804.75
496.335	12778.13
496.543	12903.06
496.752	12964.5
496.96	13030.03
497.169	12845.71
497.377	13365.9
497.586	13335.18
497.794	13314.7
498.003	12970.64
498.211	13402.76
498.42	13916.8
498.628	13619.85
498.837	13251.21
499.045	13961.86
499.254	13875.84
499.462	13300.36
499.671	13568.65
499.879	14387.83
500.087	14219.9
500.296	13900.42
500.504	13947.52
500.713	13953.66
500.921	14791.28
501.129	14047.87
501.338	14013.06
501.546	14461.56
501.754	14377.59
501.962	14150.27
502.171	13922.94
502.379	14490.23
502.587	14905.97
502.795	14512.76
503.004	14369.4
503.212	14649.97
503.42	14938.74
503.628	14787.19
503.837	14932.59
504.045	15047.28
504.253	15405.67
504.461	14764.66
504.669	14834.29
504.877	15231.6
505.085	15473.26
505.294	15037.04
505.502	15182.45
505.71	15311.47
505.918	15866.47
506.126	15260.27
506.334	15303.28
506.542	15491.69
506.75	15655.53
506.958	15522.41
507.166	15438.44
507.374	15641.19
507.582	16095.84
507.79	15596.14
507.998	15530.6
508.206	16140.9
508.414	15878.76
508.622	15843.94
508.83	15862.37
509.037	16288.35
509.245	15888.99
509.453	15792.74
509.661	16110.18
509.869	16505.43
510.077	16200.29
510.285	16052.83
510.492	15917.67
510.7	17080.91
510.908	16409.18
511.116	16126.56
511.324	16181.85
511.531	16357.98
511.739	16454.23
511.947	16513.63
512.155	16738.9
512.362	16538.2
512.57	16616.02
512.778	16542.3
512.985	16413.27
513.193	17076.82
513.401	17402.44
513.608	16792.15
513.816	16960.08
514.024	17275.47
514.231	17166.93
514.439	16880.21
514.646	16937.55
514.854	17365.58
515.061	17386.06
515.269	17162.83
515.477	16970.32
515.684	16894.55
515.892	17625.67
516.099	16894.55
516.307	17162.83
516.514	17732.17
516.722	17943.11
516.929	17451.6
517.136	17439.31
517.344	17965.64
517.551	17781.32
517.759	17500.75
517.966	17412.68
518.173	17609.29
518.381	18133.57
518.588	18055.75
518.796	17617.48
519.003	17977.92
519.21	18029.12
519.418	17930.82
519.625	18240.06
519.832	18283.07
520.039	18364.99
520.247	17863.24
520.454	18225.73
520.661	18893.37
520.868	18453.05
521.076	18223.68
521.283	18334.27
521.49	18909.75
521.697	18788.92
521.904	18307.65
522.112	18328.13
522.319	19106.35
522.526	19016.24
522.733	18727.48
522.94	18627.13
523.147	18856.5
523.354	19051.06
523.561	18776.63
523.768	18919.99
523.975	19556.91
524.183	19145.27
524.39	19296.81
524.597	18907.7
524.804	19255.86
525.011	19221.04
525.218	19218.99
525.425	19530.28
525.632	19673.64
525.838	19411.5
526.045	19503.66
526.252	19460.65
526.459	20763.16
526.666	20503.07
526.873	19702.31
527.08	19542.57
527.287	20103.71
527.494	19655.21
527.701	20025.89
527.907	19974.69
528.114	20523.55
528.321	20156.96
528.528	20021.8
528.735	20120.1
528.941	20429.34
529.148	19911.21
529.355	19825.19
529.562	19728.94
529.768	20859.42
529.975	20044.32
530.182	20359.71
530.388	20128.29
530.595	21019.16
530.802	20238.88
531.008	20838.94
531.215	20654.62
531.422	21543.44
531.628	21473.81
531.835	20851.22
532.042	20861.46
532.248	20703.77
532.455	21039.64
532.661	20904.47
532.868	20847.13
533.074	21475.85
533.281	21651.98
533.487	21324.3
533.694	21348.88
533.9	21277.2
534.107	21412.37
534.313	21264.91
534.52	21690.89
534.726	21510.67
534.933	22053.38
535.139	21402.13
535.345	21086.74
535.552	21809.67
535.758	21781
535.965	21713.42
536.171	21537.29
536.377	22274.56
536.584	22354.43
536.79	22106.63
536.996	22155.78
537.203	22344.19
537.409	22292.99
537.615	22086.15
537.821	22014.47
538.028	22725.11
538.234	22483.45
538.44	22495.74
538.646	22462.97
538.853	22835.7
539.059	22737.4
539.265	22827.51
539.471	22309.38
539.677	22653.44
539.883	22446.59
540.09	22329.86
540.296	23282.16
540.502	23050.74
540.708	22639.1
540.914	22798.84
541.12	22698.49
541.326	23562.73
541.532	23167.48
541.738	23179.76
541.944	23210.48
542.15	23433.71
542.356	23181.81
542.562	23355.89
542.768	23169.52
542.974	24420.83
543.18	24377.83
543.386	23796.2
543.592	23495.15
543.798	23953.9
544.004	24031.72
544.21	23720.43
544.415	23712.24
544.621	23978.47
544.827	23917.03
545.033	24117.73
545.239	24191.46
545.445	24146.4
545.651	23824.87
545.856	23652.84
546.062	24220.13
546.268	24459.74
546.474	24189.41
546.679	23980.52
546.885	24132.07
547.091	24416.74
547.297	24252.9
547.502	23921.13
547.708	24381.92
547.914	24082.92
548.119	24857.05
548.325	24060.39
548.531	24084.97
548.736	24986.07
548.942	24310.24
549.147	24150.5
549.353	25035.22
549.559	24926.68
549.764	24777.18
549.97	24332.77
550.175	24689.12
550.381	25113.05
550.586	24609.25
550.792	24762.84
550.997	24912.35
551.203	25403.86
551.408	25111
551.614	24553.95
551.819	25158.1
552.025	25670.09
552.23	26079.69
552.435	25305.56
552.641	26198.47
552.846	25498.06
553.052	26151.37
553.257	25780.68
553.462	25653.71
553.668	25633.23
553.873	26253.76
554.078	26065.35
554.283	25536.98
554.489	26198.47
554.694	26022.34
554.899	25881.03
555.105	26147.27
555.31	26028.49
555.515	26296.77
555.72	26378.69
555.925	25911.75
556.131	26868.16
556.336	26282.44
556.541	26493.38
556.746	26261.96
556.951	26597.82
557.156	26841.53
557.361	26409.41
557.567	26859.96
557.772	27101.62
557.977	26700.22
558.182	26442.18
558.387	26577.34
558.592	26577.34
558.797	27083.19
559.002	26751.42
559.207	26763.71
559.412	26481.09
559.617	27146.68
559.822	27138.49
560.027	26743.23
560.232	26833.34
560.437	27447.73
560.642	26497.47
560.847	26808.76
561.051	27261.37
561.256	27097.53
561.461	27240.89
561.666	27316.66
561.871	27455.92
562.076	27679.15
562.281	27267.51
562.485	27199.93
562.69	27285.94
562.895	27464.11
563.1	27453.87
563.305	27462.07
563.509	27828.65
563.714	28010.92
563.919	27541.94
564.123	27384.24
564.328	27621.81
564.533	28279.21
564.737	27201.97
564.942	27279.8
565.147	28289.45
565.351	28508.58
565.556	27558.32
565.761	27765.17
565.965	28033.45
566.17	27593.14
566.374	27560.37
566.579	27736.49
566.784	27799.98
566.988	27982.25
567.193	27994.54
567.397	28039.59
567.602	27838.89
567.806	27900.33
568.011	28096.94
568.215	27953.58
568.42	28139.94
568.624	28062.12
568.828	27849.13
569.033	27996.59
569.237	28705.18
569.442	28688.8
569.646	27582.9
569.85	28397.99
570.055	28527.01
570.259	28397.99
570.463	28580.26
570.668	28785.05
570.872	28709.28
571.076	28895.64
571.281	28457.38
571.485	28789.15
571.689	28975.52
571.893	28856.73
572.098	28772.77
572.302	28973.47
572.506	29000.09
572.71	29108.63
572.914	28959.13
573.119	28909.98
573.323	29411.73
573.527	29581.71
573.731	28817.82
573.935	28905.88
574.139	29305.24
574.343	28987.8
574.547	29161.88
574.751	29221.27
574.955	29880.72
575.159	29211.03
575.364	29221.27
575.568	29567.38
575.772	29501.84
575.976	29692.3
576.18	29217.18
576.383	29657.49
576.587	29784.46
576.791	29632.91
576.995	29241.75
577.199	29692.3
577.403	30036.36
577.607	30525.83
577.811	29878.67
578.015	29782.41
578.219	30218.63
578.422	30425.48
578.626	30024.08
578.83	29948.3
579.034	30187.91
579.238	30263.69
579.442	30134.67
579.645	30454.15
579.849	30349.7
580.053	30689.67
580.257	30112.14
580.46	30163.34
580.664	30755.2
580.868	30282.12
581.071	30292.36
581.275	30105.99
581.479	30255.5
581.682	30265.74
581.886	30450.05
582.09	30149
582.293	30865.79
582.497	30740.86
582.7	30761.34
582.904	30648.71
583.107	30957.95
583.311	31193.47
583.515	30728.58
583.718	30601.6
583.922	31189.37
584.125	31551.86
584.329	30564.74
584.532	31033.72
584.735	31596.92
584.939	31011.2
585.142	30765.44
585.346	31166.84
585.549	31426.93
585.753	31588.72
585.956	31410.55
586.159	31322.49
586.363	31897.97
586.566	31717.75
586.769	31410.55
586.973	31148.41
587.176	31887.73
587.379	32178.54
587.582	31742.32
587.786	31674.74
587.989	31814
588.192	32422.25
588.395	31994.22
588.599	31752.56
588.802	32180.59
589.005	31979.89
589.208	31824.24
589.411	32094.57
589.615	32430.44
589.818	32926.05
590.021	32076.14
590.224	32174.44
590.427	32495.97
590.63	32297.32
590.833	32444.77
591.036	32209.26
591.239	32719.2
591.442	32375.14
591.645	32670.05
591.848	32708.96
592.051	32754.02
592.254	32827.74
592.457	32432.49
592.66	32596.32
592.863	32760.16
593.066	33130.84
593.269	32715.11
593.472	32997.73
593.675	32960.86
593.878	33194.33
594.081	32876.9
594.284	32784.74
594.486	33278.3
594.689	33251.67
594.892	32919.9
595.095	33134.94
595.298	33081.69
595.5	33435.99
595.703	33323.35
595.906	33255.77
596.109	33866.06
596.311	33710.42
596.514	33124.7
596.717	33497.43
596.92	34068.81
597.122	33644.88
597.325	32883.04
597.528	33067.36
597.73	33964.37
597.933	33552.73
598.136	33454.42
598.338	33237.34
598.541	33935.7
598.743	34126.16
598.946	33515.86
599.148	33634.64
599.351	34148.68
599.554	34275.66
599.756	33861.97
599.959	34214.22
600.161	34316.62
600.363	34574.66
600.566	34314.57
600.768	33888.59
600.971	34818.37
601.173	34625.86
601.376	34040.14
601.578	34167.12
601.78	34441.54
601.983	34922.82
602.185	34179.4
602.388	34728.26
602.59	34507.08
602.792	34662.72
602.995	34599.24
603.197	34228.56
603.399	34677.06
603.601	34677.06
603.804	34582.85
604.006	34507.08
604.208	34294.09
604.41	34289.99
604.613	34615.62
604.815	34548.04
605.017	35342.65
605.219	34795.84
605.421	34709.83
605.623	34691.4
605.826	35463.48
606.028	35131.71
606.23	34697.54
606.432	34519.37
606.634	35709.24
606.836	35100.99
607.038	34451.78
607.24	34900.29
607.442	35109.18
607.644	35234.11
607.846	34947.39
608.048	34650.44
608.25	35356.99
608.452	34900.29
608.654	35094.85
608.856	34763.07
609.058	35434.81
609.26	35569.97
609.462	35139.9
609.664	35500.34
609.866	35475.77
610.067	35336.51
610.269	34816.32
610.471	34562.37
610.673	35160.38
610.875	35621.17
611.077	34740.55
611.278	35189.05
611.48	35133.76
611.682	35938.61
611.884	35498.3
612.085	35201.34
612.287	35066.17
612.489	35414.33
612.69	34912.58
612.892	35361.08
613.094	35526.97
613.295	34943.3
613.497	35258.68
613.699	35240.25
613.9	35821.87
614.102	35760.44
614.304	35406.14
614.505	34779.46
614.707	35483.96
614.908	34769.22
615.11	34994.5
615.311	35416.38
615.513	35332.41
615.714	35586.36
615.916	35402.04
616.117	35295.55
616.319	35332.41
616.52	35842.35
616.722	35627.32
616.923	35778.87
617.124	35692.85
617.326	35553.59
617.527	35408.19
617.729	35481.91
617.93	35895.6
618.131	35905.84
618.333	35547.45
618.534	35596.6
618.735	35854.64
618.937	35705.14
619.138	35340.6
619.339	35547.45
619.54	35750.2
619.742	35828.02
619.943	35723.57
620.144	35582.26
620.345	35795.25
620.546	35719.48
620.748	35729.72
620.949	35725.62
621.15	35787.06
621.351	35578.17
621.552	35455.29
621.753	35854.64
621.954	35688.76
622.155	35717.43
622.356	35346.75
622.558	35629.37
622.759	36067.63
622.96	36270.38
623.161	35883.31
623.362	35924.27
623.563	36086.06
623.764	35952.94
623.965	36020.53
624.166	36249.9
624.366	36069.68
624.567	36112.69
624.768	35825.97
624.969	35963.18
625.17	36278.57
625.371	36155.69
625.572	35768.63
625.773	35705.14
625.973	36280.62
626.174	36260.14
626.375	36153.65
626.576	36112.69
626.777	36254
626.977	36333.87
627.178	36260.14
627.379	35766.58
627.58	35668.28
627.78	36227.37
627.981	35877.17
628.182	36550.95
628.382	36231.47
628.583	35944.75
628.784	35658.04
628.984	35969.33
629.185	36065.58
629.386	36131.12
629.586	36258.09
629.787	35897.65
629.987	36241.71
630.188	36661.54
630.388	36272.43
630.589	35651.89
630.79	36768.04
630.99	36258.09
631.191	35926.32
631.391	36587.82
631.591	36333.87
631.792	37062.94
631.992	36880.67
632.193	36792.61
632.393	36714.79
632.594	36598.05
632.794	36641.06
632.994	36720.93
633.195	36704.55
633.395	36772.13
633.595	36409.64
633.796	36811.04
633.996	36667.69
634.196	37280.03
634.397	36473.13
634.597	36778.28
634.797	36790.56
634.997	36974.88
635.198	36512.04
635.398	36163.89
635.598	36845.86
635.798	37062.94
635.998	36843.81
636.199	36413.74
636.399	36823.33
636.599	36675.88
636.799	36802.85
636.999	36694.31
637.199	37093.66
637.399	37366.04
637.599	36925.73
637.799	36755.75
637.999	36751.65
638.199	37478.68
638.399	36561.19
638.599	36569.38
638.799	37159.2
638.999	38164.75
639.199	37202.21
639.399	37409.05
639.599	37398.81
639.799	36815.14
639.999	36774.18
640.199	37048.61
640.399	37302.56
640.599	36446.51
640.799	37523.74
640.998	37003.55
641.198	37499.16
641.398	37200.16
641.598	37503.26
641.798	37200.16
641.997	38150.42
642.197	37161.25
642.397	37503.26
642.597	37351.71
642.796	37232.93
642.996	37622.04
643.196	37159.2
643.395	36862.24
643.595	37728.53
643.795	37339.42
643.994	37576.98
644.194	37718.29
644.394	37775.64
644.593	37587.22
644.793	37267.74
644.992	37679.38
645.192	37812.5
645.392	37423.39
645.591	37798.16
645.791	37509.4
645.99	37726.49
646.19	37853.46
646.389	37667.09
646.589	37531.93
646.788	37931.28
646.987	37898.52
647.187	38197.52
647.386	38084.88
647.586	38267.15
647.785	38215.95
647.984	37792.02
648.184	38482.19
648.383	37724.44
648.582	37792.02
648.782	38138.13
648.981	37837.08
649.18	37388.57
649.38	38201.61
649.579	37689.62
649.778	38005.01
649.977	38086.93
650.177	38218
650.376	38015.25
650.575	37656.85
650.774	38658.31
650.973	38656.26
651.173	37980.43
651.372	38168.85
651.571	38344.97
651.77	38545.67
651.969	38068.5
652.168	38279.44
652.367	37941.52
652.566	38334.73
652.765	38308.11
652.964	38592.78
653.163	38848.77
653.362	38398.22
653.561	38093.07
653.76	38146.32
653.959	38101.26
654.158	38760.71
654.357	38256.91
654.556	38039.82
654.755	38607.11
654.954	38387.98
655.153	37798.16
655.352	38240.53
655.551	38218
655.749	38242.57
655.948	37914.9
656.147	38605.06
656.346	38277.39
656.545	38492.43
656.743	37982.48
656.942	38123.79
657.141	38463.75
657.34	38357.26
657.538	38293.77
657.737	38189.33
657.936	38795.53
658.135	38461.71
658.333	38453.51
658.532	38005.01
658.731	38846.72
658.929	38453.51
659.128	38617.35
659.326	38238.48
659.525	39305.47
659.724	38230.29
659.922	38529.29
660.121	38494.47
660.319	38783.24
660.518	38510.86
660.716	38301.96
660.915	38230.29
661.113	39194.88
661.312	38564.1
661.51	38584.58
661.709	38318.35
661.907	38846.72
662.105	38742.28
662.304	38875.4
662.502	38957.31
662.701	39497.98
662.899	38838.53
663.097	38893.83
663.296	38287.63
663.494	38969.6
663.692	38779.14
663.891	38619.4
664.089	38529.29
664.287	38596.87
664.485	38983.94
664.684	38643.98
664.882	38398.22
665.08	38586.63
665.278	39092.48
665.476	38699.27
665.675	38863.11
665.873	39258.37
666.071	39158.02
666.269	38385.93
666.467	38777.09
666.665	39127.3
666.863	38809.86
667.061	39270.65
667.259	38766.85
667.457	38928.64
667.655	38963.46
667.853	38584.58
668.051	38379.79
668.249	38234.38
668.447	38744.33
668.645	37611.8
668.843	38691.08
669.041	38885.64
669.239	38129.94
669.437	38760.71
669.635	38789.38
669.833	39026.95
670.031	38947.08
670.229	38596.87
670.426	38953.22
670.624	38492.43
670.822	38572.3
671.02	38211.85
671.218	38381.84
671.415	38025.49
671.613	38209.81
671.811	38000.91
672.009	38445.32
672.206	38676.74
672.404	38646.02
672.602	38273.29
672.799	38818.05
672.997	39215.36
673.195	38906.12
673.392	39074.05
673.59	38400.27
673.788	38293.77
673.985	38031.63
674.183	38197.52
674.38	38494.47
674.578	38781.19
674.775	38250.77
674.973	38170.89
675.17	38242.57
675.368	38615.3
675.565	38220.05
675.763	37984.53
675.96	38086.93
676.158	38230.29
676.355	37921.04
676.553	38449.42
676.75	37822.74
676.947	38293.77
677.145	38281.49
677.342	38459.66
677.539	38023.44
677.737	38340.88
677.934	38945.03
678.131	38297.87
678.329	38232.33
678.526	38641.93
678.723	38533.39
678.92	38664.46
679.118	38123.79
679.315	37671.19
679.512	38277.39
679.709	37951.76
679.906	37865.75
680.104	38197.52
680.301	37646.61
680.498	37130.53
680.695	37454.11
680.892	37259.55
681.089	37443.87
681.286	37663
681.483	37374.24
681.68	38021.39
681.877	37923.09
682.075	37433.63
682.272	37937.43
682.469	37749.01
682.665	37802.26
682.862	37466.39
683.059	37540.12
683.256	37619.99
683.453	38029.59
683.65	37910.8
683.847	38299.92
684.044	37980.43
684.241	37570.84
684.438	37634.33
684.635	37294.36
684.831	37968.15
685.028	37863.7
685.225	37214.49
685.422	37255.45
685.619	37447.96
685.815	37292.32
686.012	37079.33
686.209	37206.3
686.405	37087.52
686.602	37368.09
686.799	36792.61
686.996	37216.54
687.192	37064.99
687.389	37339.42
687.586	36968.74
687.782	37402.91
687.979	37296.41
688.175	37138.72
688.372	36872.48
688.568	37400.86
688.765	36917.54
688.962	37331.23
689.158	37122.33
689.355	36966.69
689.551	37128.48
689.748	37005.6
689.944	37091.62
690.14	36856.1
690.337	37259.55
690.533	37052.7
690.73	37036.32
690.926	37138.72
691.123	36720.93
691.319	36938.02
691.515	36503.85
691.712	36716.84
691.908	37058.85
692.104	36940.07
692.301	36729.12
692.497	36884.77
692.693	37224.73
692.889	37196.06
693.086	36753.7
693.282	36190.51
693.478	36516.14
693.674	37056.8
693.87	36274.48
694.067	36366.63
694.263	36143.41
694.459	36530.47
694.655	36559.14
694.851	36802.85
695.047	36706.6
695.243	36751.65
695.439	36483.37
695.635	36153.65
695.831	36327.72
696.027	36153.65
696.224	35983.66
696.42	36557.1
696.615	37011.74
696.811	36446.51
697.007	35963.18
697.203	36133.17
697.399	36184.37
697.595	36700.45
697.791	35873.07
697.987	36352.3
698.183	36249.9
698.379	35948.85
698.575	36153.65
698.77	35655.99
698.966	36194.61
699.162	36593.96
699.358	36333.87
699.554	35926.32
699.749	36634.92
699.945	36591.91
700.141	36081.97
700.337	36307.24
700.532	36217.13
700.728	35889.46
700.924	35854.64
701.119	35856.69
701.315	36122.93
701.511	35672.37
701.706	36294.96
701.902	35479.86
702.097	35914.03
702.293	36327.72
702.489	36139.31
702.684	35737.91
702.88	35942.7
703.075	35674.42
703.271	35232.06
703.466	35580.21
703.662	35516.73
703.857	35590.45
704.053	35721.52
704.248	35563.83
704.443	35819.83
704.639	35776.82
704.834	35725.62
705.03	35541.3
705.225	35762.48
705.42	35926.32
705.616	35248.44
705.811	35346.75
706.006	35418.42
706.202	35426.62
706.397	34931.01
706.592	35277.12
706.787	35340.6
706.983	35356.99
707.178	35791.16
707.373	35184.96
707.568	35227.96
707.763	35537.21
707.959	35647.8
708.154	35201.34
708.349	35066.17
708.544	35260.73
708.739	35387.71
708.934	34943.3
709.129	34896.19
709.324	35418.42
709.519	35094.85
709.714	34816.32
709.909	35666.23
710.104	35289.4
710.299	34392.39
710.494	35041.6
710.689	35541.3
710.884	35037.5
711.079	35100.99
711.274	34881.86
711.469	35430.71
711.664	35299.64
711.859	34861.38
712.054	35035.45
712.249	34939.2
712.443	35234.11
712.638	34431.3
712.833	34732.36
713.028	35115.33
713.223	34328.91
713.417	34933.06
713.612	34730.31
713.807	35422.52
714.002	35311.93
714.196	35121.47
714.391	34781.51
714.586	35135.81
714.78	34791.75
714.975	34416.97
715.17	34871.62
715.364	34769.22
715.559	35184.96
715.754	34048.33
715.948	34496.84
716.143	35068.22
716.337	34619.72
716.532	34885.95
716.726	34859.33
716.921	34728.26
717.115	35146.05
717.31	34111.82
717.504	34949.44
717.699	34718.02
717.893	34150.73
718.088	33956.18
718.282	34167.12
718.476	34367.82
718.671	34236.75
718.865	33923.41
719.059	34386.25
719.254	34126.16
719.448	34433.35
719.642	33956.18
719.837	33522.01
720.031	34140.49
720.225	34056.53
720.419	33972.56
720.614	33839.44
720.808	34287.95
721.002	33528.15
721.196	33476.95
721.39	33734.99
721.585	34072.91
721.779	33251.67
721.973	32942.43
722.167	33046.88
722.361	33909.07
722.555	34185.55
722.749	33214.81
722.943	33481.05
723.137	33177.95
723.331	33759.57
723.525	33720.66
723.719	33685.84
723.913	33925.46
724.107	33591.64
724.301	33345.88
724.495	33136.99
724.689	33605.97
724.883	33698.13
725.077	33321.3
725.271	33925.46
725.465	34343.24
725.659	33403.22
725.853	33388.89
726.046	33552.73
726.24	33278.3
726.434	33542.49
726.628	33317.21
726.822	33165.66
727.015	33896.78
727.209	33489.24
727.403	33368.41
727.596	33362.26
727.79	34044.24
727.984	33835.35
728.177	33360.22
728.371	33266.01
728.565	33444.18
728.758	33384.79
728.952	33204.57
729.146	33345.88
729.339	33904.98
729.533	33737.04
729.726	33335.64
729.92	33460.57
730.113	34031.95
730.307	33878.35
730.5	33247.58
730.694	33798.48
730.887	33116.51
731.081	34079.05
731.274	33401.18
731.468	33237.34
731.661	33341.78
731.854	33429.85
732.048	33716.56
732.241	32946.53
732.435	33407.32
732.628	33409.37
732.821	33319.26
733.014	33184.09
733.208	33245.53
733.401	33956.18
733.594	33132.89
733.788	33513.81
733.981	33524.05
734.174	33612.12
734.367	33286.49
734.56	33708.37
734.754	33773.91
734.947	33579.35
735.14	33376.6
735.333	33673.56
735.526	33755.47
735.719	33245.53
735.912	33386.84
736.105	33646.93
736.298	33595.73
736.491	33046.88
736.684	32991.58
736.877	32928.09
737.07	33323.35
737.263	33435.99
737.456	33059.16
737.649	32999.77
737.842	33024.35
738.035	33202.52
738.228	32670.05
738.421	33442.14
738.614	33626.45
738.807	33794.39
739	32559.46
739.192	32758.11
739.385	33096.03
739.578	33030.49
739.771	33571.16
739.964	32805.22
740.156	32749.92
740.349	32534.88
740.542	33212.76
740.735	32711.01
740.927	32625
741.12	33067.36
741.313	32844.13
741.505	33489.24
741.698	33067.36
741.891	33116.51
742.083	32668
742.276	33118.56
742.468	33182.04
742.661	33104.22
742.854	32676.19
743.046	32487.78
743.239	33132.89
743.431	32928.09
743.624	32391.53
743.816	32549.22
744.009	33057.12
744.201	32993.63
744.393	32428.39
744.586	32113
744.778	32506.21
744.971	32524.65
745.163	32481.64
745.355	32696.67
745.548	32471.4
745.74	32334.18
745.932	32436.58
746.125	32096.62
746.317	33034.59
746.509	32489.83
746.702	32690.53
746.894	32325.99
747.086	32506.21
747.278	32942.43
747.471	32481.64
747.663	32799.07
747.855	32631.14
748.047	32350.57
748.239	32317.8
748.431	32045.42
748.623	32510.31
748.815	32790.88
749.008	32186.73
749.2	32196.97
749.392	32530.79
749.584	32455.01
749.776	31895.92
749.968	32057.71
750.16	32323.94
750.352	31625.59
750.544	31678.83
750.736	31842.67
750.928	32280.94
751.12	31963.5
751.311	31269.24
751.503	32131.44
751.695	31795.57
751.887	31549.81
752.079	31519.09
752.271	31170.94
752.463	32590.18
752.654	31648.11
752.846	31510.9
753.038	31549.81
753.23	31668.59
753.421	31834.48
753.613	31302.01
753.805	31816.05
753.997	31572.34
754.188	31943.02
754.38	31404.41
754.572	31420.79
754.763	31609.2
754.955	31748.46
755.146	31148.41
755.338	30996.86
755.53	31410.55
755.721	31377.78
755.913	30755.2
756.104	30701.95
756.296	31123.83
756.487	31103.35
756.679	30919.04
756.87	30720.38
757.062	30859.65
757.253	31299.96
757.445	30704
757.636	30886.27
757.827	30624.13
758.019	31359.35
758.21	30443.91
758.401	30816.64
758.593	31269.24
758.784	31197.56
758.975	30105.99
759.167	30153.1
759.358	30400.9
759.549	31025.53
759.74	30224.78
759.932	30525.83
760.123	31046.01
760.314	30454.15
760.505	30333.32
760.696	30495.11
760.888	30507.4
761.079	30069.13
761.27	30243.21
761.461	29880.72
761.652	30597.51
761.843	29940.11
762.034	30044.55
762.225	30454.15
762.416	29917.58
762.607	29942.16
762.798	29860.24
762.989	29735.31
763.18	30912.89
763.371	30050.7
763.562	30007.69
763.753	29856.14
763.944	30196.1
764.135	30235.02
764.326	30030.22
764.517	29485.46
764.708	29786.51
764.899	29909.39
765.089	29548.95
765.28	29286.81
765.471	29796.75
765.662	29606.29
765.853	29622.67
766.043	28950.94
766.234	29692.3
766.425	29421.97
766.615	29591.95
766.806	29137.3
766.997	29618.58
767.187	29190.55
767.378	29325.72
767.569	28907.93
767.759	29493.65
767.95	29905.29
768.141	29391.25
768.331	28840.35
768.522	28889.5
768.712	29204.89
768.903	29051.29
769.093	28852.64
769.284	29403.54
769.474	29221.27
769.665	28502.43
769.855	28977.56
770.046	29643.15
770.236	29047.19
770.426	29016.47
770.617	28617.12
770.807	28993.95
770.998	28799.39
771.188	28389.8
771.378	28455.33
771.569	28774.81
771.759	28547.49
771.949	28281.25
772.139	28336.55
772.33	28260.77
772.52	28686.75
772.71	28238.25
772.9	28064.17
773.09	28539.3
773.281	28322.21
773.471	28055.98
773.661	28141.99
773.851	28262.82
774.041	27847.08
774.231	27742.64
774.421	28072.36
774.611	28107.18
774.802	27859.37
774.992	27756.97
775.182	27527.6
775.372	27599.28
775.562	27638.19
775.752	27468.21
775.942	27177.4
776.131	27929
776.321	27689.39
776.511	27767.21
776.701	27333.04
776.891	27421.11
777.081	27257.27
777.271	27316.66
777.461	27425.2
777.651	27701.68
777.84	27767.21
778.03	27636.14
778.22	27179.45
778.41	27773.36
778.599	27384.24
778.789	27019.71
778.979	27228.6
779.169	27201.97
779.358	27257.27
779.548	27259.32
779.738	26927.55
779.927	27054.52
780.117	26898.87
780.307	26786.24
780.496	26499.52
780.686	26902.97
780.875	27195.83
781.065	26407.36
781.254	26421.7
781.444	26730.94
781.633	26876.35
781.823	26157.51
782.012	26321.35
782.202	26169.8
782.391	25921.99
782.581	25807.31
782.77	26370.5
782.96	26577.34
783.149	25784.78
783.338	26108.36
783.528	25614.8
783.717	26632.64
783.906	26577.34
784.096	25676.24
784.285	25831.88
784.474	25805.26
784.663	25860.55
784.853	25991.62
785.042	25795.02
785.231	25919.95
785.42	26186.18
785.61	25881.03
785.799	25502.16
785.988	26012.1
786.177	25596.37
786.366	25612.75
786.555	26272.2
786.744	26069.45
786.933	25856.46
787.122	25672.14
787.312	25602.51
787.501	25487.82
787.69	25584.08
787.879	25930.19
788.068	25668.05
788.257	25229.78
788.445	25317.84
788.634	25362.9
788.823	25512.4
789.012	26542.53
789.201	26012.1
789.39	25469.39
789.579	25418.19
789.768	25268.69
789.957	25506.26
790.145	25518.54
790.334	25158.1
790.523	25258.45
790.712	25172.44
790.9	25418.19
791.089	25041.37
791.278	25168.34
791.467	24949.21
791.655	24900.06
791.844	25280.98
792.033	24556
792.221	24822.23
792.41	24492.51
792.599	24512.99
792.787	24879.58
792.976	25266.64
793.164	24424.93
793.353	24515.04
793.541	25078.23
793.73	25135.57
793.918	24691.16
794.107	24658.4
794.295	24855
794.484	24527.33
794.672	24500.7
794.861	24637.92
795.049	25125.33
795.238	25401.81
795.426	24730.08
795.614	24486.37
795.803	24596.96
795.991	24855
796.179	24556
796.368	24572.38
796.556	24881.63
796.744	23884.26
796.932	24189.41
797.121	24015.33
797.309	24406.5
797.497	24922.59
797.685	23951.85
797.874	23968.23
798.062	24443.36
798.25	24257
798.438	24414.69
798.626	23871.98
798.814	24386.02
799.002	24773.08
799.19	24539.61
799.378	24058.34
799.566	24293.86
799.755	24482.27
799.943	24492.51
800.131	23902.7
800.318	24082.92
800.506	24101.35
800.694	24148.45
800.882	24054.25
801.07	24211.94
801.258	24226.28
801.446	24156.64
801.634	23945.7
801.822	24424.93
802.01	24201.7
802.197	24541.66
802.385	24422.88
802.573	24392.16
802.761	24201.7
802.949	24599.01
803.136	24132.07
803.324	24699.36
803.512	24347.11
803.699	24093.16
803.887	24091.11
804.075	24754.65
804.262	24347.11
804.45	24263.14
804.638	24525.28
804.825	24621.53
805.013	24367.59
805.201	24523.23
805.388	24340.96
805.576	24326.63
805.763	25117.14
805.951	24580.57
806.138	24461.79
806.326	24984.02
806.513	24576.48
806.701	23937.51
806.888	24099.3
807.075	24388.07
807.263	24789.47
807.45	24103.4
807.638	24359.39
807.825	24838.62
808.012	24613.34
808.2	24631.77
808.387	24934.87
808.574	24953.3
808.761	24834.52
808.949	24246.76
809.136	24439.26
809.323	24502.75
809.51	24177.12
809.698	24373.73
809.885	24343.01
810.072	24881.63
810.259	24758.75
810.446	24482.27
810.633	24771.04
810.82	25010.65
811.008	25385.43
811.195	24990.17
811.382	24875.48
811.569	25014.74
811.756	24416.74
811.943	24572.38
812.13	24467.94
812.317	24855
812.504	25125.33
812.691	24916.44
812.878	24801.75
813.064	25024.98
813.251	24588.77
813.438	24349.15
813.625	24883.67
813.812	24527.33
813.999	24859.1
814.186	24768.99
814.372	24556
814.559	24789.47
814.746	24760.8
814.933	24396.26
815.12	24914.39
815.306	24611.29
815.493	24527.33
815.68	24558.05
815.866	24531.42
816.053	25131.48
816.24	25358.8
816.426	24799.71
816.613	24863.19
816.799	25106.9
816.986	25237.97
817.173	24353.25
817.359	24248.8
817.546	24588.77
817.732	24111.59
817.919	24238.56
818.105	24302.05
818.292	24263.14
818.478	24750.56
818.665	24666.59
818.851	24259.04
819.037	25067.99
819.224	24386.02
819.41	24265.19
819.597	24125.93
819.783	24603.1
819.969	24797.66
820.156	24170.98
820.342	24238.56
820.528	24674.78
820.714	24066.53
820.901	24316.39
821.087	24033.77
821.273	24381.92
821.459	24216.04
821.646	24009.19
821.832	23798.25
822.018	24244.71
822.204	23931.37
822.39	24017.38
822.576	23810.54
822.762	24386.02
822.948	24105.45
823.134	24343.01
823.32	23540.21
823.507	23534.06
823.693	24070.63
823.879	23851.5
824.065	23536.11
824.25	23785.96
824.436	23874.03
824.622	23726.57
824.808	23968.23
824.994	23886.31
825.18	23515.63
825.366	23888.36
825.552	23691.76
825.738	23837.16
825.923	23716.33
826.109	23869.93
826.295	23579.12
826.481	23435.76
826.667	23421.42
826.852	23835.11
827.038	23480.82
827.224	24072.68
827.409	24195.56
827.595	23286.26
827.781	23468.53
827.966	23734.76
828.152	23683.56
828.338	23331.31
828.523	22776.31
828.709	23339.51
828.894	23708.14
829.08	23648.75
829.266	23020.02
829.451	23493.1
829.637	23241.2
829.822	23048.69
830.008	22643.2
830.193	23044.6
830.378	23204.34
830.564	22944.25
830.749	22491.65
830.935	22882.81
831.12	22917.62
831.305	22348.29
831.491	22692.35
831.676	22592
831.861	22680.06
832.047	22657.53
832.232	22469.12
832.417	22942.2
832.602	22847.99
832.788	22682.11
832.973	22661.63
833.158	22751.74
833.343	22804.99
833.528	22374.91
833.714	22542.85
833.899	22714.87
834.084	22886.9
834.269	22604.28
834.454	22178.31
834.639	22424.06
834.824	22288.9
835.009	22499.84
835.194	22620.67
835.379	22804.99
835.564	22657.53
835.749	22366.72
835.934	22235.65
836.119	22159.88
836.304	22131.2
836.489	22143.49
836.674	22118.92
836.859	21615.12
837.044	22180.35
837.228	21924.36
837.413	21918.21
837.598	22424.06
837.783	22356.48
837.968	22237.7
838.152	21813.77
838.337	21758.47
838.522	22276.61
838.707	22229.51
838.891	22358.53
839.076	22073.86
839.261	22065.67
839.445	21525
839.63	21721.61
839.815	22362.62
839.999	21627.4
840.184	21815.82
840.368	22006.28
840.553	22256.13
840.737	21840.39
840.922	21428.75
841.106	21662.22
841.291	21748.23
841.475	21864.97
841.66	21758.47
841.844	21283.34
842.029	22342.14
842.213	21422.61
842.397	21371.41
842.582	21305.87
842.766	21805.58
842.951	21551.63
843.135	21223.95
843.319	21146.13
843.504	21471.76
843.688	21821.96
843.872	21178.9
844.056	21498.38
844.241	21627.4
844.425	21561.87
844.609	21488.14
844.793	20986.39
844.977	21279.25
845.161	21387.79
845.346	20900.37
845.53	20963.86
845.714	21213.71
845.898	21228.05
846.082	20572.7
846.266	20963.86
846.45	21021.2
846.634	20853.27
846.818	20701.72
847.002	20861.46
847.186	21326.35
847.37	20720.15
847.554	20386.33
847.738	20681.24
847.922	20785.69
848.106	20951.57
848.29	20365.85
848.473	20847.13
848.657	20947.48
848.841	20662.81
849.025	20718.11
849.209	20400.67
849.392	20806.17
849.576	20883.99
849.76	20232.74
849.944	20636.19
850.127	20970.01
850.311	20443.68
850.495	20331.04
850.678	20427.29
850.862	20877.85
851.046	20961.81
851.229	20425.25
851.413	20386.33
851.596	20701.72
851.78	20699.67
851.964	20345.37
852.147	19962.4
852.331	20763.16
852.514	20363.81
852.698	19702.31
852.881	19456.56
853.065	20062.76
853.248	19810.86
853.431	19726.89
853.615	19968.55
853.798	20353.57
853.982	20021.8
854.165	19866.15
854.348	19905.06
854.532	19364.4
854.715	19647.02
854.898	19655.21
855.081	19186.22
855.265	19954.21
855.448	19874.34
855.631	19485.23
855.814	19546.67
855.997	20228.64
856.181	19817
856.364	19882.53
856.547	19483.18
856.73	19804.71
856.913	19749.42
857.096	19415.6
857.279	19743.27
857.462	19638.83
857.645	19792.42
857.828	19231.28
858.011	19552.81
858.194	19548.72
858.377	19724.84
858.56	19094.07
858.743	19474.99
858.926	19272.24
859.109	19460.65
859.292	18870.84
859.475	18809.4
859.658	19352.11
859.841	19153.46
860.023	18463.29
860.206	18510.39
860.389	18776.63
860.572	19044.91
860.755	18743.86
860.937	18813.49
861.12	18885.17
861.303	18960.95
861.486	18696.76
861.668	18625.08
861.851	18631.23
862.034	18770.49
862.216	18623.03
862.399	18469.44
862.581	18643.51
862.764	18682.42
862.947	18432.57
863.129	18252.35
863.312	18330.17
863.494	18829.88
863.677	18303.55
863.859	18111.04
864.042	18594.36
864.224	18852.41
864.406	18094.66
864.589	17818.18
864.771	18217.54
864.954	17840.71
865.136	17850.95
865.318	17771.08
865.501	18043.46
865.683	17719.88
865.865	17828.42
866.048	17685.06
866.23	17902.15
866.412	18055.75
866.594	17615.43
866.777	17965.64
866.959	18051.65
867.141	17865.28
867.323	17824.33
867.505	17947.2
867.687	17816.13
867.869	17746.5
868.052	17826.37
868.234	17412.68
868.416	17672.78
868.598	17738.31
868.78	17531.47
868.962	17396.3
869.144	17891.91
869.326	17601.1
869.508	17750.6
869.69	17482.31
869.872	17453.64
870.054	17926.72
870.236	17318.48
870.417	17449.55
870.599	17384.01
870.781	17920.58
870.963	17371.72
871.145	17121.87
871.327	17025.62
871.508	17515.08
871.69	17064.53
871.872	17566.28
872.054	17465.93
872.235	17422.92
872.417	17470.03
872.599	17166.93
872.78	17699.4
872.962	17447.5
873.144	17160.78
873.325	17285.71
873.507	17934.92
873.689	17705.54
873.87	17195.6
874.052	17461.83
874.233	17332.81
874.415	17719.88
874.596	17398.35
874.778	17328.72
874.959	17814.09
875.141	17930.82
875.322	17113.68
875.503	16912.98
875.685	17867.33
875.866	16904.79
876.048	17480.27
876.229	17074.77
876.41	17312.33
876.592	17541.71
876.773	17238.61
876.954	16968.27
877.136	17783.37
877.317	17336.91
877.498	17218.13
877.679	17433.16
877.86	17568.33
878.042	17629.77
878.223	17345.1
878.404	17535.56
878.585	17429.07
878.766	17801.8
878.947	17517.13
879.128	17472.07
879.309	17551.95
879.49	17971.78
879.672	17529.42
879.853	17463.88
880.034	17605.19
880.215	17726.02
880.396	17887.81
880.576	17771.08
880.757	17594.95
880.938	18029.12
881.119	17848.9
881.3	17633.86
881.481	17846.85
881.662	18676.28
881.843	17570.38
882.023	17562.19
882.204	18059.84
882.385	17881.67
882.566	17818.18
882.747	17787.46
882.927	18147.9
883.108	18139.71
883.289	18246.21
883.469	18254.4
883.65	18408
883.831	18268.73
884.011	18229.82
884.192	18141.76
884.373	18158.14
884.553	18580.03
884.734	18291.26
884.914	18559.55
885.095	18948.66
885.275	18797.11
885.456	18731.58
885.636	18311.74
885.817	18494.01
885.997	18438.72
886.178	18035.27
886.358	18301.5
886.538	18270.78
886.719	19454.51
886.899	18479.68
887.08	18754.1
887.26	19229.23
887.44	18643.51
887.621	18506.3
887.801	18477.63
887.981	18954.8
888.161	19061.3
888.342	18606.65
888.522	18577.98
888.702	18836.02
888.882	18762.3
889.062	18682.42
889.242	18547.26
889.423	19196.46
889.603	19051.06
889.783	18958.9
889.963	18747.96
890.143	19077.68
890.323	19040.82
890.503	18760.25
890.683	18868.79
890.863	19114.55
891.043	19198.51
891.223	18666.04
891.403	19210.8
891.583	19008.05
891.763	19063.35
891.943	18934.32
892.122	18692.66
892.302	19231.28
892.482	18913.84
892.662	18950.71
892.842	19208.75
893.022	19450.41
893.201	19104.31
893.381	19180.08
893.561	18698.81
893.741	19094.07
893.92	19321.39
894.1	18797.11
894.28	19284.53
894.459	19302.96
894.639	19135.03
894.819	18948.66
894.998	19143.22
895.178	19397.17
895.357	19282.48
895.537	18590.27
895.716	18487.87
895.896	19126.83
896.075	19233.33
896.255	18831.93
896.434	18547.26
896.614	19108.4
896.793	19323.44
896.973	18975.28
897.152	18756.15
897.331	19366.45
897.511	19536.43
897.69	18610.75
897.87	18930.23
898.049	18913.84
898.228	18989.62
898.407	19106.35
898.587	19147.31
898.766	18756.15
898.945	19149.36
899.124	19094.07
899.304	18870.84
899.483	19233.33
899.662	19542.57
899.841	18977.33
900.02	18893.37
900.199	19253.81
900.378	18657.85
900.557	18895.41
900.737	18600.51
900.916	19167.79
901.095	18682.42
901.274	18682.42
901.453	18248.25
901.632	18090.56
901.811	18338.37
901.989	18582.07
902.168	18321.98
902.347	18721.34
902.526	18170.43
902.705	18364.99
902.884	18352.7
903.063	18762.3
903.242	18680.38
903.42	18168.38
903.599	18508.35
903.778	18504.25
903.957	18659.9
904.135	18473.53
904.314	18125.38
904.493	18604.6
904.672	18485.82
904.85	18223.68
905.029	18299.45
905.207	18588.22
905.386	19010.1
905.565	17781.32
905.743	17842.76
905.922	17732.17
906.1	18364.99
906.279	17830.47
906.457	17574.47
906.636	17691.21
906.814	17861.19
906.993	17658.44
907.171	17539.66
907.35	17965.64
907.528	18004.55
907.707	17979.97
907.885	17341
908.063	18090.56
908.242	17721.93
908.42	17369.68
908.598	17015.38
908.777	17793.61
908.955	17424.97
909.133	17398.35
909.311	17257.04
909.49	17359.44
909.668	17394.25
909.846	17449.55
910.024	17144.4
910.202	17605.19
910.38	17879.62
910.559	16835.16
910.737	16884.31
910.915	17336.91
911.093	17209.93
911.271	17152.59
911.449	17347.15
911.627	17177.17
911.805	17347.15
911.983	16577.11
912.161	16523.87
912.339	16880.21
912.517	16886.36
912.695	16423.51
912.872	16411.23
913.05	16274.01
913.228	16634.46
913.406	16022.11
913.584	16282.2
913.762	16495.19
913.939	16456.28
914.117	16214.62
914.295	16097.89
914.473	16536.15
914.65	16495.19
914.828	16165.47
915.006	16075.36
915.184	16093.79
915.361	16437.85
915.539	16390.75
915.716	16269.92
915.894	16251.49
916.072	16716.37
916.249	16484.95
916.427	16439.9
916.604	16173.66
916.782	16308.83
916.959	16122.46
917.137	16122.46
917.314	16253.53
917.492	16134.75
917.669	16050.78
917.847	15772.26
918.024	16063.07
918.201	15477.35
918.379	15565.42
918.556	15788.64
918.733	15827.56
918.911	15149.68
919.088	15200.88
919.265	14951.03
919.442	15207.02
919.62	14930.55
919.797	14985.84
919.974	14932.59
920.151	15428.2
920.328	15186.54
920.506	15370.86
920.683	15149.68
920.86	14733.94
921.037	14838.39
921.214	15026.8
921.391	14901.87
921.568	15192.69
921.745	14619.25
921.922	14713.46
922.099	14635.64
922.276	14994.03
922.453	14830.2
922.63	14557.82
922.807	14934.64
922.984	14740.08
923.161	14215.8
923.338	14824.05
923.514	14731.89
923.691	14613.11
923.868	14758.52
924.045	14439.03
924.222	14254.72
924.399	14762.61
924.575	14783.09
924.752	14348.92
924.929	14328.44
925.105	14635.64
925.282	14246.52
925.459	14318.2
925.635	14310.01
925.812	14398.07
925.989	14033.54
926.165	14357.11
926.342	14072.45
926.518	13908.61
926.695	14209.66
926.871	14008.96
927.048	13646.47
927.224	14125.69
927.401	13726.34
927.577	13746.82
927.754	13466.25
927.93	13761.16
928.107	13679.24
928.283	13388.43
928.459	13513.35
928.636	13570.69
928.812	13300.36
928.988	12997.26
929.165	13273.74
929.341	13304.46
929.517	13550.21
929.693	13492.87
929.87	12886.67
930.046	13236.88
930.222	12849.81
930.398	12874.38
930.574	12917.39
930.751	12948.11
930.927	12497.56
931.103	12728.98
931.279	12544.66
931.455	12376.73
931.631	12429.98
931.807	12229.27
931.983	12153.5
932.159	12094.11
932.335	12182.17
932.511	12073.63
932.687	11979.42
932.863	12108.44
933.039	11934.37
933.215	11563.68
933.391	11725.47
933.566	11766.43
933.742	11864.74
933.918	11727.52
934.094	11385.51
934.27	11696.8
934.445	11774.63
934.621	11424.42
934.797	11174.57
934.973	11776.67
935.148	11418.28
935.324	10850.99
935.5	10580.66
935.675	11125.42
935.851	10887.86
936.027	10328.76
936.202	10330.81
936.378	10625.72
936.553	10347.19
936.729	10396.34
936.904	9851.58
937.08	9720.51
937.255	9620.16
937.431	9458.37
937.606	9226.95
937.782	9272.01
937.957	9321.16
938.133	8860.37
938.308	8786.64
938.483	8889.04
938.659	8471.25
938.834	8295.13
939.009	8112.86
939.185	8196.82
939.36	7959.26
939.535	7631.58
939.71	8096.47
939.886	8274.65
940.061	8202.97
940.236	7672.54
940.411	7688.93
940.586	7879.39
940.761	7799.52
940.937	7379.68
941.112	7213.8
941.287	7394.02
941.462	7324.39
941.637	7017.19
941.812	7060.2
941.987	7348.97
942.162	7238.37
942.337	7011.05
942.512	6925.04
942.687	7379.68
942.862	7285.48
943.037	6777.58
943.212	6314.74
943.386	6992.62
943.561	7068.39
943.736	7088.87
943.911	7002.86
944.086	7080.68
944.26	6988.52
944.435	6642.42
944.61	6847.21
944.785	7230.18
944.959	7002.86
945.134	6669.04
945.309	6658.8
945.483	6785.77
945.658	6978.28
945.833	6140.66
946.007	6591.22
946.182	7172.84
946.357	6525.68
946.531	6718.19
946.706	6679.28
946.88	6515.44
947.055	7039.72
947.229	6501.11
947.404	6673.14
947.578	7099.11
947.752	6804.21
947.927	6603.5
948.101	6830.83
948.276	6968.04
948.45	7023.34
948.624	6941.42
948.799	6738.67
948.973	7160.55
949.147	6687.47
949.321	6847.21
949.496	6830.83
949.67	7297.77
949.844	6933.23
950.018	6769.39
950.193	6949.61
950.367	7461.6
950.541	7181.03
950.715	7443.17
950.889	7514.85
951.063	7367.4
951.237	7475.94
951.411	6972.14
951.585	7221.99
951.759	7514.85
951.933	7334.63
952.107	7246.57
952.281	7453.41
952.455	7549.67
952.629	7518.95
952.803	7406.31
952.977	7283.43
953.151	7895.77
953.325	7531.23
953.499	7586.53
953.672	7174.89
953.846	7502.56
954.02	7365.35
954.194	7320.29
954.368	7299.81
954.541	7674.59
954.715	7385.83
954.889	7449.32
955.062	7375.59
955.236	7817.95
955.41	7527.14
955.583	7707.36
955.757	7361.25
955.93	7443.17
956.104	7453.41
956.278	7578.34
956.451	7539.43
956.625	7901.92
956.798	8377.05
956.972	7854.81
957.145	7482.08
957.319	7858.91
957.492	7695.07
957.665	7723.74
957.839	7625.44
958.012	7801.57
958.185	7635.68
958.359	7510.75
958.532	7600.87
958.705	8018.65
958.879	7957.21
959.052	7650.02
959.225	7361.25
959.398	7705.31
959.572	7879.39
959.745	7822.05
959.918	7953.12
960.091	7914.2
960.264	7858.91
960.438	7584.48
960.611	7342.82
960.784	7936.73
960.957	7592.67
961.13	7967.45
961.303	7690.98
961.476	7946.97
961.649	7860.96
961.822	7539.43
961.995	7713.5
962.168	8047.32
962.341	7805.66
962.514	7580.39
962.686	7441.12
962.859	7908.06
963.032	7965.4
963.205	7566.05
963.378	7592.67
963.551	7619.3
963.723	7672.54
963.896	7625.44
964.069	7742.18
964.242	7617.25
964.414	7805.66
964.587	7469.8
964.76	7586.53
964.932	7973.6
965.105	7635.68
965.278	7482.08
965.45	7547.62
965.623	7797.47
965.795	7764.7
965.968	7545.57
966.14	7570.15
966.313	7484.13
966.485	7621.35
966.658	7453.41
966.83	7369.44
967.003	7926.49
967.175	7445.22
967.348	7428.84
967.52	7400.16
967.692	7828.19
967.865	7355.11
968.037	7279.33
968.209	7453.41
968.382	7443.17
968.554	7424.74
968.726	7369.44
968.898	7254.76
969.071	7488.23
969.243	7566.05
969.415	7475.94
969.587	7344.87
969.759	8030.94
969.932	7672.54
970.104	7144.17
970.276	6990.57
970.448	7326.44
970.62	7207.66
970.792	7459.56
970.964	7267.05
971.136	7805.66
971.308	7650.02
971.48	7142.12
971.652	7035.63
971.824	7426.79
971.996	7011.05
972.168	7195.37
972.339	7127.78
972.511	7516.9
972.683	7234.28
972.855	7330.53
973.027	7201.51
973.199	7246.57
973.37	7502.56
973.542	7221.99
973.714	7303.91
973.886	7174.89
974.057	7310.05
974.229	6900.46
974.401	7117.54
974.572	6994.67
974.744	6683.38
974.915	6992.62
975.087	6736.62
975.259	7508.71
975.43	6986.47
975.602	6845.16
975.773	6646.51
975.945	6673.14
976.116	7148.26
976.288	6671.09
976.459	6736.62
976.63	6757.1
976.802	7025.39
976.973	6748.91
977.145	6828.78
977.316	7023.34
977.487	6953.71
977.659	6580.98
977.83	6716.14
978.001	7123.69
978.172	6767.34
978.344	6695.66
978.515	6748.91
978.686	6515.44
978.857	6910.7
979.028	6585.07
979.2	6476.53
979.371	6994.67
979.542	6693.62
979.713	6648.56
979.884	6185.72
980.055	6298.36
980.226	6533.87
980.397	6427.38
980.568	6441.72
980.739	6718.19
980.91	6445.81
981.081	6501.11
981.252	6101.75
981.423	6726.38
981.594	6791.92
981.765	6140.66
981.936	6574.83
982.106	6472.43
982.277	6736.62
982.448	6097.66
982.619	6492.91
982.79	6077.18
982.96	6648.56
983.131	6306.55
983.302	6142.71
983.472	6259.45
983.643	6312.69
983.814	6454
983.984	5968.63
984.155	6198.01
984.326	6478.58
984.496	6210.29
984.667	6150.9
984.837	6116.09
985.008	6411
985.178	6181.62
985.349	5929.72
985.519	6099.7
985.69	6036.22
985.86	6005.5
986.031	5776.13
986.201	5870.33
986.371	6177.53
986.542	5634.82
986.712	5630.72
986.882	6173.43
987.053	5835.52
987.223	5761.79
987.393	5980.92
987.563	5556.99
987.734	5841.66
987.904	6005.5
988.074	5665.53
988.244	5776.13
988.414	5493.51
988.585	5556.99
988.755	5800.7
988.925	5722.88
989.095	5978.87
989.265	5530.37
989.435	5501.7
989.605	5837.56
989.775	5704.45
989.945	5812.99
990.115	5634.82
990.285	5663.49
990.455	5718.78
990.625	5446.4
990.795	5380.87
990.965	5714.69
991.134	5319.43
991.304	5178.12
991.474	5184.26
991.644	5440.26
991.814	5610.24
991.984	5128.97
992.153	5098.25
992.323	5303.04
992.493	5319.43
992.662	5006.09
992.832	5245.7
993.002	5487.36
993.171	5249.8
993.341	5038.86
993.511	5309.19
993.68	5188.36
993.85	5296.9
994.019	4815.63
994.189	4875.02
994.358	5237.51
994.528	5116.68
994.697	4635.41
994.867	4985.61
995.036	5114.63
995.206	5045
995.375	4795.15
995.544	4862.73
995.714	5077.77
995.883	4850.44
996.052	4840.2
996.222	4516.62
996.391	5526.27
996.56	4999.95
996.73	4533.01
996.899	4561.68
997.068	5225.22
997.237	4913.93
997.406	4586.26
997.576	4557.58
997.745	4915.98
997.914	4889.35
998.083	4229.91
998.252	4414.23
998.421	4594.45
998.59	4324.12
998.759	4406.03
998.928	4344.6
999.097	4879.11
999.266	4621.07
999.435	4643.6
999.604	4365.07
999.773	5282.56
999.942	4578.06
1000.111	4297.49
1000.28	4274.96
1000.448	4401.94
1000.617	4250.39
1000.786	4387.6
1000.955	4221.72
1001.124	4533.01
1001.292	4940.55
1001.461	4096.79
1001.63	4131.61
1001.798	4621.07
1001.967	4553.49
1002.136	4018.97
1002.304	4051.74
1002.473	4297.49
1002.642	4279.06
1002.81	4021.02
1002.979	3955.48
1003.147	4299.54
1003.316	4727.57
1003.484	3914.52
1003.653	3801.88
1003.821	4420.37
1003.99	4057.88
1004.158	3947.29
1004.327	4045.59
1004.495	4246.29
1004.663	3953.43
1004.832	3912.47
1005	3648.29
1005.168	4164.37
1005.337	3982.1
1005.505	3586.85
1005.673	3795.74
1005.842	3945.24
1006.01	4039.45
1006.178	3662.62
1006.346	3676.96
1006.514	4014.87
1006.683	4164.37
1006.851	3679.01
1007.019	3453.73
1007.187	3552.03
1007.355	3384.1
1007.523	3468.06
1007.691	3359.52
1007.859	3353.38
1008.027	3994.39
1008.195	3547.94
1008.363	3349.28
1008.531	3906.33
1008.699	3697.44
1008.867	3152.68
1009.035	3373.86
1009.203	3941.15
1009.37	3511.07
1009.538	3367.71
1009.706	3574.56
1009.874	3588.89
1010.042	3406.63
1010.209	3185.44
1010.377	3199.78
1010.545	3586.85
1010.713	3582.75
1010.88	3183.4
1011.048	3459.87
1011.216	3388.19
1011.383	3793.69
1011.551	3109.67
1011.718	3167.01
1011.886	3648.29
1012.054	3291.94
1012.221	3056.42
1012.389	3078.95
1012.556	3175.2
1012.724	3652.38
1012.891	3054.37
1013.058	2863.91
1013.226	3425.06
1013.393	3265.32
1013.561	2888.49
1013.728	2816.81
1013.895	3367.71
1014.063	3468.06
1014.23	2868.01
1014.397	2816.81
1014.565	3371.81
1014.732	3001.13
1014.899	2814.76
1015.066	2870.06
1015.233	3257.12
1015.401	3087.14
1015.568	2904.87
1015.735	2792.23
1015.902	3119.91
1016.069	3109.67
1016.236	2702.12
1016.403	2751.28
1016.57	2724.65
1016.737	3199.78
1016.904	2743.08
1017.071	2519.85
1017.238	2833.19
1017.405	3009.32
1017.572	2648.88
1017.739	2763.56
1017.906	2687.79
1018.073	2982.7
1018.24	2575.15
1018.407	2652.97
1018.573	3019.56
1018.74	2700.08
1018.907	2530.09
1019.074	2413.36
1019.241	2931.5
1019.407	2702.12
1019.574	2620.21
1019.741	2319.15
1019.907	2734.89
1020.074	2802.47
1020.241	2235.19
1020.407	2315.06
1020.574	2700.08
1020.74	2847.53
1020.907	2419.5
1021.073	2190.13
1021.24	2908.97
1021.406	2978.6
1021.573	2253.62
1021.739	2343.73
1021.906	2747.18
1022.072	2526
1022.239	2325.3
1022.405	2179.89
1022.571	2482.99
1022.738	2331.44
1022.904	2173.75
1023.07	2206.52
1023.237	2399.02
1023.403	2562.86
1023.569	2153.27
1023.735	2265.91
1023.902	2372.4
1024.068	2474.8
1024.234	2095.93
1024.4	2057.01
1024.566	2450.22
1024.732	2485.04
1024.898	2102.07
1025.065	1921.85
1025.231	2491.18
1025.397	2292.53
1025.563	2069.3
1025.729	1942.33
1025.895	2001.72
1026.061	2120.5
1026.227	1866.55
1026.392	1987.38
1026.558	2415.41
1026.724	2282.29
1026.89	1839.93
1027.056	1776.44
1027.222	2247.48
1027.388	2071.35
1027.553	1874.74
1027.719	1710.91
1027.885	2368.31
1028.051	2272.05
1028.216	1571.65
1028.382	1764.15
1028.548	2382.64
1028.713	1966.9
1028.879	1790.78
1029.045	1884.98
1029.21	2382.64
1029.376	2210.61
1029.541	1694.52
1029.707	1694.52
1029.873	2159.41
1030.038	2159.41
1030.204	1583.93
1030.369	1780.54
1030.534	2151.22
1030.7	1831.74
1030.865	1592.13
1031.031	1592.13
1031.196	1987.38
1031.361	2007.86
1031.527	1536.83
1031.692	1653.56
1031.857	1493.82
1032.023	1934.14
1032.188	1495.87
1032.353	1688.38
1032.518	2257.71
1032.684	1782.59
1032.849	1350.46
1033.014	1618.75
1033.179	1946.42
1033.344	1866.55
1033.509	1624.89
1033.674	1538.88
1033.839	1979.19
1034.004	1841.98
1034.17	1538.88
1034.335	1356.61
1034.5	1637.18
1034.664	1598.27
1034.829	1440.58
1034.994	1487.68
1035.159	1870.65
1035.324	1692.48
1035.489	1456.96
1035.654	1440.58
1035.819	1938.23
1035.984	1741.63
1036.148	1434.43
1036.313	1424.19
1036.478	1848.12
1036.643	1506.11
1036.807	1317.7
1036.972	1209.15
1037.137	1880.89
1037.301	1563.45
1037.466	1174.34
1037.631	1295.17
1037.795	1893.18
1037.96	1633.08
1038.124	1299.27
1038.289	1282.88
1038.454	1696.57
1038.618	1672
1038.783	1282.88
1038.947	1262.4
1039.111	1534.78
1039.276	1411.9
1039.44	1252.16
1039.605	1647.42
1039.769	1381.18
1039.933	1469.25
1040.098	1178.44
1040.262	1409.86
1040.426	1678.14
1040.591	1610.56
1040.755	1168.2
1040.919	1186.63
1041.083	1403.71
1041.248	1459.01
1041.412	965.45
1041.576	1078.08
1041.74	1340.22
1041.904	1645.37
1042.068	1004.36
1042.232	1143.62
1042.397	1553.21
1042.561	1409.86
1042.725	906.06
1042.889	1243.97
1043.053	1547.07
1043.217	1424.19
1043.381	1174.34
1043.544	977.73
1043.708	1626.94
1043.872	1071.94
1044.036	824.14
1044.2	877.38
1044.364	1553.21
1044.528	1598.27
1044.691	3461.92
1044.855	996.17
1045.019	1583.93
1045.183	1444.67
1045.346	1061.7
1045.51	996.17
1045.674	1444.67
1045.837	1444.67
1046.001	1039.17
1046.165	973.64
1046.328	1723.2
1046.492	1334.08
1046.655	1057.61
1046.819	885.58
1046.983	1080.13
1047.146	1407.81
1047.31	1037.13
1047.473	672.59
1047.636	1248.07
1047.8	971.59
1047.963	893.77
1048.127	887.62
1048.29	965.45
