Data from Ink_Intensity_USB4F045381__31__00031.txt Node

Date: Mon Jul 17 09:47:53 EDT 2023
User: mmckonesweet
Spectrometer: USB4F04538
Trigger mode: 4
Integration Time (sec): 9.000000E-1
Scans to average: 1
Electric dark correction enabled: true
Nonlinearity correction enabled: false
Boxcar width: 0
XAxis mode: Wavelengths
Number of Pixels in Spectrum: 3648
>>>>>Begin Spectral Data<<<<<
345.52	-1016.3
345.736	-1016.3
345.952	-1016.3
346.168	-1008.11
346.384	-885.23
346.6	-135.68
346.816	-201.21
347.032	-233.98
347.248	239.1
347.464	-152.06
347.68	-88.57
347.896	30.21
348.112	402.94
348.328	-53.76
348.544	-102.91
348.76	71.17
348.975	224.76
349.191	-109.05
349.407	-156.16
349.623	-4.61
349.839	-70.14
350.055	-92.67
350.27	32.26
350.486	173.57
350.702	331.26
350.918	247.29
351.133	-223.74
351.349	71.17
351.565	361.98
351.781	-109.05
351.996	-80.38
352.212	431.61
352.428	-197.12
352.644	-201.21
352.859	-176.64
353.075	269.82
353.291	-6.66
353.506	-98.81
353.722	-223.74
353.938	-53.76
354.153	466.42
354.369	15.87
354.584	-197.12
354.8	200.19
355.016	-338.43
355.231	-195.07
355.447	-125.44
355.662	-18.94
355.878	896.5
356.093	-330.23
356.309	-23.04
356.524	-203.26
356.74	224.76
356.955	-143.87
357.171	-39.42
357.386	138.75
357.602	-227.84
357.817	-117.25
358.033	-139.77
358.248	366.07
358.464	110.08
358.679	-127.49
358.895	-233.98
359.11	-55.81
359.325	345.59
359.541	294.4
359.756	-35.33
359.972	-305.66
360.187	153.09
360.402	-160.25
360.618	-131.58
360.833	914.93
361.048	124.41
361.264	-170.49
361.479	-74.24
361.694	75.26
361.909	118.27
362.125	-231.93
362.34	-88.57
362.555	257.53
362.77	101.89
362.986	-283.13
363.201	-168.45
363.416	75.26
363.631	-47.62
363.847	-123.39
364.062	-135.68
364.277	179.71
364.492	85.5
364.707	-188.93
364.922	-381.43
365.138	187.9
365.353	417.27
365.568	-219.64
365.783	-80.38
365.998	-41.47
366.213	550.39
366.428	-207.36
366.643	19.97
366.858	245.24
367.073	163.33
367.288	-172.54
367.503	-242.17
367.718	44.54
367.933	235
368.148	-254.46
368.363	-53.76
368.578	-41.47
368.793	409.08
369.008	-152.06
369.223	-217.6
369.438	146.94
369.653	396.79
369.868	-250.36
370.083	-152.06
370.298	69.12
370.513	312.83
370.728	58.88
370.943	-131.58
371.157	-135.68
371.372	503.29
371.587	-295.42
371.802	-250.36
372.017	54.78
372.232	351.74
372.446	-31.23
372.661	-274.94
372.876	226.81
373.091	73.21
373.306	-125.44
373.52	-299.52
373.735	-203.26
373.95	413.18
374.165	-166.4
374.379	-180.73
374.594	-154.11
374.809	60.93
375.023	60.93
375.238	-254.46
375.453	204.28
375.667	-248.32
375.882	-211.45
376.097	-172.54
376.311	-37.38
376.526	-25.09
376.741	-166.4
376.955	192
377.17	587.26
377.384	577.02
377.599	-133.63
377.813	-283.13
378.028	499.19
378.242	83.45
378.457	-170.49
378.672	-459.26
378.886	79.36
379.101	-51.71
379.315	-320
379.53	-162.3
379.744	105.98
379.958	120.32
380.173	-176.64
380.387	-174.59
380.602	151.04
380.816	-176.64
381.031	-160.25
381.245	-123.39
381.459	89.6
381.674	2502.11
381.888	-262.65
382.103	110.08
382.317	-156.16
382.531	501.24
382.746	-31.23
382.96	-164.35
383.174	-119.29
383.388	421.37
383.603	62.98
383.817	-272.89
384.031	134.65
384.246	429.56
384.46	-23.04
384.674	329.21
384.888	-14.85
385.103	58.88
385.317	-256.51
385.531	-82.43
385.745	271.87
385.959	226.81
386.174	-260.6
386.388	-225.79
386.602	-2.56
386.816	-147.97
387.03	-131.58
387.244	-113.15
387.458	28.16
387.672	321.02
387.887	-233.98
388.101	-346.62
388.315	296.44
388.529	144.89
388.743	-152.06
388.957	-274.94
389.171	312.83
389.385	-242.17
389.599	-135.68
389.813	112.13
390.027	175.61
390.241	636.41
390.455	-123.39
390.669	-174.59
390.883	-92.67
391.097	271.87
391.311	-41.47
391.525	-182.78
391.738	183.81
391.952	144.89
392.166	-0.51
392.38	-227.84
392.594	280.06
392.808	286.2
393.022	-59.9
393.236	-92.67
393.449	169.47
393.663	171.52
393.877	-254.46
394.091	1.54
394.305	-31.23
394.518	-164.35
394.732	-291.32
394.946	-115.2
395.16	370.17
395.373	15.87
395.587	-248.32
395.801	-225.79
396.015	204.28
396.228	173.57
396.442	-287.23
396.656	-367.1
396.869	294.4
397.083	441.85
397.297	-2.56
397.51	-180.73
397.724	370.17
397.938	60.93
398.151	-324.09
398.365	-227.84
398.578	153.09
398.792	364.03
399.005	-2.56
399.219	-213.5
399.433	71.17
399.646	122.37
399.86	13.82
400.073	-10.75
400.287	179.71
400.5	-20.99
400.714	-31.23
400.927	-82.43
401.141	159.23
401.354	994.8
401.567	222.72
401.781	-287.23
401.994	292.35
402.208	564.73
402.421	-152.06
402.635	-152.06
402.848	-41.47
403.061	247.29
403.275	-35.33
403.488	-213.5
403.701	427.51
403.915	138.75
404.128	120.32
404.341	-121.34
404.555	220.67
404.768	-41.47
404.981	-16.9
405.195	-168.45
405.408	419.32
405.621	212.48
405.834	3.58
406.048	-248.32
406.261	347.64
406.474	435.71
406.687	-215.55
406.9	-74.24
407.114	-25.09
407.327	11.78
407.54	-360.95
407.753	-276.99
407.966	-242.17
408.179	216.57
408.392	-211.45
408.605	-346.62
408.819	114.17
409.032	173.57
409.245	-236.03
409.458	19.97
409.671	157.18
409.884	198.14
410.097	-258.56
410.31	-41.47
410.523	169.47
410.736	-25.09
410.949	-129.53
411.162	-166.4
411.375	433.66
411.588	237.05
411.801	-6.66
412.014	-156.16
412.227	-41.47
412.44	-92.67
412.653	-193.02
412.865	34.3
413.078	216.57
413.291	146.94
413.504	-84.48
413.717	-178.69
413.93	163.33
414.143	-162.3
414.356	-96.77
414.568	-332.28
414.781	269.82
414.994	105.98
415.207	-152.06
415.42	-96.77
415.632	222.72
415.845	527.86
416.058	-238.08
416.271	-281.08
416.483	144.89
416.696	468.47
416.909	-145.92
417.121	-213.5
417.334	196.09
417.547	552.44
417.759	-186.88
417.972	-174.59
418.185	-174.59
418.397	220.67
418.61	-143.87
418.823	-178.69
419.035	298.49
419.248	19.97
419.46	-150.01
419.673	-25.09
419.885	157.18
420.098	-41.47
420.311	-127.49
420.523	-442.87
420.736	241.15
420.948	19.97
421.161	-201.21
421.373	-406.01
421.586	73.21
421.798	-121.34
422.01	-276.99
422.223	-23.04
422.435	-178.69
422.648	255.48
422.86	-162.3
423.073	-174.59
423.285	349.69
423.497	-252.41
423.71	-252.41
423.922	-303.61
424.134	89.6
424.347	304.64
424.559	-25.09
424.771	136.7
424.984	-68.09
425.196	130.56
425.408	-383.48
425.621	-307.71
425.833	261.63
426.045	333.31
426.257	-225.79
426.47	-217.6
426.682	132.61
426.894	151.04
427.106	-137.73
427.318	-131.58
427.531	-61.95
427.743	183.81
427.955	-211.45
428.167	333.31
428.379	171.52
428.591	-43.52
428.804	-86.53
429.016	-213.5
429.228	-80.38
429.44	99.84
429.652	-47.62
429.864	-338.43
430.076	-80.38
430.288	-35.33
430.5	-98.81
430.712	-90.62
430.924	237.05
431.136	17.92
431.348	-285.18
431.56	-180.73
431.772	34.3
431.984	-88.57
432.196	-274.94
432.408	-227.84
432.62	-117.25
432.832	132.61
433.044	52.74
433.256	-104.96
433.468	114.17
433.679	-297.47
433.891	-313.85
434.103	-37.38
434.315	306.68
434.527	216.57
434.739	-74.24
434.95	-115.2
435.162	212.48
435.374	-92.67
435.586	-125.44
435.798	-121.34
436.009	-160.25
436.221	-88.57
436.433	-158.21
436.645	-166.4
436.856	-135.68
437.068	273.92
437.28	-231.93
437.491	122.37
437.703	108.03
437.915	148.99
438.126	-53.76
438.338	69.12
438.55	-10.75
438.761	105.98
438.973	-117.25
439.184	-131.58
439.396	-23.04
439.608	247.29
439.819	-266.75
440.031	-92.67
440.242	202.24
440.454	122.37
440.665	-139.77
440.877	-47.62
441.088	58.88
441.3	-47.62
441.511	-279.04
441.723	-209.4
441.934	108.03
442.146	34.3
442.357	-66.05
442.569	52.74
442.78	73.21
442.991	312.83
443.203	124.41
443.414	-213.5
443.626	386.55
443.837	-170.49
444.048	-276.99
444.26	-295.42
444.471	7.68
444.682	101.89
444.894	-342.52
445.105	-363
445.316	249.34
445.528	67.07
445.739	-139.77
445.95	-109.05
446.161	42.5
446.373	235
446.584	-188.93
446.795	-125.44
447.006	146.94
447.217	460.28
447.429	-266.75
447.64	-350.71
447.851	304.64
448.062	77.31
448.273	-336.38
448.484	-188.93
448.695	138.75
448.907	-39.42
449.118	-127.49
449.329	48.64
449.54	-23.04
449.751	-256.51
449.962	-211.45
450.173	-250.36
450.384	261.63
450.595	361.98
450.806	-205.31
451.017	-143.87
451.228	316.92
451.439	220.67
451.65	-143.87
451.861	-393.72
452.072	-227.84
452.283	89.6
452.494	17.92
452.705	-180.73
452.915	278.01
453.126	89.6
453.337	-150.01
453.548	-281.08
453.759	286.2
453.97	470.52
454.181	15.87
454.391	-117.25
454.602	93.69
454.813	132.61
455.024	-66.05
455.235	-182.78
455.445	11.78
455.656	75.26
455.867	-70.14
456.078	-231.93
456.288	-107.01
456.499	48.64
456.71	-328.19
456.921	9.73
457.131	108.03
457.342	89.6
457.553	-55.81
457.763	-154.11
457.974	136.7
458.184	257.53
458.395	-190.97
458.606	-240.12
458.816	321.02
459.027	450.04
459.237	-41.47
459.448	-391.67
459.659	271.87
459.869	443.9
460.08	-358.91
460.29	-111.1
460.501	470.52
460.711	-125.44
460.922	-365.05
461.132	-217.6
461.343	597.49
461.553	-229.88
461.764	-274.94
461.974	-223.74
462.184	146.94
462.395	108.03
462.605	-156.16
462.816	-252.41
463.026	-35.33
463.236	255.48
463.447	-262.65
463.657	-231.93
463.867	218.62
464.078	-33.28
464.288	-164.35
464.498	-238.08
464.709	7.68
464.919	-74.24
465.129	-92.67
465.339	-242.17
465.55	120.32
465.76	306.68
465.97	-94.72
466.18	-176.64
466.391	247.29
466.601	142.85
466.811	-72.19
467.021	-281.08
467.231	81.41
467.441	282.11
467.651	-205.31
467.862	-436.73
468.072	-39.42
468.282	331.26
468.492	-229.88
468.702	-133.63
468.912	-8.7
469.122	572.92
469.332	77.31
469.542	-283.13
469.752	167.42
469.962	60.93
470.172	-205.31
470.382	-291.32
470.592	216.57
470.802	302.59
471.012	-70.14
471.222	-199.16
471.432	226.81
471.642	224.76
471.852	-33.28
472.062	-340.47
472.272	112.13
472.482	-190.97
472.691	-324.09
472.901	-264.7
473.111	60.93
473.321	585.21
473.531	-184.83
473.741	-53.76
473.95	105.98
474.16	198.14
474.37	-147.97
474.58	-252.41
474.79	437.75
474.999	144.89
475.209	-199.16
475.419	-176.64
475.628	40.45
475.838	314.88
476.048	-70.14
476.258	-264.7
476.467	265.72
476.677	-201.21
476.886	34.3
477.096	-107.01
477.306	-121.34
477.515	427.51
477.725	-39.42
477.935	-104.96
478.144	294.4
478.354	-90.62
478.563	-102.91
478.773	-174.59
478.982	161.28
479.192	343.55
479.401	-33.28
479.611	-227.84
479.82	-135.68
480.03	136.7
480.239	-317.95
480.449	-244.22
480.658	392.7
480.868	-115.2
481.077	1.54
481.287	-176.64
481.496	200.19
481.705	460.28
481.915	89.6
482.124	192
482.333	120.32
482.543	359.93
482.752	-115.2
482.961	-229.88
483.171	144.89
483.38	54.78
483.589	-16.9
483.799	-141.82
484.008	17.92
484.217	310.78
484.426	-59.9
484.636	-295.42
484.845	75.26
485.054	-244.22
485.263	179.71
485.472	-68.09
485.682	505.34
485.891	161.28
486.1	-238.08
486.309	-164.35
486.518	169.47
486.727	306.68
486.936	-227.84
487.146	62.98
487.355	400.89
487.564	-135.68
487.773	-82.43
487.982	-139.77
488.191	-68.09
488.4	136.7
488.609	-236.03
488.818	-68.09
489.027	634.36
489.236	491
489.445	-113.15
489.654	-139.77
489.863	349.69
490.072	116.22
490.281	200.19
490.49	-18.94
490.698	445.95
490.907	429.56
491.116	-115.2
491.325	-256.51
491.534	413.18
491.743	192
491.952	50.69
492.16	-66.05
492.369	230.91
492.578	284.16
492.787	-27.14
492.996	-53.76
493.204	-82.43
493.413	499.19
493.622	-272.89
493.831	-248.32
494.039	439.8
494.248	-51.71
494.457	-168.45
494.665	-211.45
494.874	206.33
495.083	536.06
495.291	-72.19
495.5	-137.73
495.709	296.44
495.917	208.38
496.126	-12.8
496.335	-135.68
496.543	69.12
496.752	220.67
496.96	173.57
497.169	-254.46
497.377	112.13
497.586	411.13
497.794	-31.23
498.003	-215.55
498.211	48.64
498.42	441.85
498.628	-20.99
498.837	-209.4
499.045	314.88
499.254	120.32
499.462	-127.49
499.671	-107.01
499.879	519.67
500.087	351.74
500.296	-133.63
500.504	-23.04
500.713	200.19
500.921	613.88
501.129	-90.62
501.338	-23.04
501.546	151.04
501.754	140.8
501.962	-37.38
502.171	-111.1
502.379	280.06
502.587	542.2
502.795	-80.38
503.004	-4.61
503.212	216.57
503.42	447.99
503.628	-14.85
503.837	-14.85
504.045	314.88
504.253	654.84
504.461	-57.86
504.669	-233.98
504.877	345.59
505.085	548.34
505.294	-199.16
505.502	105.98
505.71	239.1
505.918	357.88
506.126	-82.43
506.334	-43.52
506.542	99.84
506.75	241.15
506.958	-6.66
507.166	-25.09
507.374	130.56
507.582	630.26
507.79	50.69
507.998	-80.38
508.206	298.49
508.414	357.88
508.622	-104.96
508.83	13.82
509.037	548.34
509.245	200.19
509.453	-68.09
509.661	-66.05
509.869	351.74
510.077	200.19
510.285	151.04
510.492	-297.47
510.7	632.31
510.908	-0.51
511.116	54.78
511.324	-213.5
511.531	24.06
511.739	161.28
511.947	42.5
512.155	273.92
512.362	226.81
512.57	-143.87
512.778	-92.67
512.985	-219.64
513.193	386.55
513.401	513.53
513.608	-25.09
513.816	-121.34
514.024	308.73
514.231	470.52
514.439	-4.61
514.646	-8.7
514.854	421.37
515.061	433.66
515.269	1.54
515.477	-43.52
515.684	-59.9
515.892	470.52
516.099	-188.93
516.307	-166.4
516.514	357.88
516.722	562.68
516.929	-68.09
517.136	-107.01
517.344	579.06
517.551	318.97
517.759	-121.34
517.966	19.97
518.173	144.89
518.381	179.71
518.588	40.45
518.796	-92.67
519.003	466.42
519.21	97.79
519.418	-47.62
519.625	208.38
519.832	196.09
520.039	261.63
520.247	-225.79
520.454	-20.99
520.661	456.19
520.868	345.59
521.076	95.74
521.283	58.88
521.49	757.24
521.697	400.89
521.904	19.97
522.112	-16.9
522.319	521.72
522.526	341.5
522.733	-74.24
522.94	-29.18
523.147	185.85
523.354	464.38
523.561	-219.64
523.768	17.92
523.975	495.1
524.183	241.15
524.39	62.98
524.597	-72.19
524.804	300.54
525.011	42.5
525.218	-4.61
525.425	1.54
525.632	536.06
525.838	77.31
526.045	24.06
526.252	-14.85
526.459	1203.69
526.666	1095.15
526.873	28.16
527.08	36.35
527.287	665.08
527.494	429.56
527.701	-158.21
527.907	-57.86
528.114	400.89
528.321	275.96
528.528	142.85
528.735	65.02
528.941	194.05
529.148	130.56
529.355	56.83
529.562	36.35
529.768	534.01
529.975	114.17
530.182	65.02
530.388	50.69
530.595	499.19
530.802	30.21
531.008	159.23
531.215	79.36
531.422	906.74
531.628	1054.19
531.835	71.17
532.042	228.86
532.248	192
532.455	300.54
532.661	142.85
532.868	1.54
533.074	364.03
533.281	499.19
533.487	146.94
533.694	-12.8
533.9	62.98
534.107	474.62
534.313	46.59
534.52	-27.14
534.726	536.06
534.933	710.13
535.139	-25.09
535.345	-23.04
535.552	409.08
535.758	245.24
535.965	17.92
536.171	65.02
536.377	450.04
536.584	622.07
536.79	71.17
536.996	73.21
537.203	366.07
537.409	415.23
537.615	146.94
537.821	302.59
538.028	435.71
538.234	425.47
538.44	-16.9
538.646	146.94
538.853	441.85
539.059	263.68
539.265	486.9
539.471	-119.29
539.677	433.66
539.883	214.52
540.09	110.08
540.296	425.47
540.502	300.54
540.708	204.28
540.914	194.05
541.12	69.12
541.326	482.81
541.532	378.36
541.738	200.19
541.944	247.29
542.15	640.5
542.356	351.74
542.562	-59.9
542.768	167.42
542.974	900.59
543.18	765.43
543.386	97.79
543.592	-57.86
543.798	744.95
544.004	593.4
544.21	73.21
544.415	241.15
544.621	380.41
544.827	626.17
545.033	48.64
545.239	378.36
545.445	134.65
545.651	366.07
545.856	65.02
546.062	138.75
546.268	337.4
546.474	370.17
546.679	118.27
546.885	204.28
547.091	294.4
547.297	921.07
547.502	144.89
547.708	36.35
547.914	163.33
548.119	482.81
548.325	46.59
548.531	87.55
548.736	736.76
548.942	222.72
549.147	155.13
549.353	310.78
549.559	693.75
549.764	452.09
549.97	208.38
550.175	60.93
550.381	523.77
550.586	206.33
550.792	288.25
550.997	159.23
551.203	476.66
551.408	622.07
551.614	105.98
551.819	140.8
552.025	738.8
552.23	916.98
552.435	65.02
552.641	298.49
552.846	181.76
553.052	798.2
553.257	308.73
553.462	189.95
553.668	302.59
553.873	701.94
554.078	144.89
554.283	91.65
554.489	466.42
554.694	417.27
554.899	169.47
555.105	355.83
555.31	491
555.515	593.4
555.72	378.36
555.925	212.48
556.131	669.17
556.336	245.24
556.541	163.33
556.746	73.21
556.951	714.23
557.156	824.82
557.361	259.58
557.567	282.11
557.772	949.75
557.977	497.14
558.182	163.33
558.387	112.13
558.592	343.55
558.797	652.79
559.002	316.92
559.207	294.4
559.412	488.95
559.617	882.16
559.822	118.27
560.027	151.04
560.232	515.58
560.437	669.17
560.642	32.26
560.847	81.41
561.051	531.96
561.256	570.87
561.461	271.87
561.666	38.4
561.871	462.33
562.076	544.25
562.281	306.68
562.485	132.61
562.69	728.56
562.895	738.8
563.1	214.52
563.305	108.03
563.509	720.37
563.714	1031.66
563.919	249.34
564.123	179.71
564.328	462.33
564.533	794.1
564.737	331.26
564.942	235
565.147	818.68
565.351	994.8
565.556	343.55
565.761	337.4
565.965	546.3
566.17	378.36
566.374	296.44
566.579	108.03
566.784	536.06
566.988	394.75
567.193	75.26
567.397	304.64
567.602	210.43
567.806	441.85
568.011	267.77
568.215	325.12
568.42	499.19
568.624	513.53
568.828	261.63
569.033	345.59
569.237	615.93
569.442	632.31
569.646	175.61
569.85	284.16
570.055	439.8
570.259	597.49
570.463	515.58
570.668	249.34
570.872	452.09
571.076	572.92
571.281	343.55
571.485	456.19
571.689	556.54
571.893	732.66
572.098	390.65
572.302	310.78
572.506	658.93
572.71	609.78
572.914	359.93
573.119	306.68
573.323	810.48
573.527	783.86
573.731	237.05
573.935	325.12
574.139	624.12
574.343	407.03
574.547	390.65
574.751	357.88
574.955	935.41
575.159	851.44
575.364	318.97
575.568	165.37
575.772	542.2
575.976	833.01
576.18	390.65
576.383	124.41
576.587	841.2
576.791	714.23
576.995	165.37
577.199	216.57
577.403	882.16
577.607	886.26
577.811	247.29
578.015	425.47
578.219	622.07
578.422	695.8
578.626	370.17
578.83	468.47
579.034	873.97
579.238	620.02
579.442	241.15
579.645	634.36
579.849	579.06
580.053	566.78
580.257	404.99
580.46	462.33
580.664	812.53
580.868	822.77
581.071	564.73
581.275	515.58
581.479	411.13
581.682	740.85
581.886	404.99
582.09	482.81
582.293	837.11
582.497	742.9
582.7	617.97
582.904	298.49
583.107	581.11
583.311	542.2
583.515	503.29
583.718	544.25
583.922	800.24
584.125	1060.34
584.329	294.4
584.532	595.45
584.735	945.65
584.939	720.37
585.142	335.35
585.346	345.59
585.549	747
585.753	491
585.956	482.81
586.159	493.05
586.363	1050.1
586.566	824.82
586.769	396.79
586.973	167.42
587.176	818.68
587.379	851.44
587.582	769.52
587.786	673.27
587.989	591.35
588.192	1195.5
588.395	462.33
588.599	683.51
588.802	820.72
589.005	802.29
589.208	466.42
589.411	495.1
589.615	902.64
589.818	1017.33
590.021	697.85
590.224	493.05
590.427	886.26
590.63	853.49
590.833	323.07
591.036	450.04
591.239	531.96
591.442	599.54
591.645	638.45
591.848	491
592.051	787.96
592.254	876.02
592.457	433.66
592.66	552.44
592.863	638.45
593.066	857.59
593.269	523.77
593.472	583.16
593.675	552.44
593.878	886.26
594.081	556.54
594.284	376.31
594.486	857.59
594.689	820.72
594.892	531.96
595.095	570.87
595.298	871.92
595.5	632.31
595.703	620.02
595.906	638.45
596.109	1070.58
596.311	1015.28
596.514	237.05
596.717	568.82
596.92	923.12
597.122	871.92
597.325	372.22
597.528	474.62
597.73	919.03
597.933	814.58
598.136	439.8
598.338	278.01
598.541	835.06
598.743	966.13
598.946	562.68
599.148	587.26
599.351	976.37
599.554	1015.28
599.756	658.93
599.959	595.45
600.161	968.18
600.363	1363.44
600.566	833.01
600.768	493.05
600.971	1285.61
601.173	959.99
601.376	531.96
601.578	566.78
601.78	953.84
601.983	1277.42
602.185	505.34
602.388	761.33
602.59	921.07
602.792	693.75
602.995	855.54
603.197	640.5
603.399	1078.77
603.601	833.01
603.804	597.49
604.006	620.02
604.208	830.96
604.41	439.8
604.613	744.95
604.815	574.97
605.017	1418.73
605.219	683.51
605.421	884.21
605.623	546.3
605.826	1091.06
606.028	1177.07
606.23	581.11
606.432	691.7
606.634	1287.66
606.836	1166.83
607.038	564.73
607.24	708.09
607.442	882.16
607.644	859.63
607.846	747
608.048	515.58
608.25	1105.39
608.452	724.47
608.654	706.04
608.856	388.6
609.058	847.35
609.26	974.32
609.462	757.24
609.664	706.04
609.866	1261.04
610.067	1031.66
610.269	876.02
610.471	646.65
610.673	798.2
610.875	1064.43
611.077	552.44
611.278	792.05
611.48	951.79
611.682	1263.08
611.884	837.11
612.085	689.65
612.287	712.18
612.489	972.27
612.69	437.75
612.892	747
613.094	1109.49
613.295	1041.9
613.497	640.5
613.699	712.18
613.9	1230.32
614.102	1054.19
614.304	810.48
614.505	488.95
614.707	873.97
614.908	884.21
615.11	491
615.311	851.44
615.513	1084.91
615.714	1082.86
615.916	546.3
616.117	722.42
616.319	861.68
616.52	1156.59
616.722	642.55
616.923	724.47
617.124	1211.89
617.326	976.37
617.527	701.94
617.729	890.35
617.93	1089.01
618.131	1084.91
618.333	695.8
618.534	669.17
618.735	816.63
618.937	1322.48
619.138	531.96
619.339	622.07
619.54	1031.66
619.742	923.12
619.943	880.11
620.144	722.42
620.345	1117.68
620.546	1234.41
620.748	671.22
620.949	714.23
621.15	1078.77
621.351	1013.23
621.552	749.04
621.753	591.35
621.954	703.99
622.155	1500.65
622.356	656.89
622.558	937.46
622.759	984.56
622.96	1408.49
623.161	685.56
623.362	755.19
623.563	992.75
623.764	990.7
623.965	783.86
624.166	921.07
624.366	886.26
624.567	1101.3
624.768	419.32
624.969	607.73
625.17	857.59
625.371	1177.07
625.572	851.44
625.773	736.76
625.973	1144.3
626.174	1160.69
626.375	861.68
626.576	853.49
626.777	1170.93
626.977	1529.32
627.178	724.47
627.379	835.06
627.58	972.27
627.78	1068.53
627.981	775.67
628.182	933.36
628.382	1242.61
628.583	755.19
628.784	699.89
628.984	974.32
629.185	1304.04
629.386	1193.45
629.586	892.4
629.787	732.66
629.987	1175.02
630.188	976.37
630.388	824.82
630.589	787.96
630.79	1623.53
630.99	1086.96
631.191	830.96
631.391	863.73
631.591	1125.87
631.792	1467.88
631.992	974.32
632.193	876.02
632.393	1586.66
632.594	945.65
632.794	814.58
632.994	912.88
633.195	1019.38
633.395	1125.87
633.595	773.62
633.796	1123.82
633.996	839.16
634.196	1369.58
634.397	757.24
634.597	886.26
634.797	867.83
634.997	1392.11
635.198	970.23
635.398	849.4
635.598	1056.24
635.798	1420.78
635.998	1281.52
636.199	728.56
636.399	816.63
636.599	861.68
636.799	949.75
636.999	1123.82
637.199	1193.45
637.399	1355.24
637.599	861.68
637.799	992.75
637.999	1025.52
638.199	1431.02
638.399	765.43
638.599	873.97
638.799	1269.23
638.999	1517.03
639.199	1066.48
639.399	974.32
639.599	1486.31
639.799	867.83
639.999	908.79
640.199	695.8
640.399	1211.89
640.599	1281.52
640.799	1048.05
640.998	1156.59
641.198	1521.13
641.398	1158.64
641.598	1050.1
641.798	910.83
641.997	2104.8
642.197	966.13
642.397	1002.99
642.597	906.74
642.796	1230.32
642.996	1555.94
643.196	1197.55
643.395	814.58
643.595	1383.91
643.795	820.72
643.994	1025.52
644.194	984.56
644.394	1246.7
644.593	1191.41
644.793	820.72
644.992	1138.16
645.192	1246.7
645.392	816.63
645.591	1084.91
645.791	1113.58
645.99	1236.46
646.19	1082.86
646.389	1048.05
646.589	1056.24
646.788	1330.67
646.987	1185.26
647.187	1224.17
647.386	1179.12
647.586	1158.64
647.785	1533.42
647.984	1070.58
648.184	974.32
648.383	1113.58
648.582	1076.72
648.782	1086.96
648.981	1162.73
649.18	986.61
649.38	1193.45
649.579	925.17
649.778	861.68
649.977	1238.51
650.177	1314.28
650.376	968.18
650.575	929.27
650.774	1588.71
650.973	1101.3
651.173	802.29
651.372	1023.47
651.571	1289.71
651.77	1365.48
651.969	992.75
652.168	1132.01
652.367	1009.14
652.566	1195.5
652.765	1002.99
652.964	1302
653.163	1652.2
653.362	1129.97
653.561	994.8
653.76	935.41
653.959	1121.77
654.158	1295.85
654.357	1275.37
654.556	1054.19
654.755	1398.25
654.954	1398.25
655.153	1041.9
655.352	1103.34
655.551	1588.71
655.749	1101.3
655.948	1162.73
656.147	1168.88
656.346	1304.04
656.545	1287.66
656.743	1056.24
656.942	1109.49
657.141	1248.75
657.34	1013.23
657.538	1021.42
657.737	1000.94
657.936	1160.69
658.135	1381.87
658.333	1015.28
658.532	1273.32
658.731	1748.45
658.929	1537.51
659.128	1359.34
659.326	1023.47
659.525	1547.75
659.724	1351.15
659.922	890.35
660.121	955.89
660.319	1265.13
660.518	1052.14
660.716	953.84
660.915	931.31
661.113	1613.29
661.312	1068.53
661.51	1379.82
661.709	1070.58
661.907	1441.26
662.105	1701.35
662.304	1074.67
662.502	1156.59
662.701	1570.28
662.899	1220.08
663.097	1388.01
663.296	931.31
663.494	1562.09
663.692	1764.84
663.891	1025.52
664.089	978.42
664.287	1418.73
664.485	1543.66
664.684	1002.99
664.882	1205.74
665.08	1345
665.278	1416.68
665.476	1029.62
665.675	1383.91
665.873	1781.22
666.071	1588.71
666.269	1140.21
666.467	1371.63
666.665	1428.97
666.863	1285.61
667.061	1252.84
667.259	1060.34
667.457	1349.1
667.655	1508.84
667.853	968.18
668.051	1293.8
668.249	1052.14
668.447	1451.5
668.645	992.75
668.843	1297.9
669.041	1498.6
669.239	1244.65
669.437	1310.19
669.635	1306.09
669.833	1187.31
670.031	1474.03
670.229	1218.03
670.426	1283.56
670.624	1402.35
670.822	1140.21
671.02	1279.47
671.218	1273.32
671.415	1064.43
671.613	1498.6
671.811	1285.61
672.009	1218.03
672.206	1543.66
672.404	1484.27
672.602	1351.15
672.799	1205.74
672.997	1381.87
673.195	1660.39
673.392	1373.68
673.59	1021.42
673.788	1519.08
673.985	988.66
674.183	1244.65
674.38	1224.17
674.578	1555.94
674.775	1181.17
674.973	1136.11
675.17	1109.49
675.368	1748.45
675.565	1527.27
675.763	1185.26
675.96	1117.68
676.158	1625.58
676.355	1330.67
676.553	1248.75
676.75	1252.84
676.947	1437.16
677.145	1353.2
677.342	1353.2
677.539	1351.15
677.737	1375.72
677.934	1908.19
678.131	1357.29
678.329	1207.79
678.526	1676.77
678.723	1471.98
678.92	1287.66
679.118	1215.98
679.315	1125.87
679.512	1752.55
679.709	1340.91
679.906	1402.35
680.104	1584.62
680.301	1641.96
680.498	1191.41
680.695	1146.35
680.892	1261.04
681.089	1363.44
681.286	1228.27
681.483	1121.77
681.68	1619.43
681.877	1617.38
682.075	1179.12
682.272	1406.44
682.469	1471.98
682.665	1447.4
682.862	1109.49
683.059	1076.72
683.256	1504.75
683.453	1441.26
683.65	1324.52
683.847	1318.38
684.044	1383.91
684.241	1166.83
684.438	1359.34
684.635	1093.1
684.831	1879.52
685.028	1863.14
685.225	1224.17
685.422	1355.24
685.619	1488.36
685.815	1463.79
686.012	1326.57
686.209	1373.68
686.405	1238.51
686.602	1658.34
686.799	1158.64
686.996	1064.43
687.192	1142.25
687.389	1727.97
687.586	1138.16
687.782	1285.61
687.979	1734.12
688.175	1652.2
688.372	1398.25
688.568	1224.17
688.765	1267.18
688.962	1711.59
689.158	1367.53
689.355	1185.26
689.551	1433.07
689.748	1361.39
689.944	1238.51
690.14	1097.2
690.337	1598.95
690.533	1304.04
690.73	1406.44
690.926	1369.58
691.123	1547.75
691.319	1426.92
691.515	1168.88
691.712	1480.17
691.908	1594.86
692.104	1482.22
692.301	1467.88
692.497	1197.55
692.693	1730.02
692.889	1652.2
693.086	1435.11
693.282	1166.83
693.478	1443.31
693.674	1846.76
693.87	1306.09
694.067	1199.6
694.263	1414.63
694.459	1521.13
694.655	1371.63
694.851	1381.87
695.047	1533.42
695.243	1598.95
695.439	1469.93
695.635	1248.75
695.831	1682.92
696.027	1502.7
696.224	1207.79
696.42	1627.62
696.615	1846.76
696.811	1570.28
697.007	1242.61
697.203	1293.8
697.399	1588.71
697.595	1791.46
697.791	1332.72
697.987	1449.45
698.183	1179.12
698.379	1318.38
698.575	1287.66
698.77	1293.8
698.966	1644.01
699.162	1744.36
699.358	1318.38
699.554	1277.42
699.749	1551.85
699.945	1746.41
700.141	1394.15
700.337	1390.06
700.532	1447.4
700.728	1324.52
700.924	1269.23
701.119	1154.54
701.315	1641.96
701.511	1467.88
701.706	1428.97
701.902	1086.96
702.097	1457.64
702.293	1689.06
702.489	1381.87
702.684	1304.04
702.88	1441.26
703.075	1373.68
703.271	1285.61
703.466	1175.02
703.662	1441.26
703.857	1717.73
704.053	1256.94
704.248	1299.95
704.443	1662.44
704.639	1693.16
704.834	1416.68
705.03	1353.2
705.225	1670.63
705.42	1639.91
705.616	1287.66
705.811	1252.84
706.006	1420.78
706.202	1383.91
706.397	1381.87
706.592	1340.91
706.787	1560.04
706.983	1465.83
707.178	1613.29
707.373	1435.11
707.568	1746.41
707.763	1689.06
707.959	1289.71
708.154	1252.84
708.349	1588.71
708.544	1514.98
708.739	1539.56
708.934	1164.78
709.129	1588.71
709.324	1717.73
709.519	1236.46
709.714	1248.75
709.909	1840.61
710.104	1644.01
710.299	1273.32
710.494	1428.97
710.689	1641.96
710.884	1541.61
711.079	1433.07
711.274	1582.57
711.469	1555.94
711.664	1596.9
711.859	1150.45
712.054	1404.39
712.249	1533.42
712.443	1787.36
712.638	1258.99
712.833	1281.52
713.028	1408.49
713.223	1502.7
713.417	1584.62
713.612	1338.86
713.807	1605.1
714.002	2035.17
714.196	1441.26
714.391	1347.05
714.586	1691.11
714.78	1639.91
714.975	1326.57
715.17	1332.72
715.364	1465.83
715.559	1762.79
715.754	1078.77
715.948	1220.08
716.143	1842.66
716.337	1543.66
716.532	1498.6
716.726	1373.68
716.921	1680.87
717.115	1973.73
717.31	1093.1
717.504	1906.15
717.699	1517.03
717.893	1676.77
718.088	1256.94
718.282	1258.99
718.476	1400.3
718.671	1539.56
718.865	1367.53
719.059	1388.01
719.254	1617.38
719.448	1781.22
719.642	2639.32
719.837	1091.06
720.031	1705.45
720.225	1787.36
720.419	1412.59
720.614	1365.48
720.808	1695.21
721.002	1394.15
721.196	1220.08
721.39	1338.86
721.585	1879.52
721.779	1568.23
721.973	1383.91
722.167	1119.73
722.361	1603.05
722.555	1775.08
722.749	1236.46
722.943	1283.56
723.137	1345
723.331	1623.53
723.525	1340.91
723.719	1283.56
723.913	1654.25
724.107	1852.9
724.301	1170.93
724.495	1396.2
724.689	1840.61
724.883	1826.28
725.077	1310.19
725.271	1324.52
725.465	1879.52
725.659	1553.9
725.853	1469.93
726.046	1195.5
726.24	1459.69
726.434	1687.01
726.628	1293.8
726.822	1443.31
727.015	1881.57
727.209	1787.36
727.403	1275.37
727.596	1080.82
727.79	1680.87
727.984	1687.01
728.177	1236.46
728.371	1490.41
728.565	1834.47
728.758	1232.37
728.952	1304.04
729.146	1322.48
729.339	1826.28
729.533	1465.83
729.726	1357.29
729.92	1283.56
730.113	1900
730.307	1660.39
730.5	1394.15
730.694	1299.95
730.887	1486.31
731.081	1730.02
731.274	1340.91
731.468	1410.54
731.661	1580.52
731.854	1414.63
732.048	1449.45
732.241	1289.71
732.435	1463.79
732.628	1631.72
732.821	1453.55
733.014	1269.23
733.208	1295.85
733.401	1742.31
733.594	1181.17
733.788	1414.63
733.981	1975.78
734.174	1465.83
734.367	1426.92
734.56	1451.5
734.754	1740.26
734.947	1463.79
735.14	1316.33
735.333	1385.96
735.526	1838.56
735.719	1428.97
735.912	1205.74
736.105	1314.28
736.298	1572.33
736.491	1379.82
736.684	1363.44
736.877	1328.62
737.07	1521.13
737.263	1781.22
737.456	1424.87
737.649	1250.8
737.842	1428.97
738.035	1609.19
738.228	1351.15
738.421	1494.51
738.614	1947.11
738.807	1715.69
739	1113.58
739.192	1248.75
739.385	1732.07
739.578	1758.69
739.771	1601
739.964	1381.87
740.156	1748.45
740.349	1476.07
740.542	1433.07
740.735	1308.14
740.927	1336.81
741.12	1316.33
741.313	1293.8
741.505	1437.16
741.698	1584.62
741.891	1760.74
742.083	1539.56
742.276	1424.87
742.468	1478.12
742.661	1426.92
742.854	1410.54
743.046	1375.72
743.239	1969.63
743.431	1564.14
743.624	1402.35
743.816	1265.13
744.009	1549.8
744.201	1627.62
744.393	1517.03
744.586	1256.94
744.778	1789.41
744.971	1553.9
745.163	1474.03
745.355	1379.82
745.548	1469.93
745.74	1504.75
745.932	1510.89
746.125	1410.54
746.317	2092.51
746.509	1678.82
746.702	1488.36
746.894	1439.21
747.086	1740.26
747.278	1838.56
747.471	1496.55
747.663	1453.55
747.855	1613.29
748.047	1930.72
748.239	1203.69
748.431	1334.76
748.623	2033.12
748.815	1930.72
749.008	1152.49
749.2	1254.89
749.392	1701.35
749.584	1668.58
749.776	1467.88
749.968	1510.89
750.16	2088.42
750.352	1410.54
750.544	1381.87
750.736	1371.63
750.928	1619.43
751.12	1646.05
751.311	1422.83
751.503	1437.16
751.695	1654.25
751.887	1584.62
752.079	1252.84
752.271	1428.97
752.463	2348.51
752.654	1762.79
752.846	1451.5
753.038	1302
753.23	1416.68
753.421	1752.55
753.613	1508.84
753.805	1654.25
753.997	1797.6
754.188	1885.67
754.38	1211.89
754.572	1383.91
754.763	1512.94
754.955	1684.97
755.146	1490.41
755.338	1424.87
755.53	1674.73
755.721	1658.34
755.913	1246.7
756.104	1314.28
756.296	1574.38
756.487	1615.34
756.679	1365.48
756.87	1349.1
757.062	1426.92
757.253	1699.3
757.445	1316.33
757.636	1410.54
757.827	1519.08
758.019	2162.14
758.21	1332.72
758.401	1426.92
758.593	2072.03
758.784	1902.05
758.975	1226.22
759.167	1209.84
759.358	1601
759.549	1770.98
759.74	1302
759.932	1400.3
760.123	1928.67
760.314	1498.6
760.505	1461.74
760.696	1326.57
760.888	1977.83
761.079	1371.63
761.27	1373.68
761.461	1244.65
761.652	1887.72
761.843	1514.98
762.034	1293.8
762.225	1400.3
762.416	1572.33
762.607	1500.65
762.798	1428.97
762.989	1416.68
763.18	2274.78
763.371	1471.98
763.562	1306.09
763.753	1351.15
763.944	1826.28
764.135	1744.36
764.326	1474.03
764.517	1281.52
764.708	1586.66
764.899	1748.45
765.089	1222.13
765.28	1150.45
765.471	1646.05
765.662	1717.73
765.853	1355.24
766.043	1142.25
766.234	1861.09
766.425	1750.5
766.615	1404.39
766.806	1103.34
766.997	1742.31
767.187	1574.38
767.378	1347.05
767.569	1089.01
767.759	1721.83
767.95	1574.38
768.141	1457.64
768.331	1222.13
768.522	1523.18
768.712	1768.93
768.903	1408.49
769.093	1328.62
769.284	1996.26
769.474	1560.04
769.665	1195.5
769.855	1142.25
770.046	1601
770.236	1443.31
770.426	1439.21
770.617	1236.46
770.807	1654.25
770.998	1457.64
771.188	1461.74
771.378	1273.32
771.569	1652.2
771.759	1521.13
771.949	1252.84
772.139	1125.87
772.33	1506.79
772.52	2018.79
772.71	1254.89
772.9	1127.92
773.09	1924.58
773.281	1770.98
773.471	1205.74
773.661	1299.95
773.851	1684.97
774.041	1365.48
774.231	1138.16
774.421	1410.54
774.611	1906.15
774.802	1547.75
774.992	1328.62
775.182	1203.69
775.372	1498.6
775.562	1682.92
775.752	1351.15
775.942	1336.81
776.131	1770.98
776.321	1603.05
776.511	1207.79
776.701	1201.65
776.891	1707.49
777.081	1304.04
777.271	1402.35
777.461	1189.36
777.651	1553.9
777.84	1676.77
778.03	1338.86
778.22	1289.71
778.41	1736.17
778.599	1402.35
778.789	1269.23
778.979	1234.41
779.169	1514.98
779.358	1465.83
779.548	1531.37
779.738	1025.52
779.927	1547.75
780.117	1230.32
780.307	1302
780.496	929.27
780.686	1596.9
780.875	1877.48
781.065	1248.75
781.254	1250.8
781.444	1486.31
781.633	1471.98
781.823	1240.56
782.012	1275.37
782.202	1392.11
782.391	1424.87
782.581	1177.07
782.77	1406.44
782.96	1555.94
783.149	1359.34
783.338	1285.61
783.528	1060.34
783.717	1678.82
783.906	1660.39
784.096	1334.76
784.285	1162.73
784.474	1461.74
784.663	1168.88
784.853	1254.89
785.042	1365.48
785.231	1420.78
785.42	1752.55
785.61	1308.14
785.799	1132.01
785.988	1328.62
786.177	1359.34
786.366	1258.99
786.555	1355.24
786.744	1596.9
786.933	1422.83
787.122	1125.87
787.312	1097.2
787.501	1320.43
787.69	1486.31
787.879	1269.23
788.068	1199.6
788.257	1183.21
788.445	1310.19
788.634	1306.09
788.823	1168.88
789.012	2092.51
789.201	1805.8
789.39	1390.06
789.579	1238.51
789.768	1476.07
789.957	1361.39
790.145	1238.51
790.334	941.55
790.523	1320.43
790.712	1261.04
790.9	1353.2
791.089	1134.06
791.278	1654.25
791.467	1379.82
791.655	1422.83
791.844	1656.29
792.033	1211.89
792.221	1351.15
792.41	1349.1
792.599	1011.18
792.787	1545.7
792.976	1455.59
793.164	1064.43
793.353	1129.97
793.541	1586.66
793.73	1633.77
793.918	1193.45
794.107	1156.59
794.295	1418.73
794.484	1394.15
794.672	1279.47
794.861	1213.93
795.049	1512.94
795.238	1920.48
795.426	1209.84
795.614	1105.39
795.803	1465.83
795.991	1791.46
796.179	1248.75
796.368	1154.54
796.556	1705.45
796.744	1281.52
796.932	1164.78
797.121	1070.58
797.309	1353.2
797.497	1639.91
797.685	1150.45
797.874	1134.06
798.062	1218.03
798.25	1637.86
798.438	1191.41
798.626	1115.63
798.814	1504.75
799.002	1986.02
799.19	1334.76
799.378	1256.94
799.566	1664.49
799.755	1756.65
799.943	1435.11
800.131	1121.77
800.318	1443.31
800.506	1531.37
800.694	1228.27
800.882	1361.39
801.07	1795.56
801.258	1418.73
801.446	1101.3
801.634	1234.41
801.822	1408.49
802.01	1451.5
802.197	1166.83
802.385	1355.24
802.573	1383.91
802.761	1304.04
802.949	1234.41
803.136	1185.26
803.324	1578.47
803.512	1457.64
803.699	1314.28
803.887	1070.58
804.075	1711.59
804.262	1400.3
804.45	1138.16
804.638	1347.05
804.825	1265.13
805.013	1252.84
805.201	1242.61
805.388	1033.71
805.576	1480.17
805.763	1881.57
805.951	1218.03
806.138	1408.49
806.326	1861.09
806.513	1578.47
806.701	1308.14
806.888	1250.8
807.075	1601
807.263	1951.2
807.45	1064.43
807.638	1394.15
807.825	1879.52
808.012	1676.77
808.2	1330.67
808.387	1465.83
808.574	1412.59
808.761	1678.82
808.949	1271.28
809.136	1426.92
809.323	1359.34
809.51	1414.63
809.698	1447.4
809.885	1463.79
810.072	1568.23
810.259	1592.81
810.446	1334.76
810.633	1138.16
810.82	1723.88
811.008	1754.6
811.195	1420.78
811.382	1367.53
811.569	1383.91
811.756	1207.79
811.943	1367.53
812.13	1328.62
812.317	1424.87
812.504	1457.64
812.691	1324.52
812.878	1457.64
813.064	1861.09
813.251	1451.5
813.438	1164.78
813.625	1412.59
813.812	1508.84
813.999	1416.68
814.186	1295.85
814.372	1252.84
814.559	1496.55
814.746	1752.55
814.933	1289.71
815.12	1385.96
815.306	1465.83
815.493	1261.04
815.68	1285.61
815.866	1338.86
816.053	1887.72
816.24	2059.74
816.426	1412.59
816.613	1183.21
816.799	1623.53
816.986	1828.32
817.173	1322.48
817.359	1156.59
817.546	1553.9
817.732	1187.31
817.919	1166.83
818.105	1441.26
818.292	1271.28
818.478	1635.82
818.665	1500.65
818.851	1306.09
819.037	2004.45
819.224	1560.04
819.41	1168.88
819.597	1211.89
819.783	1889.76
819.969	1627.62
820.156	1302
820.342	1234.41
820.528	2219.49
820.714	1400.3
820.901	1527.27
821.087	1281.52
821.273	1975.78
821.459	1504.75
821.646	1166.83
821.832	1283.56
822.018	1455.59
822.204	1498.6
822.39	1439.21
822.576	1201.65
822.762	1549.8
822.948	1492.46
823.134	1494.51
823.32	1375.72
823.507	1353.2
823.693	1539.56
823.879	1705.45
824.065	1228.27
824.25	1644.01
824.436	1334.76
824.622	1189.36
824.808	1115.63
824.994	1422.83
825.18	1222.13
825.366	1172.97
825.552	1273.32
825.738	1365.48
825.923	1637.86
826.109	1478.12
826.295	1160.69
826.481	1322.48
826.667	1349.1
826.852	1514.98
827.038	1265.13
827.224	1701.35
827.409	1875.43
827.595	1177.07
827.781	1420.78
827.966	1619.43
828.152	1525.22
828.338	1240.56
828.523	1111.54
828.709	1334.76
828.894	1791.46
829.08	1340.91
829.266	1306.09
829.451	1269.23
829.637	1699.3
829.822	1367.53
830.008	1166.83
830.193	1730.02
830.378	1746.41
830.564	1320.43
830.749	1144.3
830.935	1590.76
831.12	1551.85
831.305	1177.07
831.491	1281.52
831.676	1285.61
831.861	1658.34
832.047	1238.51
832.232	1158.64
832.417	1727.97
832.602	1383.91
832.788	1144.3
832.973	1177.07
833.158	1484.27
833.343	1512.94
833.528	1302
833.714	1261.04
833.899	1486.31
834.084	1775.08
834.269	1453.55
834.454	1246.7
834.639	1709.54
834.824	1396.2
835.009	1306.09
835.194	1490.41
835.379	1639.91
835.564	1803.75
835.749	1379.82
835.934	1154.54
836.119	1611.24
836.304	1424.87
836.489	1312.24
836.674	1445.35
836.859	1226.22
837.044	1727.97
837.228	1289.71
837.413	1060.34
837.598	1420.78
837.783	1666.53
837.968	1283.56
838.152	1117.68
838.337	1168.88
838.522	1674.73
838.707	1773.03
838.891	1424.87
839.076	1469.93
839.261	1654.25
839.445	1240.56
839.63	1338.86
839.815	1756.65
839.999	1402.35
840.184	1039.86
840.368	1211.89
840.553	1625.58
840.737	1635.82
840.922	1125.87
841.106	1207.79
841.291	1224.17
841.475	1398.25
841.66	1265.13
841.844	1304.04
842.029	2119.14
842.213	1148.4
842.397	1195.5
842.582	1058.29
842.766	1619.43
842.951	1594.86
843.135	1236.46
843.319	1297.9
843.504	1484.27
843.688	1660.39
843.872	1109.49
844.056	1158.64
844.241	1680.87
844.425	1394.15
844.609	1361.39
844.793	974.32
844.977	1539.56
845.161	1506.79
845.346	1107.44
845.53	1136.11
845.714	1287.66
845.898	1777.12
846.082	898.55
846.266	1080.82
846.45	1396.2
846.634	1416.68
846.818	1162.73
847.002	1207.79
847.186	1531.37
847.37	1232.37
847.554	1115.63
847.738	1326.57
847.922	1404.39
848.106	1461.74
848.29	1146.35
848.473	1215.98
848.657	1621.48
848.841	1340.91
849.025	1295.85
849.209	972.27
849.392	1476.07
849.576	1250.8
849.76	916.98
849.944	1207.79
850.127	1791.46
850.311	1164.78
850.495	1064.43
850.678	1029.62
850.862	1615.34
851.046	1760.74
851.229	1416.68
851.413	1035.76
851.596	1289.71
851.78	1365.48
851.964	1244.65
852.147	1164.78
852.331	2139.62
852.514	1676.77
852.698	1258.99
852.881	1089.01
853.065	1551.85
853.248	1336.81
853.431	1150.45
853.615	1287.66
853.798	1875.43
853.982	1457.64
854.165	1318.38
854.348	1070.58
854.532	1168.88
854.715	1191.41
854.898	1205.74
855.081	1224.17
855.265	1615.34
855.448	1732.07
855.631	1136.11
855.814	1168.88
855.997	1658.34
856.181	1328.62
856.364	1224.17
856.547	1080.82
856.73	1453.55
856.913	1414.63
857.096	1029.62
857.279	1119.73
857.462	1285.61
857.645	1449.45
857.828	1279.47
858.011	1248.75
858.194	1201.65
858.377	1482.22
858.56	1078.77
858.743	1138.16
858.926	1172.97
859.109	1408.49
859.292	1099.25
859.475	996.85
859.658	1695.21
859.841	1510.89
860.023	986.61
860.206	1013.23
860.389	1355.24
860.572	1617.38
860.755	1060.34
860.937	1172.97
861.12	1181.17
861.303	1285.61
861.486	1175.02
861.668	1121.77
861.851	1486.31
862.034	1316.33
862.216	1199.6
862.399	962.03
862.581	1400.3
862.764	1689.06
862.947	1070.58
863.129	1152.49
863.312	1117.68
863.494	1584.62
863.677	1330.67
863.859	857.59
864.042	1445.35
864.224	1644.01
864.406	1119.73
864.589	898.55
864.771	1416.68
864.954	1095.15
865.136	984.56
865.318	947.7
865.501	1500.65
865.683	894.45
865.865	1041.9
866.048	1021.42
866.23	1336.81
866.412	1326.57
866.594	972.27
866.777	1086.96
866.959	1474.03
867.141	1089.01
867.323	1246.7
867.505	1170.93
867.687	1334.76
867.869	1232.37
868.052	1132.01
868.234	962.03
868.416	1285.61
868.598	1476.07
868.78	1052.14
868.962	845.3
869.144	1560.04
869.326	1441.26
869.508	1050.1
869.69	1035.76
869.872	1103.34
870.054	1611.24
870.236	953.84
870.417	1000.94
870.599	1203.69
870.781	1621.48
870.963	1142.25
871.145	892.4
871.327	1043.95
871.508	1504.75
871.69	1039.86
871.872	1005.04
872.054	1258.99
872.235	1471.98
872.417	1144.3
872.599	947.7
872.78	1525.22
872.962	1240.56
873.144	898.55
873.325	1041.9
873.507	1535.46
873.689	1351.15
873.87	841.2
874.052	1148.4
874.233	1193.45
874.415	1455.59
874.596	1115.63
874.778	902.64
874.959	1248.75
875.141	1445.35
875.322	982.51
875.503	994.8
875.685	1402.35
875.866	1005.04
876.048	968.18
876.229	828.92
876.41	1273.32
876.592	1488.36
876.773	1078.77
876.954	826.87
877.136	1533.42
877.317	1144.3
877.498	798.2
877.679	1056.24
877.86	1320.43
878.042	1273.32
878.223	919.03
878.404	1320.43
878.585	1351.15
878.766	1723.88
878.947	1324.52
879.128	1320.43
879.309	1449.45
879.49	1533.42
879.672	1056.24
879.853	1144.3
880.034	1125.87
880.215	1195.5
880.396	1123.82
880.576	1043.95
880.757	1117.68
880.938	1529.32
881.119	941.55
881.3	1068.53
881.481	1228.27
881.662	2041.31
881.843	957.94
882.023	826.87
882.204	1361.39
882.385	1226.22
882.566	1013.23
882.747	990.7
882.927	1248.75
883.108	1299.95
883.289	964.08
883.469	1310.19
883.65	1265.13
883.831	1273.32
884.011	1263.08
884.192	1068.53
884.373	1443.31
884.553	1424.87
884.734	1218.03
884.914	1222.13
885.095	1965.54
885.275	1711.59
885.456	1297.9
885.636	966.13
885.817	1326.57
885.997	1244.65
886.178	1084.91
886.358	1148.4
886.538	1328.62
886.719	2260.45
886.899	1035.76
887.08	1254.89
887.26	1646.05
887.44	1062.38
887.621	1021.42
887.801	1203.69
887.981	1932.77
888.161	1467.88
888.342	1177.07
888.522	1183.21
888.702	1609.19
888.882	1572.33
889.062	1256.94
889.242	929.27
889.423	1662.44
889.603	1578.47
889.783	1310.19
889.963	1205.74
890.143	1476.07
890.323	1529.32
890.503	1078.77
890.683	1123.82
890.863	1394.15
891.043	1428.97
891.223	1154.54
891.403	1445.35
891.583	1416.68
891.763	1449.45
891.943	1287.66
892.122	1078.77
892.302	1340.91
892.482	1433.07
892.662	1306.09
892.842	1129.97
893.022	1385.96
893.201	1269.23
893.381	1424.87
893.561	1103.34
893.741	1582.57
893.92	1560.04
894.1	1240.56
894.28	1162.73
894.459	1541.61
894.639	1478.12
894.819	1183.21
894.998	1127.92
895.178	1439.21
895.357	1500.65
895.537	1154.54
895.716	1037.81
895.896	1418.73
896.075	1691.11
896.255	1115.63
896.434	914.93
896.614	1601
896.793	1684.97
896.973	1345
897.152	1295.85
897.331	1457.64
897.511	1469.93
897.69	1039.86
897.87	1252.84
898.049	1557.99
898.228	1385.96
898.407	1359.34
898.587	1373.68
898.766	1242.61
898.945	1531.37
899.124	1412.59
899.304	1281.52
899.483	1441.26
899.662	1818.08
899.841	1129.97
900.02	1084.91
900.199	1701.35
900.378	1521.13
900.557	1089.01
900.737	1080.82
900.916	1560.04
901.095	1617.38
901.274	1375.72
901.453	1033.71
901.632	1101.3
901.811	1215.98
901.989	1091.06
902.168	994.8
902.347	1613.29
902.526	1142.25
902.705	1228.27
902.884	1201.65
903.063	1621.48
903.242	1572.33
903.42	1101.3
903.599	1367.53
903.778	1557.99
903.957	1660.39
904.135	1275.37
904.314	1340.91
904.493	1363.44
904.672	1562.09
904.85	1123.82
905.029	1209.84
905.207	1480.17
905.386	2110.94
905.565	1154.54
905.743	1101.3
905.922	1410.54
906.1	1658.34
906.279	988.66
906.457	1089.01
906.636	1340.91
906.814	1201.65
906.993	1136.11
907.171	1240.56
907.35	1506.79
907.528	1568.23
907.707	1375.72
907.885	1035.76
908.063	1846.76
908.242	1160.69
908.42	1136.11
908.598	833.01
908.777	1416.68
908.955	1314.28
909.133	1283.56
909.311	982.51
909.49	1277.42
909.668	1349.1
909.846	1201.65
910.024	962.03
910.202	1412.59
910.38	1371.63
910.559	1107.44
910.737	1019.38
910.915	1353.2
911.093	1486.31
911.271	996.85
911.449	1312.24
911.627	1394.15
911.805	1789.41
911.983	1080.82
912.161	1048.05
912.339	1435.11
912.517	1621.48
912.695	1195.5
912.872	1134.06
913.05	1162.73
913.228	1175.02
913.406	1054.19
913.584	921.07
913.762	1392.11
913.939	1125.87
914.117	1129.97
914.295	1025.52
914.473	1494.51
914.65	1408.49
914.828	1117.68
915.006	900.59
915.184	994.8
915.361	1396.2
915.539	1072.62
915.716	1160.69
915.894	1371.63
916.072	1326.57
916.249	1162.73
916.427	1105.39
916.604	1021.42
916.782	1396.2
916.959	923.12
917.137	1093.1
917.314	1261.04
917.492	1308.14
917.669	1142.25
917.847	1084.91
918.024	1334.76
918.201	1023.47
918.379	1175.02
918.556	1129.97
918.733	1504.75
918.911	1123.82
919.088	1299.95
919.265	996.85
919.442	1326.57
919.62	1248.75
919.797	994.8
919.974	906.74
920.151	1187.31
920.328	1246.7
920.506	996.85
920.683	1215.98
920.86	957.94
921.037	1089.01
921.214	1097.2
921.391	1048.05
921.568	1377.77
921.745	1078.77
921.922	1000.94
922.099	916.98
922.276	1492.46
922.453	1185.26
922.63	964.08
922.807	1197.55
922.984	1164.78
923.161	1011.18
923.338	929.27
923.514	927.22
923.691	1238.51
923.868	1207.79
924.045	945.65
924.222	914.93
924.399	1177.07
924.575	1418.73
924.752	1080.82
924.929	1009.14
925.105	1222.13
925.282	933.36
925.459	947.7
925.635	919.03
925.812	1140.21
925.989	1033.71
926.165	923.12
926.342	828.92
926.518	867.83
926.695	1175.02
926.871	921.07
927.048	757.24
927.224	1236.46
927.401	904.69
927.577	957.94
927.754	699.89
927.93	1338.86
928.107	1152.49
928.283	849.4
928.459	949.75
928.636	1236.46
928.812	998.9
928.988	816.63
929.165	734.71
929.341	1019.38
929.517	1162.73
929.693	1117.68
929.87	609.78
930.046	1060.34
930.222	943.6
930.398	843.25
930.574	882.16
930.751	1029.62
930.927	855.54
931.103	937.46
931.279	937.46
931.455	828.92
931.631	994.8
931.807	605.69
931.983	652.79
932.159	605.69
932.335	919.03
932.511	806.39
932.687	781.81
932.863	945.65
933.039	955.89
933.215	689.65
933.391	550.39
933.566	841.2
933.742	1011.18
933.918	759.28
934.094	613.88
934.27	992.75
934.445	886.26
934.621	857.59
934.797	570.87
934.973	1113.58
935.148	1066.48
935.324	587.26
935.5	495.1
935.675	1134.06
935.851	900.59
936.027	572.92
936.202	697.85
936.378	902.64
936.553	738.8
936.729	876.02
936.904	503.29
937.08	613.88
937.255	613.88
937.431	450.04
937.606	378.36
937.782	669.17
937.957	820.72
938.133	650.74
938.308	431.61
938.483	617.97
938.659	495.1
938.834	521.72
939.009	450.04
939.185	548.34
939.36	474.62
939.535	214.52
939.71	624.12
939.886	931.31
940.061	722.42
940.236	656.89
940.411	439.8
940.586	718.33
940.761	769.52
940.937	454.14
941.112	351.74
941.287	597.49
941.462	681.46
941.637	361.98
941.812	415.23
941.987	687.61
942.162	587.26
942.337	450.04
942.512	376.31
942.687	755.19
942.862	753.14
943.037	206.33
943.212	140.8
943.386	562.68
943.561	669.17
943.736	480.76
943.911	658.93
944.086	644.6
944.26	624.12
944.435	486.9
944.61	417.27
944.785	962.03
944.959	957.94
945.134	364.03
945.309	331.26
945.483	396.79
945.658	804.34
945.833	73.21
946.007	282.11
946.182	951.79
946.357	329.21
946.531	235
946.706	241.15
946.88	67.07
947.055	564.73
947.229	333.31
947.404	247.29
947.578	781.81
947.752	441.85
947.927	263.68
948.101	169.47
948.276	501.24
948.45	581.11
948.624	486.9
948.799	321.02
948.973	691.7
949.147	282.11
949.321	441.85
949.496	255.48
949.67	712.18
949.844	558.58
950.018	417.27
950.193	349.69
950.367	1002.99
950.541	429.56
950.715	460.28
950.889	478.71
951.063	421.37
951.237	599.54
951.411	17.92
951.585	171.52
951.759	636.41
951.933	501.24
952.107	329.21
952.281	427.51
952.455	884.21
952.629	677.37
952.803	243.2
952.977	216.57
953.151	656.89
953.325	622.07
953.499	478.71
953.672	224.76
953.846	314.88
954.02	415.23
954.194	265.72
954.368	304.64
954.541	607.73
954.715	310.78
954.889	374.27
955.062	259.58
955.236	413.18
955.41	364.03
955.583	402.94
955.757	110.08
955.93	466.42
956.104	298.49
956.278	267.77
956.451	333.31
956.625	554.49
956.798	1013.23
956.972	470.52
957.145	243.2
957.319	460.28
957.492	484.86
957.665	368.12
957.839	253.44
958.012	640.5
958.185	361.98
958.359	271.87
958.532	445.95
958.705	695.8
958.879	607.73
959.052	333.31
959.225	183.81
959.398	521.72
959.572	505.34
959.745	265.72
959.918	308.73
960.091	304.64
960.264	529.91
960.438	198.14
960.611	259.58
960.784	706.04
960.957	267.77
961.13	683.51
961.303	253.44
961.476	536.06
961.649	622.07
961.822	163.33
961.995	347.64
962.168	675.32
962.341	589.3
962.514	278.01
962.686	239.1
962.859	484.86
963.032	634.36
963.205	196.09
963.378	97.79
963.551	665.08
963.723	609.78
963.896	353.79
964.069	452.09
964.242	431.61
964.414	722.42
964.587	302.59
964.76	355.83
964.932	546.3
965.105	347.64
965.278	337.4
965.45	302.59
965.623	579.06
965.795	511.48
965.968	325.12
966.14	308.73
966.313	364.03
966.485	476.66
966.658	159.23
966.83	105.98
967.003	689.65
967.175	706.04
967.348	255.48
967.52	249.34
967.692	728.56
967.865	513.53
968.037	284.16
968.209	609.78
968.382	435.71
968.554	712.18
968.726	280.06
968.898	243.2
969.071	609.78
969.243	673.27
969.415	243.2
969.587	404.99
969.759	1023.47
969.932	724.47
970.104	306.68
970.276	36.35
970.448	361.98
970.62	372.22
970.792	441.85
970.964	259.58
971.136	978.42
971.308	673.27
971.48	243.2
971.652	212.48
971.824	853.49
971.996	427.51
972.168	357.88
972.339	284.16
972.511	663.03
972.683	486.9
972.855	435.71
973.027	243.2
973.199	445.95
973.37	568.82
973.542	443.9
973.714	398.84
973.886	513.53
974.057	720.37
974.229	177.66
974.401	196.09
974.572	321.02
974.744	11.78
974.915	206.33
975.087	249.34
975.259	886.26
975.43	378.36
975.602	265.72
975.773	140.8
975.945	284.16
976.116	603.64
976.288	169.47
976.459	433.66
976.63	361.98
976.802	525.82
976.973	194.05
977.145	366.07
977.316	839.16
977.487	753.14
977.659	445.95
977.83	253.44
978.001	882.16
978.172	503.29
978.344	177.66
978.515	292.35
978.686	339.45
978.857	716.28
979.028	253.44
979.2	175.61
979.371	585.21
979.542	441.85
979.713	433.66
979.884	-14.85
980.055	228.86
980.226	355.83
980.397	218.62
980.568	67.07
980.739	632.31
980.91	378.36
981.081	298.49
981.252	171.52
981.423	636.41
981.594	613.88
981.765	110.08
981.936	343.55
982.106	372.22
982.277	646.65
982.448	171.52
982.619	366.07
982.79	400.89
982.96	677.37
983.131	282.11
983.302	34.3
983.472	300.54
983.643	491
983.814	325.12
983.984	138.75
984.155	421.37
984.326	695.8
984.496	235
984.667	220.67
984.837	292.35
985.008	634.36
985.178	314.88
985.349	327.16
985.519	357.88
985.69	218.62
985.86	327.16
986.031	181.76
986.201	511.48
986.371	591.35
986.542	65.02
986.712	-10.75
986.882	534.01
987.053	577.02
987.223	58.88
987.393	351.74
987.563	294.4
987.734	603.64
987.904	474.62
988.074	157.18
988.244	423.42
988.414	282.11
988.585	91.65
988.755	286.2
988.925	308.73
989.095	738.8
989.265	142.85
989.435	208.38
989.605	488.95
989.775	499.19
989.945	423.42
990.115	81.41
990.285	337.4
990.455	429.56
990.625	237.05
990.795	108.03
990.965	794.1
991.134	85.5
991.304	126.46
991.474	138.75
991.644	501.24
991.814	703.99
991.984	17.92
992.153	124.41
992.323	415.23
992.493	343.55
992.662	-78.33
992.832	267.77
993.002	427.51
993.171	499.19
993.341	-10.75
993.511	269.82
993.68	142.85
993.85	568.82
994.019	-10.75
994.189	13.82
994.358	300.54
994.528	206.33
994.697	-150.01
994.867	114.17
995.036	595.45
995.206	294.4
995.375	75.26
995.544	206.33
995.714	333.31
995.883	243.2
996.052	271.87
996.222	-72.19
996.391	853.49
996.56	378.36
996.73	62.98
996.899	3.58
997.068	663.03
997.237	347.64
997.406	50.69
997.576	-64
997.745	312.83
997.914	458.23
998.083	-80.38
998.252	138.75
998.421	353.79
998.59	148.99
998.759	-14.85
998.928	-104.96
999.097	652.79
999.266	372.22
999.435	275.96
999.604	-88.57
999.773	880.11
999.942	251.39
1000.111	-64
1000.28	-84.48
1000.448	161.28
1000.617	120.32
1000.786	185.85
1000.955	19.97
1001.124	257.53
1001.292	931.31
1001.461	-31.23
1001.63	-59.9
1001.798	742.9
1001.967	568.82
1002.136	-47.62
1002.304	-61.95
1002.473	325.12
1002.642	361.98
1002.81	32.26
1002.979	79.36
1003.147	491
1003.316	863.73
1003.484	124.41
1003.653	-29.18
1003.821	577.02
1003.99	194.05
1004.158	187.9
1004.327	75.26
1004.495	419.32
1004.663	99.84
1004.832	153.09
1005	-147.97
1005.168	447.99
1005.337	382.46
1005.505	-115.2
1005.673	196.09
1005.842	478.71
1006.01	484.86
1006.178	-78.33
1006.346	-72.19
1006.514	484.86
1006.683	593.4
1006.851	-0.51
1007.019	-180.73
1007.187	85.5
1007.355	-180.73
1007.523	-176.64
1007.691	-156.16
1007.859	-47.62
1008.027	447.99
1008.195	26.11
1008.363	-139.77
1008.531	511.48
1008.699	134.65
1008.867	-158.21
1009.035	-90.62
1009.203	560.63
1009.37	247.29
1009.538	3.58
1009.706	380.41
1009.874	353.79
1010.042	200.19
1010.209	-98.81
1010.377	32.26
1010.545	521.72
1010.713	357.88
1010.88	-43.52
1011.048	60.93
1011.216	206.33
1011.383	564.73
1011.551	-96.77
1011.718	-78.33
1011.886	480.76
1012.054	273.92
1012.221	-18.94
1012.389	-121.34
1012.556	247.29
1012.724	718.33
1012.891	112.13
1013.058	-180.73
1013.226	333.31
1013.393	417.27
1013.561	-139.77
1013.728	-160.25
1013.895	343.55
1014.063	327.16
1014.23	-166.4
1014.397	-166.4
1014.565	443.9
1014.732	155.13
1014.899	-94.72
1015.066	-162.3
1015.233	232.96
1015.401	425.47
1015.568	-20.99
1015.735	44.54
1015.902	263.68
1016.069	353.79
1016.236	-51.71
1016.403	-68.09
1016.57	77.31
1016.737	415.23
1016.904	-4.61
1017.071	-160.25
1017.238	116.22
1017.405	521.72
1017.572	-74.24
1017.739	118.27
1017.906	325.12
1018.073	417.27
1018.24	-156.16
1018.407	52.74
1018.573	411.13
1018.74	212.48
1018.907	-55.81
1019.074	-293.37
1019.241	460.28
1019.407	286.2
1019.574	-94.72
1019.741	-174.59
1019.907	300.54
1020.074	314.88
1020.241	-307.71
1020.407	-158.21
1020.574	343.55
1020.74	333.31
1020.907	-37.38
1021.073	-172.54
1021.24	744.95
1021.406	597.49
1021.573	-240.12
1021.739	-139.77
1021.906	488.95
1022.072	187.9
1022.239	-74.24
1022.405	-88.57
1022.571	308.73
1022.738	-37.38
1022.904	-119.29
1023.07	5.63
1023.237	296.44
1023.403	499.19
1023.569	-82.43
1023.735	-90.62
1023.902	269.82
1024.068	318.97
1024.234	-90.62
1024.4	-123.39
1024.566	331.26
1024.732	364.03
1024.898	-64
1025.065	-295.42
1025.231	404.99
1025.397	153.09
1025.563	-84.48
1025.729	-94.72
1025.895	-197.12
1026.061	-76.29
1026.227	-262.65
1026.392	-61.95
1026.558	468.47
1026.724	282.11
1026.89	-209.4
1027.056	-53.76
1027.222	321.02
1027.388	65.02
1027.553	-188.93
1027.719	-88.57
1027.885	556.54
1028.051	247.29
1028.216	-258.56
1028.382	-92.67
1028.548	347.64
1028.713	108.03
1028.879	-147.97
1029.045	-2.56
1029.21	464.38
1029.376	474.62
1029.541	-33.28
1029.707	-90.62
1029.873	353.79
1030.038	411.13
1030.204	-109.05
1030.369	-92.67
1030.534	431.61
1030.7	136.7
1030.865	-29.18
1031.031	-197.12
1031.196	407.03
1031.361	261.63
1031.527	-129.53
1031.692	-80.38
1031.857	-123.39
1032.023	263.68
1032.188	-219.64
1032.353	-86.53
1032.518	595.45
1032.684	224.76
1032.849	-240.12
1033.014	-137.73
1033.179	380.41
1033.344	359.93
1033.509	38.4
1033.674	-123.39
1033.839	409.08
1034.004	335.35
1034.17	-139.77
1034.335	-188.93
1034.5	161.28
1034.664	85.5
1034.829	-238.08
1034.994	-109.05
1035.159	278.01
1035.324	314.88
1035.489	-217.6
1035.654	-156.16
1035.819	531.96
1035.984	224.76
1036.148	-10.75
1036.313	-135.68
1036.478	411.13
1036.643	200.19
1036.807	-215.55
1036.972	-182.78
1037.137	544.25
1037.301	253.44
1037.466	-221.69
1037.631	-2.56
1037.795	529.91
1037.96	323.07
1038.124	56.83
1038.289	-188.93
1038.454	415.23
1038.618	294.4
1038.783	-57.86
1038.947	-121.34
1039.111	286.2
1039.276	89.6
1039.44	-129.53
1039.605	386.55
1039.769	97.79
1039.933	218.62
1040.098	-88.57
1040.262	-12.8
1040.426	478.71
1040.591	396.79
1040.755	-145.92
1040.919	-59.9
1041.083	275.96
1041.248	185.85
1041.412	-258.56
1041.576	-160.25
1041.74	101.89
1041.904	390.65
1042.068	-139.77
1042.232	-14.85
1042.397	331.26
1042.561	243.2
1042.725	-401.91
1042.889	62.98
1043.053	351.74
1043.217	339.45
1043.381	-78.33
1043.544	-225.79
1043.708	564.73
1043.872	26.11
1044.036	-264.7
1044.2	-260.6
1044.364	525.82
1044.528	617.97
1044.691	2747.86
1044.855	-295.42
1045.019	435.71
1045.183	417.27
1045.346	-23.04
1045.51	-213.5
1045.674	323.07
1045.837	339.45
1046.001	-152.06
1046.165	-135.68
1046.328	749.04
1046.492	316.92
1046.655	32.26
1046.819	-88.57
1046.983	11.78
1047.146	462.33
1047.31	-16.9
1047.473	-274.94
1047.636	271.87
1047.8	38.4
1047.963	-18.94
1048.127	-166.4
1048.29	17.92
