Data from Ink_Intensity_USB4F045381__59__00059.txt Node

Date: Mon Jul 17 10:22:01 EDT 2023
User: mmckonesweet
Spectrometer: USB4F04538
Trigger mode: 4
Integration Time (sec): 9.000000E-1
Scans to average: 1
Electric dark correction enabled: true
Nonlinearity correction enabled: false
Boxcar width: 0
XAxis mode: Wavelengths
Number of Pixels in Spectrum: 3648
>>>>>Begin Spectral Data<<<<<
345.52	-962.37
345.736	-962.37
345.952	-962.37
346.168	-952.13
346.384	-993.09
346.6	-71.51
346.816	-292.69
347.032	-225.11
347.248	288.93
347.464	-171.86
347.68	-120.66
347.896	39.08
348.112	393.38
348.328	-114.52
348.544	-73.56
348.76	47.27
348.975	301.22
349.191	-139.09
349.407	-178
349.623	65.71
349.839	-26.45
350.055	-128.85
350.27	51.37
350.486	147.62
350.702	325.8
350.918	198.82
351.133	-190.29
351.349	247.97
351.565	356.52
351.781	-216.91
351.996	92.33
352.212	313.51
352.428	-73.56
352.644	-186.19
352.859	-288.59
353.075	247.97
353.291	112.81
353.506	-112.47
353.722	-188.24
353.938	-53.08
354.153	383.14
354.369	129.19
354.584	-161.62
354.8	276.65
355.016	-280.4
355.231	-171.86
355.447	-26.45
355.662	145.58
355.878	780.45
356.093	-307.02
356.309	-55.12
356.524	-239.44
356.74	229.54
356.955	-231.25
357.171	-67.41
357.386	161.96
357.602	-298.83
357.817	-114.52
358.033	-157.52
358.248	346.28
358.464	157.86
358.679	-137.04
358.895	-233.3
359.11	-53.08
359.325	331.94
359.541	34.99
359.756	-32.6
359.972	-253.78
360.187	82.09
360.402	-116.56
360.618	-169.81
360.833	983.2
361.048	86.19
361.264	-130.9
361.479	-91.99
361.694	63.66
361.909	129.19
362.125	-259.92
362.34	-114.52
362.555	247.97
362.77	82.09
362.986	-173.91
363.201	-206.67
363.416	198.82
363.631	69.8
363.847	-124.76
364.062	-233.3
364.277	170.15
364.492	116.9
364.707	-145.24
364.922	-366.42
365.138	319.65
365.353	399.52
365.568	-229.2
365.783	-112.47
365.998	39.08
366.213	594.08
366.428	-161.62
366.643	55.47
366.858	227.5
367.073	170.15
367.288	-18.26
367.503	-188.24
367.718	159.91
367.933	321.7
368.148	-290.64
368.363	-63.32
368.578	-18.26
368.793	436.39
369.008	-71.51
369.223	-202.58
369.438	198.82
369.653	424.1
369.868	-161.62
370.083	-216.91
370.298	112.81
370.513	399.52
370.728	14.51
370.943	-171.86
371.157	-186.19
371.372	538.79
371.587	-298.83
371.802	-274.26
372.017	129.19
372.232	415.91
372.446	-57.17
372.661	-255.83
372.876	276.65
373.091	129.19
373.306	-87.89
373.52	-266.07
373.735	-192.34
373.95	352.42
374.165	-124.76
374.379	-124.76
374.594	-114.52
374.809	164.01
375.023	55.47
375.238	-157.52
375.453	321.7
375.667	-280.4
375.882	-89.94
376.097	-231.25
376.311	86.19
376.526	8.36
376.741	-202.58
376.955	106.67
377.17	639.14
377.384	518.31
377.599	-1.88
377.813	-298.83
378.028	567.46
378.242	145.58
378.457	-71.51
378.672	-304.98
378.886	123.05
379.101	10.41
379.315	-358.22
379.53	-171.86
379.744	186.54
379.958	155.82
380.173	-98.13
380.387	-114.52
380.602	161.96
380.816	-40.79
381.031	-143.19
381.245	-98.13
381.459	202.92
381.674	2558.08
381.888	-251.73
382.103	92.33
382.317	-132.95
382.531	415.91
382.746	-55.12
382.96	-186.19
383.174	-180.05
383.388	377
383.603	73.9
383.817	-237.39
384.031	149.67
384.246	417.96
384.46	-28.5
384.674	297.13
384.888	71.85
385.103	18.6
385.317	-245.59
385.531	-81.75
385.745	374.95
385.959	266.41
386.174	-221.01
386.388	-221.01
386.602	57.51
386.816	-38.74
387.03	22.7
387.244	-118.61
387.458	104.62
387.672	354.47
387.887	-231.25
388.101	-278.35
388.315	424.1
388.529	194.73
388.743	-163.67
388.957	-214.87
389.171	288.93
389.385	-145.24
389.599	-145.24
389.813	24.75
390.027	108.71
390.241	592.03
390.455	-57.17
390.669	-190.29
390.883	16.55
391.097	372.9
391.311	4.27
391.525	-192.34
391.738	182.44
391.952	145.58
392.166	-26.45
392.38	-212.82
392.594	250.02
392.808	266.41
393.022	-116.56
393.236	-85.84
393.449	223.4
393.663	135.34
393.877	-292.69
394.091	-85.84
394.305	-104.28
394.518	-63.32
394.732	-259.92
394.946	-221.01
395.16	403.62
395.373	51.37
395.587	-108.37
395.801	-231.25
396.015	374.95
396.228	260.26
396.442	-264.02
396.656	-350.03
396.869	313.51
397.083	409.76
397.297	-104.28
397.51	-96.08
397.724	381.09
397.938	139.43
398.151	-239.44
398.365	-270.16
398.578	223.4
398.792	346.28
399.005	-59.22
399.219	-77.65
399.433	80.04
399.646	219.3
399.86	73.9
400.073	55.47
400.287	211.11
400.5	-38.74
400.714	24.75
400.927	-57.17
401.141	233.64
401.354	1114.27
401.567	247.97
401.781	-274.26
401.994	293.03
402.208	600.23
402.421	-69.46
402.635	-83.8
402.848	84.14
403.061	323.75
403.275	-126.8
403.488	-255.83
403.701	469.16
403.915	180.39
404.128	-46.93
404.341	-198.48
404.555	166.06
404.768	-30.55
404.981	10.41
405.195	-124.76
405.408	528.55
405.621	313.51
405.834	4.27
406.048	-212.82
406.261	489.64
406.474	432.29
406.687	-171.86
406.9	-32.6
407.114	22.7
407.327	114.86
407.54	-243.54
407.753	-223.06
407.966	-155.47
408.179	213.16
408.392	-188.24
408.605	-286.54
408.819	196.78
409.032	235.69
409.245	-143.19
409.458	-30.55
409.671	209.06
409.884	260.26
410.097	-284.5
410.31	28.84
410.523	211.11
410.736	10.41
410.949	-100.18
411.162	-151.38
411.375	422.05
411.588	293.03
411.801	2.22
412.014	-141.14
412.227	-26.45
412.44	-77.65
412.653	-159.57
412.865	-1.88
413.078	280.74
413.291	159.91
413.504	-79.7
413.717	-108.37
413.93	247.97
414.143	-130.9
414.356	-128.85
414.568	-309.07
414.781	391.33
414.994	180.39
415.207	-51.03
415.42	-139.09
415.632	264.36
415.845	424.1
416.058	-206.67
416.271	-218.96
416.483	82.09
416.696	510.11
416.909	-112.47
417.121	-104.28
417.334	180.39
417.547	600.23
417.759	-161.62
417.972	-218.96
418.185	-89.94
418.397	258.21
418.61	-202.58
418.823	-124.76
419.035	430.24
419.248	-57.17
419.46	-132.95
419.673	-87.89
419.885	243.88
420.098	51.37
420.311	-151.38
420.523	-272.21
420.736	223.4
420.948	118.95
421.161	-169.81
421.373	-300.88
421.586	39.08
421.798	-100.18
422.01	-253.78
422.223	-61.27
422.435	-42.84
422.648	286.89
422.86	-157.52
423.073	-169.81
423.285	301.22
423.497	-239.44
423.71	-120.66
423.922	-204.63
424.134	188.58
424.347	325.8
424.559	69.8
424.771	92.33
424.984	55.47
425.196	114.86
425.408	-345.94
425.621	-229.2
425.833	315.56
426.045	444.58
426.257	-243.54
426.47	-137.04
426.682	51.37
426.894	180.39
427.106	-100.18
427.318	-71.51
427.531	-46.93
427.743	272.55
427.955	-157.52
428.167	235.69
428.379	155.82
428.591	8.36
428.804	2.22
429.016	-227.15
429.228	18.6
429.44	223.4
429.652	80.04
429.864	-288.59
430.076	-48.98
430.288	18.6
430.5	-157.52
430.712	-85.84
430.924	379.04
431.136	133.29
431.348	-313.17
431.56	-180.05
431.772	43.18
431.984	-83.8
432.196	-223.06
432.408	-120.66
432.62	-55.12
432.832	65.71
433.044	67.75
433.256	-3.93
433.468	223.4
433.679	-165.71
433.891	-194.39
434.103	51.37
434.315	374.95
434.527	254.12
434.739	-85.84
434.95	-184.15
435.162	272.55
435.374	-26.45
435.586	-108.37
435.798	-186.19
436.009	-272.21
436.221	34.99
436.433	-96.08
436.645	-91.99
436.856	-61.27
437.068	301.22
437.28	-276.31
437.491	192.68
437.703	92.33
437.915	108.71
438.126	-122.71
438.338	30.89
438.55	63.66
438.761	143.53
438.973	-178
439.184	-102.23
439.396	116.9
439.608	239.78
439.819	-204.63
440.031	-26.45
440.242	225.45
440.454	286.89
440.665	-145.24
440.877	-141.14
441.088	180.39
441.3	-42.84
441.511	-233.3
441.723	-272.21
441.934	102.57
442.146	114.86
442.357	-65.36
442.569	100.52
442.78	47.27
442.991	465.06
443.203	92.33
443.414	-335.7
443.626	381.09
443.837	-147.28
444.048	-218.96
444.26	-245.59
444.471	32.94
444.682	344.23
444.894	-331.6
445.105	-345.94
445.316	327.85
445.528	178.34
445.739	-165.71
445.95	-141.14
446.161	155.82
446.373	297.13
446.584	-128.85
446.795	-198.48
447.006	161.96
447.217	450.72
447.429	-358.22
447.64	-223.06
447.851	325.8
448.062	88.23
448.273	-323.41
448.484	-239.44
448.695	184.49
448.907	12.46
449.118	-135
449.329	92.33
449.54	-69.46
449.751	-110.42
449.962	-118.61
450.173	-173.91
450.384	284.84
450.595	272.55
450.806	-204.63
451.017	-165.71
451.228	399.52
451.439	256.17
451.65	-182.1
451.861	-364.37
452.072	-167.76
452.283	28.84
452.494	-18.26
452.705	-192.34
452.915	424.1
453.126	213.16
453.337	-157.52
453.548	-261.97
453.759	182.44
453.97	587.94
454.181	14.51
454.391	-151.38
454.602	114.86
454.813	186.54
455.024	-192.34
455.235	-180.05
455.445	28.84
455.656	145.58
455.867	-14.17
456.078	-190.29
456.288	-42.84
456.499	104.62
456.71	-292.69
456.921	24.75
457.131	161.96
457.342	145.58
457.553	-122.71
457.763	-212.82
457.974	211.11
458.184	108.71
458.395	-284.5
458.606	-237.39
458.816	333.99
459.027	483.49
459.237	-73.56
459.448	-337.74
459.659	278.69
459.869	526.5
460.08	-362.32
460.29	-87.89
460.501	536.74
460.711	-126.8
460.922	-307.02
461.132	-218.96
461.343	671.9
461.553	-235.35
461.764	-270.16
461.974	-188.24
462.184	229.54
462.395	131.24
462.605	-161.62
462.816	-165.71
463.026	65.71
463.236	252.07
463.447	-188.24
463.657	-249.68
463.867	194.73
464.078	-48.98
464.288	-155.47
464.498	-261.97
464.709	-32.6
464.919	-24.4
465.129	-110.42
465.339	-317.26
465.55	184.49
465.76	145.58
465.97	-206.67
466.18	-276.31
466.391	303.27
466.601	170.15
466.811	-73.56
467.021	-259.92
467.231	106.67
467.441	309.41
467.651	-71.51
467.862	-364.37
468.072	80.04
468.282	344.23
468.492	-155.47
468.702	-141.14
468.912	24.75
469.122	551.07
469.332	82.09
469.542	-227.15
469.752	178.34
469.962	170.15
470.172	-259.92
470.382	-261.97
470.592	204.97
470.802	321.7
471.012	-106.32
471.222	-257.87
471.432	297.13
471.642	268.45
471.852	-69.46
472.062	-212.82
472.272	-5.97
472.482	-194.39
472.691	-274.26
472.901	-347.98
473.111	45.23
473.321	581.79
473.531	-231.25
473.741	-116.56
473.95	108.71
474.16	170.15
474.37	-155.47
474.58	-386.9
474.79	417.96
474.999	264.36
475.209	-264.02
475.419	-249.68
475.628	4.27
475.838	270.5
476.048	-202.58
476.258	-218.96
476.467	377
476.677	-26.45
476.886	-16.21
477.096	-38.74
477.306	-132.95
477.515	327.85
477.725	-100.18
477.935	-124.76
478.144	364.71
478.354	-89.94
478.563	-255.83
478.773	-235.35
478.982	174.25
479.192	366.76
479.401	-38.74
479.611	-280.4
479.82	-149.33
480.03	94.38
480.239	-266.07
480.449	-319.31
480.658	385.19
480.868	-116.56
481.077	-130.9
481.287	-261.97
481.496	219.3
481.705	352.42
481.915	10.41
482.124	116.9
482.333	131.24
482.543	372.9
482.752	-120.66
482.961	-216.91
483.171	221.35
483.38	63.66
483.589	-182.1
483.799	-182.1
484.008	34.99
484.217	374.95
484.426	-178
484.636	-268.11
484.845	63.66
485.054	-266.07
485.263	137.38
485.472	-180.05
485.682	465.06
485.891	178.34
486.1	-272.21
486.309	-218.96
486.518	108.71
486.727	370.85
486.936	-280.4
487.146	-161.62
487.355	401.57
487.564	-192.34
487.773	-155.47
487.982	-223.06
488.191	-22.36
488.4	39.08
488.609	-202.58
488.818	-218.96
489.027	567.46
489.236	415.91
489.445	-210.77
489.654	-239.44
489.863	239.78
490.072	49.32
490.281	149.67
490.49	-198.48
490.698	428.2
490.907	444.58
491.116	-163.67
491.325	-356.18
491.534	368.81
491.743	155.82
491.952	-120.66
492.16	-223.06
492.369	102.57
492.578	338.09
492.787	-132.95
492.996	-288.59
493.204	-108.37
493.413	428.2
493.622	-399.18
493.831	-339.79
494.039	385.19
494.248	-190.29
494.457	-196.43
494.665	-331.6
494.874	155.82
495.083	518.31
495.291	-188.24
495.5	-212.82
495.709	172.2
495.917	137.38
496.126	-159.57
496.335	-278.35
496.543	-59.22
496.752	145.58
496.96	57.51
497.169	-370.51
497.377	47.27
497.586	331.94
497.794	-98.13
498.003	-372.56
498.211	63.66
498.42	387.24
498.628	-91.99
498.837	-247.63
499.045	131.24
499.254	51.37
499.462	-241.49
499.671	-198.48
499.879	383.14
500.087	284.84
500.296	-145.24
500.504	-190.29
500.713	198.82
500.921	518.31
501.129	-192.34
501.338	-204.63
501.546	125.1
501.754	129.19
501.962	-206.67
502.171	-272.21
502.379	153.77
502.587	405.67
502.795	-102.23
503.004	-235.35
503.212	-10.07
503.42	350.37
503.628	-141.14
503.837	-55.12
504.045	243.88
504.253	536.74
504.461	-229.2
504.669	-401.23
504.877	166.06
505.085	411.81
505.294	-292.69
505.502	26.79
505.71	80.04
505.918	352.42
506.126	-276.31
506.334	-186.19
506.542	26.79
506.75	145.58
506.958	-83.8
507.166	-165.71
507.374	-77.65
507.582	397.48
507.79	-145.24
507.998	-296.78
508.206	114.86
508.414	161.96
508.622	-268.11
508.83	-202.58
509.037	422.05
509.245	53.42
509.453	-223.06
509.661	-268.11
509.869	256.17
510.077	65.71
510.285	-71.51
510.492	-413.52
510.7	551.07
510.908	-61.27
511.116	-270.16
511.324	-270.16
511.531	112.81
511.739	104.62
511.947	-79.7
512.155	49.32
512.362	-3.93
512.57	-149.33
512.778	-294.74
512.985	-374.61
513.193	284.84
513.401	432.29
513.608	-190.29
513.816	-227.15
514.024	211.11
514.231	311.46
514.439	-223.06
514.646	-161.62
514.854	186.54
515.061	379.04
515.269	-280.4
515.477	-194.39
515.684	-81.75
515.892	280.74
516.099	-284.5
516.307	-300.88
516.514	221.35
516.722	491.68
516.929	-157.52
517.136	-278.35
517.344	430.24
517.551	65.71
517.759	-255.83
517.966	-204.63
518.173	-91.99
518.381	188.58
518.588	-87.89
518.796	-294.74
519.003	286.89
519.21	116.9
519.418	-218.96
519.625	51.37
519.832	65.71
520.039	207.02
520.247	-315.22
520.454	-233.3
520.661	344.23
520.868	55.47
521.076	-165.71
521.283	-94.04
521.49	655.52
521.697	243.88
521.904	-180.05
522.112	-192.34
522.319	227.5
522.526	225.45
522.733	-286.54
522.94	-286.54
523.147	55.47
523.354	340.13
523.561	-321.36
523.768	-192.34
523.975	276.65
524.183	108.71
524.39	-180.05
524.597	-343.89
524.804	22.7
525.011	-73.56
525.218	-188.24
525.425	-249.68
525.632	370.85
525.838	-178
526.045	-214.87
526.252	-325.46
526.459	1069.21
526.666	915.61
526.873	-286.54
527.08	-253.78
527.287	352.42
527.494	227.5
527.701	-259.92
527.907	-311.12
528.114	254.12
528.321	45.23
528.528	-202.58
528.735	-313.17
528.941	-8.02
529.148	-48.98
529.355	-96.08
529.562	-329.55
529.768	417.96
529.975	30.89
530.182	-147.28
530.388	-259.92
530.595	309.41
530.802	-161.62
531.008	-89.94
531.215	-200.53
531.422	723.1
531.628	759.97
531.835	-94.04
532.042	-151.38
532.248	22.7
532.455	39.08
532.661	-124.76
532.868	-268.11
533.074	137.38
533.281	311.46
533.487	-137.04
533.694	-241.49
533.9	-227.15
534.107	336.04
534.313	-204.63
534.52	-253.78
534.726	247.97
534.933	434.34
535.139	-245.59
535.345	-309.07
535.552	194.73
535.758	88.23
535.965	-100.18
536.171	-243.54
536.377	282.79
536.584	415.91
536.79	-259.92
536.996	-231.25
537.203	59.56
537.409	166.06
537.615	-135
537.821	-112.47
538.028	272.55
538.234	260.26
538.44	-288.59
538.646	-132.95
538.853	245.93
539.059	22.7
539.265	151.72
539.471	-479.05
539.677	346.28
539.883	-57.17
540.09	-233.3
540.296	186.54
540.502	75.95
540.708	-34.64
540.914	-34.64
541.12	-192.34
541.326	188.58
541.532	-22.36
541.738	-178
541.944	-165.71
542.15	223.4
542.356	90.28
542.562	-241.49
542.768	-149.33
542.974	592.03
543.18	522.4
543.386	-249.68
543.592	-354.13
543.798	415.91
544.004	266.41
544.21	-300.88
544.415	-42.84
544.621	133.29
544.827	325.8
545.033	-290.64
545.239	63.66
545.445	-67.41
545.651	131.24
545.856	-221.01
546.062	-196.43
546.268	-10.07
546.474	65.71
546.679	-79.7
546.885	-73.56
547.091	-75.6
547.297	483.49
547.502	-75.6
547.708	-292.69
547.914	-104.28
548.119	170.15
548.325	-247.63
548.531	-347.98
548.736	442.53
548.942	-100.18
549.147	-235.35
549.353	-38.74
549.559	352.42
549.764	178.34
549.97	-212.82
550.175	-167.76
550.381	270.5
550.586	-75.6
550.792	-165.71
550.997	-143.19
551.203	290.98
551.408	235.69
551.614	-284.5
551.819	-251.73
552.025	469.16
552.23	483.49
552.435	-286.54
552.641	-96.08
552.846	-104.28
553.052	391.33
553.257	-100.18
553.462	-190.29
553.668	-28.5
553.873	317.61
554.078	-270.16
554.283	-221.01
554.489	96.43
554.694	-22.36
554.899	-296.78
555.105	-22.36
555.31	237.74
555.515	282.79
555.72	-155.47
555.925	-311.12
556.131	331.94
556.336	-143.19
556.541	-309.07
556.746	-249.68
556.951	460.96
557.156	444.58
557.361	-87.89
557.567	-71.51
557.772	610.47
557.977	338.09
558.182	-178
558.387	-210.77
558.592	10.41
558.797	475.3
559.002	-69.46
559.207	-96.08
559.412	41.13
559.617	538.79
559.822	-180.05
560.027	-321.36
560.232	108.71
560.437	374.95
560.642	-321.36
560.847	-325.46
561.051	125.1
561.256	209.06
561.461	-223.06
561.666	-331.6
561.871	88.23
562.076	241.83
562.281	-145.24
562.485	-243.54
562.69	313.51
562.895	336.04
563.1	-173.91
563.305	-143.19
563.509	303.27
563.714	698.53
563.919	-243.54
564.123	-227.15
564.328	47.27
564.533	374.95
564.737	-206.67
564.942	-206.67
565.147	538.79
565.351	637.09
565.556	-75.6
565.761	-143.19
565.965	215.21
566.17	-106.32
566.374	-173.91
566.579	-272.21
566.784	166.06
566.988	-5.97
567.193	-309.07
567.397	-268.11
567.602	-171.86
567.806	100.52
568.011	-218.96
568.215	-104.28
568.42	6.31
568.624	-5.97
568.828	-108.37
569.033	-89.94
569.237	290.98
569.442	237.74
569.646	-302.93
569.85	-145.24
570.055	112.81
570.259	141.48
570.463	-8.02
570.668	-108.37
570.872	96.43
571.076	92.33
571.281	-59.22
571.485	-48.98
571.689	133.29
571.893	270.5
572.098	-26.45
572.302	-112.47
572.506	286.89
572.71	88.23
572.914	-106.32
573.119	-108.37
573.323	456.87
573.527	522.4
573.731	-194.39
573.935	-245.59
574.139	172.2
574.343	-114.52
574.547	-104.28
574.751	-137.04
574.955	458.92
575.159	456.87
575.364	-178
575.568	-251.73
575.772	141.48
575.976	401.57
576.18	-157.52
576.383	-313.17
576.587	350.37
576.791	299.17
576.995	-325.46
577.199	-300.88
577.403	379.04
577.607	417.96
577.811	-239.44
578.015	-53.08
578.219	207.02
578.422	358.57
578.626	-81.75
578.83	20.65
579.034	430.24
579.238	219.3
579.442	-214.87
579.645	231.59
579.849	59.56
580.053	96.43
580.257	-104.28
580.46	-94.04
580.664	313.51
580.868	237.74
581.071	24.75
581.275	-53.08
581.479	-190.29
581.682	276.65
581.886	-163.67
582.09	-124.76
582.293	252.07
582.497	260.26
582.7	-10.07
582.904	-237.39
583.107	59.56
583.311	22.7
583.515	-102.23
583.718	-75.6
583.922	254.12
584.125	596.13
584.329	-141.14
584.532	34.99
584.735	415.91
584.939	247.97
585.142	-272.21
585.346	-184.15
585.549	231.59
585.753	-24.4
585.956	-85.84
586.159	-40.79
586.363	555.17
586.566	229.54
586.769	-186.19
586.973	-202.58
587.176	231.59
587.379	403.62
587.582	178.34
587.786	14.51
587.989	133.29
588.192	821.41
588.395	-83.8
588.599	129.19
588.802	186.54
589.005	311.46
589.208	-57.17
589.411	-192.34
589.615	346.28
589.818	481.44
590.021	88.23
590.224	-51.03
590.427	329.89
590.63	233.64
590.833	-278.35
591.036	-196.43
591.239	82.09
591.442	82.09
591.645	88.23
591.848	-175.95
592.051	92.33
592.254	350.37
592.457	-91.99
592.66	-104.28
592.863	131.24
593.066	233.64
593.269	-100.18
593.472	34.99
593.675	6.31
593.878	344.23
594.081	-61.27
594.284	-264.02
594.486	295.08
594.689	262.31
594.892	-5.97
595.095	-14.17
595.298	309.41
595.5	-10.07
595.703	53.42
595.906	94.38
596.109	561.31
596.311	417.96
596.514	-378.7
596.717	-120.66
596.92	438.44
597.122	270.5
597.325	-358.22
597.528	-128.85
597.73	438.44
597.933	227.5
598.136	-169.81
598.338	-315.22
598.541	274.6
598.743	417.96
598.946	-89.94
599.148	-100.18
599.351	409.76
599.554	428.2
599.756	-46.93
599.959	-73.56
600.161	346.28
600.363	712.86
600.566	67.75
600.768	-104.28
600.971	620.71
601.173	301.22
601.376	-120.66
601.578	-59.22
601.78	276.65
601.983	721.06
602.185	-198.48
602.388	110.76
602.59	290.98
602.792	43.18
602.995	131.24
603.197	-87.89
603.399	336.04
603.601	170.15
603.804	-44.88
604.006	-112.47
604.208	135.34
604.41	-165.71
604.613	47.27
604.815	-130.9
605.017	751.78
605.219	20.65
605.421	186.54
605.623	-57.17
605.826	516.26
606.028	514.21
606.23	-116.56
606.432	-96.08
606.634	559.27
606.836	368.81
607.038	-198.48
607.24	98.47
607.442	221.35
607.644	190.63
607.846	2.22
608.048	-110.42
608.25	434.34
608.452	86.19
608.654	-53.08
608.856	-214.87
609.058	151.72
609.26	219.3
609.462	90.28
609.664	-40.79
609.866	596.13
610.067	446.63
610.269	161.96
610.471	-135
610.673	90.28
610.875	434.34
611.077	-178
611.278	0.17
611.48	278.69
611.682	553.12
611.884	59.56
612.085	-16.21
612.287	-14.17
612.489	319.65
612.69	-223.06
612.892	-102.23
613.094	417.96
613.295	301.22
613.497	-155.47
613.699	14.51
613.9	534.69
614.102	409.76
614.304	-32.6
614.505	-239.44
614.707	213.16
614.908	139.43
615.11	-241.49
615.311	-83.8
615.513	377
615.714	409.76
615.916	-161.62
616.117	-42.84
616.319	108.71
616.52	473.25
616.722	-42.84
616.923	-69.46
617.124	483.49
617.326	256.17
617.527	82.09
617.729	170.15
617.93	426.15
618.131	379.04
618.333	-42.84
618.534	6.31
618.735	8.36
618.937	661.66
619.138	-100.18
619.339	-83.8
619.54	254.12
619.742	153.77
619.943	125.1
620.144	-34.64
620.345	389.28
620.546	372.9
620.748	-147.28
620.949	-30.55
621.15	227.5
621.351	262.31
621.552	-32.6
621.753	-173.91
621.954	-137.04
622.155	725.15
622.356	-165.71
622.558	71.85
622.759	121
622.96	553.12
623.161	37.03
623.362	-5.97
623.563	282.79
623.764	233.64
623.965	-3.93
624.166	149.67
624.366	123.05
624.567	190.63
624.768	-282.45
624.969	24.75
625.17	166.06
625.371	399.52
625.572	39.08
625.773	-153.43
625.973	442.53
626.174	385.19
626.375	57.51
626.576	-28.5
626.777	319.65
626.977	809.12
627.178	-108.37
627.379	96.43
627.58	211.11
627.78	237.74
627.981	94.38
628.182	63.66
628.382	471.2
628.583	-59.22
628.784	-100.18
628.984	188.58
629.185	331.94
629.386	506.02
629.586	-5.97
629.787	-137.04
629.987	354.47
630.188	270.5
630.388	-61.27
630.589	80.04
630.79	827.55
630.99	272.55
631.191	75.95
631.391	80.04
631.591	460.96
631.792	637.09
631.992	147.62
632.193	-16.21
632.393	649.38
632.594	245.93
632.794	-75.6
632.994	118.95
633.195	284.84
633.395	229.54
633.595	-38.74
633.796	260.26
633.996	145.58
634.196	567.46
634.397	-126.8
634.597	98.47
634.797	63.66
634.997	575.65
635.198	227.5
635.398	-135
635.598	348.33
635.798	620.71
635.998	426.15
636.199	-63.32
636.399	164.01
636.599	90.28
636.799	59.56
636.999	211.11
637.199	426.15
637.399	514.21
637.599	28.84
637.799	178.34
637.999	231.59
638.199	635.04
638.399	-171.86
638.599	26.79
638.799	379.04
638.999	710.82
639.199	139.43
639.399	135.34
639.599	686.24
639.799	-34.64
639.999	-48.98
640.199	-42.84
640.399	344.23
640.599	420
640.799	125.1
640.998	260.26
641.198	534.69
641.398	495.78
641.598	129.19
641.798	61.61
641.997	1140.89
642.197	268.45
642.397	90.28
642.597	-18.26
642.796	372.9
642.996	604.32
643.196	207.02
643.395	28.84
643.595	362.66
643.795	-165.71
643.994	32.94
644.194	53.42
644.394	436.39
644.593	409.76
644.793	-120.66
644.992	178.34
645.192	438.44
645.392	-132.95
645.591	192.68
645.791	49.32
645.99	420
646.19	209.06
646.389	108.71
646.589	188.58
646.788	444.58
646.987	307.37
647.187	317.61
647.386	276.65
647.586	252.07
647.785	555.17
647.984	159.91
648.184	161.96
648.383	139.43
648.582	145.58
648.782	80.04
648.981	196.78
649.18	196.78
649.38	342.18
649.579	88.23
649.778	34.99
649.977	460.96
650.177	352.42
650.376	24.75
650.575	10.41
650.774	663.71
650.973	118.95
651.173	-161.62
651.372	159.91
651.571	340.13
651.77	508.07
651.969	45.23
652.168	149.67
652.367	43.18
652.566	434.34
652.765	53.42
652.964	247.97
653.163	774.3
653.362	280.74
653.561	80.04
653.76	131.24
653.959	223.4
654.158	395.43
654.357	252.07
654.556	116.9
654.755	467.11
654.954	485.54
655.153	77.99
655.352	143.53
655.551	622.75
655.749	98.47
655.948	164.01
656.147	207.02
656.346	391.33
656.545	239.78
656.743	209.06
656.942	200.87
657.141	372.9
657.34	118.95
657.538	129.19
657.737	118.95
657.936	141.48
658.135	432.29
658.333	84.14
658.532	129.19
658.731	815.26
658.929	503.97
659.128	389.28
659.326	67.75
659.525	688.29
659.724	286.89
659.922	-118.61
660.121	-18.26
660.319	395.43
660.518	104.62
660.716	12.46
660.915	2.22
661.113	643.23
661.312	34.99
661.51	252.07
661.709	-48.98
661.907	397.48
662.105	735.39
662.304	18.6
662.502	149.67
662.701	676
662.899	155.82
663.097	411.81
663.296	75.95
663.494	598.18
663.692	690.34
663.891	20.65
664.089	-10.07
664.287	440.48
664.485	657.57
664.684	-8.02
664.882	223.4
665.08	352.42
665.278	409.76
665.476	43.18
665.675	397.48
665.873	817.31
666.071	630.95
666.269	65.71
666.467	403.62
666.665	309.41
666.863	362.66
667.061	207.02
667.259	110.76
667.457	333.99
667.655	481.44
667.853	12.46
668.051	194.73
668.249	143.53
668.447	458.92
668.645	57.51
668.843	202.92
669.041	479.4
669.239	346.28
669.437	204.97
669.635	241.83
669.833	247.97
670.031	497.83
670.229	276.65
670.426	284.84
670.624	211.11
670.822	190.63
671.02	129.19
671.218	262.31
671.415	121
671.613	399.52
671.811	270.5
672.009	174.25
672.206	538.79
672.404	309.41
672.602	420
672.799	233.64
672.997	417.96
673.195	608.42
673.392	270.5
673.59	4.27
673.788	596.13
673.985	8.36
674.183	276.65
674.38	170.15
674.578	506.02
674.775	233.64
674.973	88.23
675.17	-14.17
675.368	673.95
675.565	428.2
675.763	135.34
675.96	55.47
676.158	667.81
676.355	301.22
676.553	215.21
676.75	86.19
676.947	333.99
677.145	366.76
677.342	190.63
677.539	209.06
677.737	387.24
677.934	899.23
678.131	358.57
678.329	180.39
678.526	809.12
678.723	499.88
678.92	252.07
679.118	178.34
679.315	80.04
679.512	733.34
679.709	133.29
679.906	155.82
680.104	630.95
680.301	575.65
680.498	32.94
680.695	51.37
680.892	166.06
681.089	180.39
681.286	223.4
681.483	2.22
681.68	518.31
681.877	573.6
682.075	114.86
682.272	331.94
682.469	403.62
682.665	272.55
682.862	114.86
683.059	-57.17
683.256	499.88
683.453	389.28
683.65	350.37
683.847	207.02
684.044	362.66
684.241	151.72
684.438	284.84
684.635	129.19
684.831	811.17
685.028	862.37
685.225	239.78
685.422	293.03
685.619	460.96
685.815	428.2
686.012	274.6
686.209	311.46
686.405	106.67
686.602	604.32
686.799	18.6
686.996	90.28
687.192	145.58
687.389	891.04
687.586	84.14
687.782	192.68
687.979	739.49
688.175	649.38
688.372	237.74
688.568	172.2
688.765	280.74
688.962	694.43
689.158	268.45
689.355	-34.64
689.551	628.9
689.748	262.31
689.944	288.93
690.14	39.08
690.337	602.27
690.533	280.74
690.73	364.71
690.926	204.97
691.123	602.27
691.319	444.58
691.515	80.04
691.712	430.24
691.908	579.75
692.104	514.21
692.301	307.37
692.497	82.09
692.693	592.03
692.889	612.51
693.086	276.65
693.282	-1.88
693.478	424.1
693.674	800.93
693.87	182.44
694.067	22.7
694.263	563.36
694.459	329.89
694.655	362.66
694.851	331.94
695.047	481.44
695.243	561.31
695.439	333.99
695.635	137.38
695.831	532.64
696.027	422.05
696.224	188.58
696.42	534.69
696.615	645.28
696.811	559.27
697.007	-1.88
697.203	170.15
697.399	522.4
697.595	735.39
697.791	155.82
697.987	346.28
698.183	143.53
698.379	252.07
698.575	241.83
698.77	155.82
698.966	579.75
699.162	753.82
699.358	272.55
699.554	254.12
699.749	555.17
699.945	737.44
700.141	366.76
700.337	276.65
700.532	415.91
700.728	254.12
700.924	221.35
701.119	166.06
701.315	518.31
701.511	415.91
701.706	366.76
701.902	61.61
702.097	491.68
702.293	622.75
702.489	215.21
702.684	231.59
702.88	354.47
703.075	254.12
703.271	188.58
703.466	129.19
703.662	463.01
703.857	555.17
704.053	207.02
704.248	280.74
704.443	620.71
704.639	499.88
704.834	256.17
705.03	151.72
705.225	643.23
705.42	788.64
705.616	385.19
705.811	43.18
706.006	348.33
706.202	325.8
706.397	284.84
706.592	88.23
706.787	401.57
706.983	432.29
707.178	489.64
707.373	243.88
707.568	684.19
707.763	714.91
707.959	157.86
708.154	190.63
708.349	526.5
708.544	489.64
708.739	456.87
708.934	92.33
709.129	612.51
709.324	653.47
709.519	166.06
709.714	129.19
709.909	684.19
710.104	596.13
710.299	231.59
710.494	307.37
710.689	577.7
710.884	499.88
711.079	417.96
711.274	506.02
711.469	587.94
711.664	575.65
711.859	178.34
712.054	407.72
712.249	723.1
712.443	805.02
712.638	92.33
712.833	116.9
713.028	450.72
713.223	374.95
713.417	477.35
713.612	247.97
713.807	592.03
714.002	1122.46
714.196	401.57
714.391	266.41
714.586	696.48
714.78	372.9
714.975	262.31
715.17	260.26
715.364	342.18
715.559	671.9
715.754	-71.51
715.948	114.86
716.143	909.47
716.337	446.63
716.532	514.21
716.726	196.78
716.921	553.12
717.115	893.09
717.31	94.38
717.504	776.35
717.699	311.46
717.893	630.95
718.088	161.96
718.282	131.24
718.476	506.02
718.671	557.22
718.865	223.4
719.059	164.01
719.254	446.63
719.448	805.02
719.642	1405.08
719.837	71.85
720.031	575.65
720.225	710.82
720.419	434.34
720.614	256.17
720.808	671.9
721.002	463.01
721.196	243.88
721.39	217.26
721.585	745.63
721.779	530.59
721.973	282.79
722.167	80.04
722.361	551.07
722.555	843.93
722.749	213.16
722.943	164.01
723.137	217.26
723.331	555.17
723.525	159.91
723.719	190.63
723.913	600.23
724.107	807.07
724.301	153.77
724.495	374.95
724.689	940.19
724.883	819.36
725.077	217.26
725.271	211.11
725.465	819.36
725.659	350.37
725.853	254.12
726.046	108.71
726.24	247.97
726.434	649.38
726.628	239.78
726.822	313.51
727.015	790.69
727.209	893.09
727.403	336.04
727.596	45.23
727.79	714.91
727.984	704.67
728.177	258.21
728.371	350.37
728.565	714.91
728.758	155.82
728.952	231.59
729.146	166.06
729.339	743.58
729.533	327.85
729.726	192.68
729.92	241.83
730.113	759.97
730.307	514.21
730.5	227.5
730.694	188.58
730.887	483.49
731.081	651.42
731.274	204.97
731.468	301.22
731.661	477.35
731.854	370.85
732.048	245.93
732.241	63.66
732.435	256.17
732.628	524.45
732.821	282.79
733.014	239.78
733.208	276.65
733.401	712.86
733.594	299.17
733.788	252.07
733.981	833.69
734.174	467.11
734.367	209.06
734.56	366.76
734.754	729.25
734.947	493.73
735.14	145.58
735.333	247.97
735.526	702.62
735.719	293.03
735.912	94.38
736.105	145.58
736.298	538.79
736.491	358.57
736.684	196.78
736.877	239.78
737.07	604.32
737.263	723.1
737.456	213.16
737.649	196.78
737.842	417.96
738.035	506.02
738.228	360.61
738.421	358.57
738.614	809.12
738.807	694.43
739	131.24
739.192	47.27
739.385	524.45
739.578	743.58
739.771	508.07
739.964	278.69
740.156	571.55
740.349	399.52
740.542	383.14
740.735	110.76
740.927	147.62
741.12	303.27
741.313	164.01
741.505	321.7
741.698	536.74
741.891	559.27
742.083	338.09
742.276	247.97
742.468	456.87
742.661	426.15
742.854	280.74
743.046	180.39
743.239	893.09
743.431	333.99
743.624	366.76
743.816	69.8
744.009	452.77
744.201	565.41
744.393	485.54
744.586	139.43
744.778	862.37
744.971	522.4
745.163	280.74
745.355	260.26
745.548	479.4
745.74	424.1
745.932	346.28
746.125	178.34
746.317	1054.87
746.509	549.03
746.702	325.8
746.894	370.85
747.086	573.6
747.278	739.49
747.471	385.19
747.663	344.23
747.855	583.84
748.047	770.21
748.239	219.3
748.431	239.78
748.623	962.72
748.815	856.22
749.008	149.67
749.2	239.78
749.392	702.62
749.584	600.23
749.776	252.07
749.968	399.52
750.16	927.9
750.352	448.68
750.544	385.19
750.736	213.16
750.928	639.14
751.12	469.16
751.311	303.27
751.503	305.32
751.695	600.23
751.887	456.87
752.079	49.32
752.271	258.21
752.463	1296.53
752.654	723.1
752.846	340.13
753.038	319.65
753.23	381.09
753.421	618.66
753.613	348.33
753.805	485.54
753.997	796.83
754.188	712.86
754.38	346.28
754.572	321.7
754.763	397.48
754.955	686.24
755.146	235.69
755.338	403.62
755.53	567.46
755.721	448.68
755.913	262.31
756.104	88.23
756.296	506.02
756.487	716.96
756.679	149.67
756.87	313.51
757.062	407.72
757.253	624.8
757.445	229.54
757.636	469.16
757.827	436.39
758.019	1044.63
758.21	53.42
758.401	311.46
758.593	1054.87
758.784	768.16
758.975	178.34
759.167	215.21
759.358	610.47
759.549	710.82
759.74	278.69
759.932	180.39
760.123	882.85
760.314	362.66
760.505	370.85
760.696	301.22
760.888	960.67
761.079	385.19
761.27	194.73
761.461	145.58
761.652	907.42
761.843	432.29
762.034	215.21
762.225	508.07
762.416	428.2
762.607	465.06
762.798	311.46
762.989	266.41
763.18	1206.42
763.371	340.13
763.562	250.02
763.753	301.22
763.944	696.48
764.135	723.1
764.326	448.68
764.517	354.47
764.708	579.75
764.899	614.56
765.089	198.82
765.28	57.51
765.471	575.65
765.662	669.86
765.853	426.15
766.043	86.19
766.234	745.63
766.425	725.15
766.615	219.3
766.806	108.71
766.997	858.27
767.187	559.27
767.378	190.63
767.569	32.94
767.759	690.34
767.95	506.02
768.141	377
768.331	231.59
768.522	528.55
768.712	704.67
768.903	250.02
769.093	157.86
769.284	915.61
769.474	594.08
769.665	202.92
769.855	43.18
770.046	620.71
770.236	446.63
770.426	417.96
770.617	133.29
770.807	583.84
770.998	409.76
771.188	409.76
771.378	121
771.569	704.67
771.759	571.55
771.949	194.73
772.139	10.41
772.33	606.37
772.52	858.27
772.71	188.58
772.9	174.25
773.09	997.53
773.281	768.16
773.471	223.4
773.661	200.87
773.851	751.78
774.041	350.37
774.231	186.54
774.421	346.28
774.611	989.34
774.802	559.27
774.992	315.56
775.182	194.73
775.372	520.35
775.562	727.2
775.752	213.16
775.942	237.74
776.131	817.31
776.321	676
776.511	235.69
776.701	229.54
776.891	698.53
777.081	346.28
777.271	346.28
777.461	215.21
777.651	659.62
777.84	821.41
778.03	352.42
778.22	243.88
778.41	796.83
778.599	276.65
778.789	383.14
778.979	202.92
779.169	555.17
779.358	506.02
779.548	495.78
779.738	63.66
779.927	540.83
780.117	307.37
780.307	274.6
780.496	-81.75
780.686	608.42
780.875	899.23
781.065	278.69
781.254	288.93
781.444	483.49
781.633	600.23
781.823	209.06
782.012	182.44
782.202	377
782.391	501.92
782.581	96.43
782.77	370.85
782.96	710.82
783.149	483.49
783.338	213.16
783.528	114.86
783.717	755.87
783.906	825.5
784.096	409.76
784.285	164.01
784.474	401.57
784.663	235.69
784.853	342.18
785.042	303.27
785.231	444.58
785.42	727.2
785.61	348.33
785.799	219.3
785.988	438.44
786.177	446.63
786.366	333.99
786.555	333.99
786.744	723.1
786.933	346.28
787.122	174.25
787.312	219.3
787.501	397.48
787.69	567.46
787.879	247.97
788.068	202.92
788.257	200.87
788.445	374.95
788.634	270.5
788.823	157.86
789.012	1093.79
789.201	878.75
789.39	311.46
789.579	149.67
789.768	483.49
789.957	565.41
790.145	204.97
790.334	32.94
790.523	536.74
790.712	422.05
790.9	360.61
791.089	104.62
791.278	659.62
791.467	522.4
791.655	491.68
791.844	651.42
792.033	336.04
792.221	407.72
792.41	366.76
792.599	41.13
792.787	676
792.976	688.29
793.164	118.95
793.353	186.54
793.541	721.06
793.73	557.22
793.918	340.13
794.107	252.07
794.295	540.83
794.484	542.88
794.672	280.74
794.861	211.11
795.049	616.61
795.238	917.66
795.426	116.9
795.614	374.95
795.803	567.46
795.991	886.94
796.179	245.93
796.368	295.08
796.556	825.5
796.744	209.06
796.932	131.24
797.121	188.58
797.309	399.52
797.497	721.06
797.685	254.12
797.874	237.74
798.062	440.48
798.25	762.02
798.438	145.58
798.626	245.93
798.814	655.52
799.002	942.24
799.19	440.48
799.378	264.36
799.566	714.91
799.755	850.08
799.943	438.44
800.131	186.54
800.318	598.18
800.506	655.52
800.694	170.15
800.882	331.94
801.07	841.89
801.258	446.63
801.446	243.88
801.634	182.44
801.822	571.55
802.01	483.49
802.197	184.49
802.385	368.81
802.573	567.46
802.761	381.09
802.949	325.8
803.136	30.89
803.324	862.37
803.512	516.26
803.699	333.99
803.887	71.85
804.075	940.19
804.262	469.16
804.45	155.82
804.638	352.42
804.825	293.03
805.013	389.28
805.201	272.55
805.388	94.38
805.576	465.06
805.763	884.89
805.951	215.21
806.138	409.76
806.326	942.24
806.513	630.95
806.701	303.27
806.888	202.92
807.075	579.75
807.263	966.81
807.45	155.82
807.638	374.95
807.825	878.75
808.012	706.72
808.2	268.45
808.387	501.92
808.574	571.55
808.761	899.23
808.949	178.34
809.136	346.28
809.323	323.75
809.51	460.96
809.698	526.5
809.885	465.06
810.072	592.03
810.259	710.82
810.446	254.12
810.633	209.06
810.82	735.39
811.008	858.27
811.195	354.47
811.382	377
811.569	563.36
811.756	268.45
811.943	348.33
812.13	186.54
812.317	383.14
812.504	399.52
812.691	288.93
812.878	444.58
813.064	942.24
813.251	463.01
813.438	106.67
813.625	379.04
813.812	575.65
813.999	395.43
814.186	239.78
814.372	331.94
814.559	567.46
814.746	768.16
814.933	299.17
815.12	374.95
815.306	391.33
815.493	280.74
815.68	295.08
815.866	350.37
816.053	884.89
816.24	1083.55
816.426	293.03
816.613	108.71
816.799	673.95
816.986	833.69
817.173	213.16
817.359	256.17
817.546	667.81
817.732	141.48
817.919	16.55
818.105	424.1
818.292	420
818.478	716.96
818.665	432.29
818.851	276.65
819.037	1124.51
819.224	581.79
819.41	202.92
819.597	288.93
819.783	993.44
819.969	622.75
820.156	317.61
820.342	243.88
820.528	1243.29
820.714	473.25
820.901	493.73
821.087	323.75
821.273	870.56
821.459	430.24
821.646	247.97
821.832	297.13
822.018	501.92
822.204	608.42
822.39	309.41
822.576	133.29
822.762	641.18
822.948	524.45
823.134	506.02
823.32	377
823.507	329.89
823.693	680.1
823.879	770.21
824.065	235.69
824.25	649.38
824.436	315.56
824.622	268.45
824.808	168.1
824.994	485.54
825.18	288.93
825.366	198.82
825.552	293.03
825.738	405.67
825.923	759.97
826.109	522.4
826.295	207.02
826.481	342.18
826.667	430.24
826.852	395.43
827.038	209.06
827.224	768.16
827.409	975
827.595	143.53
827.781	524.45
827.966	827.55
828.152	749.73
828.338	247.97
828.523	129.19
828.709	405.67
828.894	917.66
829.08	313.51
829.266	268.45
829.451	379.04
829.637	725.15
829.822	362.66
830.008	245.93
830.193	794.78
830.378	878.75
830.564	333.99
830.749	225.45
830.935	708.77
831.12	729.25
831.305	241.83
831.491	448.68
831.676	293.03
831.861	751.78
832.047	379.04
832.232	129.19
832.417	825.5
832.602	526.5
832.788	280.74
832.973	252.07
833.158	481.44
833.343	585.89
833.528	385.19
833.714	387.24
833.899	688.29
834.084	1052.83
834.269	487.59
834.454	350.37
834.639	776.35
834.824	538.79
835.009	417.96
835.194	426.15
835.379	690.34
835.564	923.8
835.749	358.57
835.934	223.4
836.119	749.73
836.304	559.27
836.489	278.69
836.674	493.73
836.859	303.27
837.044	880.8
837.228	286.89
837.413	129.19
837.598	594.08
837.783	770.21
837.968	336.04
838.152	88.23
838.337	137.38
838.522	788.64
838.707	733.34
838.891	508.07
839.076	622.75
839.261	843.93
839.445	407.72
839.63	360.61
839.815	899.23
839.999	473.25
840.184	247.97
840.368	243.88
840.553	714.91
840.737	788.64
840.922	213.16
841.106	118.95
841.291	250.02
841.475	499.88
841.66	225.45
841.844	354.47
842.029	1241.24
842.213	350.37
842.397	264.36
842.582	202.92
842.766	831.65
842.951	745.63
843.135	198.82
843.319	366.76
843.504	606.37
843.688	743.58
843.872	135.34
844.056	186.54
844.241	635.04
844.425	532.64
844.609	432.29
844.793	82.09
844.977	762.02
845.161	673.95
845.346	47.27
845.53	237.74
845.714	549.03
845.898	932
846.082	114.86
846.266	147.62
846.45	565.41
846.634	632.99
846.818	161.96
847.002	409.76
847.186	698.53
847.37	260.26
847.554	157.86
847.738	463.01
847.922	483.49
848.106	692.38
848.29	293.03
848.473	293.03
848.657	729.25
848.841	491.68
849.025	293.03
849.209	88.23
849.392	694.43
849.576	540.83
849.76	51.37
849.944	368.81
850.127	811.17
850.311	190.63
850.495	213.16
850.678	96.43
850.862	692.38
851.046	934.04
851.229	473.25
851.413	196.78
851.596	581.79
851.78	514.21
851.964	434.34
852.147	256.17
852.331	1235.1
852.514	776.35
852.698	479.4
852.881	172.2
853.065	860.32
853.248	477.35
853.431	465.06
853.615	428.2
853.798	1058.97
853.982	587.94
854.165	391.33
854.348	280.74
854.532	309.41
854.715	387.24
854.898	391.33
855.081	239.78
855.265	893.09
855.448	1058.97
855.631	266.41
855.814	225.45
855.997	839.84
856.181	475.3
856.364	372.9
856.547	200.87
856.73	649.38
856.913	483.49
857.096	139.43
857.279	323.75
857.462	362.66
857.645	649.38
857.828	393.38
858.011	413.86
858.194	422.05
858.377	759.97
858.56	125.1
858.743	290.98
858.926	364.71
859.109	667.81
859.292	264.36
859.475	141.48
859.658	874.65
859.841	653.47
860.023	88.23
860.206	223.4
860.389	612.51
860.572	866.46
860.755	262.31
860.937	377
861.12	510.11
861.303	518.31
861.486	325.8
861.668	186.54
861.851	749.73
862.034	653.47
862.216	432.29
862.399	178.34
862.581	714.91
862.764	997.53
862.947	336.04
863.129	278.69
863.312	293.03
863.494	899.23
863.677	604.32
863.859	39.08
864.042	735.39
864.224	786.59
864.406	370.85
864.589	108.71
864.771	706.72
864.954	346.28
865.136	211.11
865.318	47.27
865.501	647.33
865.683	118.95
865.865	174.25
866.048	229.54
866.23	680.1
866.412	563.36
866.594	161.96
866.777	448.68
866.959	696.48
867.141	420
867.323	514.21
867.505	403.62
867.687	510.11
867.869	536.74
868.052	323.75
868.234	266.41
868.416	579.75
868.598	661.66
868.78	233.64
868.962	153.77
869.144	737.44
869.326	723.1
869.508	168.1
869.69	250.02
869.872	354.47
870.054	786.59
870.236	116.9
870.417	280.74
870.599	463.01
870.781	864.41
870.963	391.33
871.145	260.26
871.327	389.28
871.508	682.14
871.69	317.61
871.872	344.23
872.054	473.25
872.235	581.79
872.417	424.1
872.599	121
872.78	942.24
872.962	620.71
873.144	127.14
873.325	243.88
873.507	843.93
873.689	637.09
873.87	227.5
874.052	254.12
874.233	483.49
874.415	684.19
874.596	288.93
874.778	202.92
874.959	385.19
875.141	729.25
875.322	348.33
875.503	194.73
875.685	702.62
875.866	118.95
876.048	219.3
876.229	80.04
876.41	444.58
876.592	594.08
876.773	209.06
876.954	73.9
877.136	874.65
877.317	442.53
877.498	182.44
877.679	358.57
877.86	770.21
878.042	573.6
878.223	215.21
878.404	592.03
878.585	546.98
878.766	886.94
878.947	512.16
879.128	442.53
879.309	649.38
879.49	708.77
879.672	202.92
879.853	280.74
880.034	348.33
880.215	454.82
880.396	362.66
880.576	186.54
880.757	317.61
880.938	788.64
881.119	157.86
881.3	204.97
881.481	377
881.662	1312.92
881.843	131.24
882.023	86.19
882.204	510.11
882.385	620.71
882.566	233.64
882.747	135.34
882.927	526.5
883.108	594.08
883.289	178.34
883.469	495.78
883.65	401.57
883.831	571.55
884.011	415.91
884.192	168.1
884.373	829.6
884.553	637.09
884.734	526.5
884.914	602.27
885.095	1165.46
885.275	972.96
885.456	565.41
885.636	139.43
885.817	422.05
885.997	534.69
886.178	286.89
886.358	272.55
886.538	702.62
886.719	1540.24
886.899	200.87
887.08	317.61
887.26	800.93
887.44	301.22
887.621	157.86
887.801	387.24
887.981	1124.51
888.161	772.25
888.342	331.94
888.522	299.17
888.702	817.31
888.882	735.39
889.062	362.66
889.242	96.43
889.423	956.57
889.603	696.48
889.783	430.24
889.963	268.45
890.143	698.53
890.323	796.83
890.503	174.25
890.683	288.93
890.863	491.68
891.043	587.94
891.223	354.47
891.403	520.35
891.583	632.99
891.763	561.31
891.943	297.13
892.122	227.5
892.302	538.79
892.482	438.44
892.662	417.96
892.842	315.56
893.022	598.18
893.201	346.28
893.381	569.51
893.561	278.69
893.741	641.18
893.92	563.36
894.1	456.87
894.28	393.38
894.459	780.45
894.639	735.39
894.819	311.46
894.998	420
895.178	538.79
895.357	598.18
895.537	161.96
895.716	223.4
895.896	575.65
896.075	884.89
896.255	252.07
896.434	106.67
896.614	719.01
896.793	845.98
896.973	430.24
897.152	393.38
897.331	647.33
897.511	796.83
897.69	252.07
897.87	497.83
898.049	723.1
898.228	651.42
898.407	526.5
898.587	411.81
898.766	420
898.945	749.73
899.124	553.12
899.304	456.87
899.483	665.76
899.662	956.57
899.841	319.65
900.02	309.41
900.199	895.13
900.378	596.13
900.557	233.64
900.737	323.75
900.916	751.78
901.095	809.12
901.274	614.56
901.453	256.17
901.632	348.33
901.811	381.09
901.989	305.32
902.168	219.3
902.347	714.91
902.526	465.06
902.705	364.71
902.884	399.52
903.063	932
903.242	940.19
903.42	202.92
903.599	409.76
903.778	768.16
903.957	975
904.135	522.4
904.314	399.52
904.493	612.51
904.672	678.05
904.85	358.57
905.029	387.24
905.207	745.63
905.386	1337.49
905.565	272.55
905.743	319.65
905.922	526.5
906.1	792.73
906.279	170.15
906.457	274.6
906.636	438.44
906.814	524.45
906.993	344.23
907.171	270.5
907.35	696.48
907.528	854.17
907.707	499.88
907.885	196.78
908.063	1054.87
908.242	415.91
908.42	383.14
908.598	180.39
908.777	624.8
908.955	540.83
909.133	469.16
909.311	241.83
909.49	538.79
909.668	567.46
909.846	321.7
910.024	116.9
910.202	624.8
910.38	753.82
910.559	217.26
910.737	342.18
910.915	694.43
911.093	632.99
911.271	309.41
911.449	497.83
911.627	768.16
911.805	1106.07
911.983	333.99
912.161	303.27
912.339	700.58
912.517	964.76
912.695	456.87
912.872	297.13
913.05	383.14
913.228	673.95
913.406	290.98
913.584	309.41
913.762	749.73
913.939	450.72
914.117	311.46
914.295	301.22
914.473	710.82
914.65	573.6
914.828	350.37
915.006	395.43
915.184	286.89
915.361	745.63
915.539	428.2
915.716	452.77
915.894	622.75
916.072	800.93
916.249	438.44
916.427	407.72
916.604	430.24
916.782	708.77
916.959	178.34
917.137	346.28
917.314	557.22
917.492	721.06
917.669	465.06
917.847	442.53
918.024	708.77
918.201	489.64
918.379	415.91
918.556	442.53
918.733	766.11
918.911	477.35
919.088	577.7
919.265	274.6
919.442	606.37
919.62	499.88
919.797	170.15
919.974	264.36
920.151	592.03
920.328	583.84
920.506	305.32
920.683	559.27
920.86	297.13
921.037	327.85
921.214	432.29
921.391	379.04
921.568	706.72
921.745	381.09
921.922	344.23
922.099	200.87
922.276	796.83
922.453	575.65
922.63	297.13
922.807	661.66
922.984	495.78
923.161	516.26
923.338	295.08
923.514	172.2
923.691	518.31
923.868	641.18
924.045	254.12
924.222	202.92
924.399	567.46
924.575	669.86
924.752	350.37
924.929	377
925.105	600.23
925.282	315.56
925.459	403.62
925.635	301.22
925.812	465.06
925.989	391.33
926.165	329.89
926.342	174.25
926.518	307.37
926.695	506.02
926.871	151.72
927.048	41.13
927.224	714.91
927.401	333.99
927.577	360.61
927.754	233.64
927.93	751.78
928.107	673.95
928.283	194.73
928.459	366.76
928.636	657.57
928.812	489.64
928.988	186.54
929.165	225.45
929.341	475.3
929.517	551.07
929.693	561.31
929.87	98.47
930.046	587.94
930.222	391.33
930.398	186.54
930.574	358.57
930.751	481.44
930.927	315.56
931.103	221.35
931.279	364.71
931.455	346.28
931.631	540.83
931.807	47.27
931.983	145.58
932.159	190.63
932.335	473.25
932.511	215.21
932.687	293.03
932.863	592.03
933.039	567.46
933.215	51.37
933.391	34.99
933.566	454.82
933.742	520.35
933.918	235.69
934.094	92.33
934.27	501.92
934.445	481.44
934.621	264.36
934.797	178.34
934.973	632.99
935.148	592.03
935.324	157.86
935.5	51.37
935.675	653.47
935.851	557.22
936.027	239.78
936.202	231.59
936.378	530.59
936.553	379.04
936.729	530.59
936.904	145.58
937.08	207.02
937.255	309.41
937.431	100.52
937.606	47.27
937.782	284.84
937.957	495.78
938.133	252.07
938.308	159.91
938.483	346.28
938.659	141.48
938.834	219.3
939.009	41.13
939.185	321.7
939.36	198.82
939.535	-255.83
939.71	204.97
939.886	585.89
940.061	506.02
940.236	356.52
940.411	110.76
940.586	399.52
940.761	530.59
940.937	176.3
941.112	47.27
941.287	293.03
941.462	327.85
941.637	-69.46
941.812	94.38
941.987	473.25
942.162	333.99
942.337	184.49
942.512	92.33
942.687	493.73
942.862	481.44
943.037	-91.99
943.212	-157.52
943.386	200.87
943.561	383.14
943.736	301.22
943.911	354.47
944.086	319.65
944.26	284.84
944.435	57.51
944.61	211.11
944.785	686.24
944.959	811.17
945.134	168.1
945.309	18.6
945.483	108.71
945.658	577.7
945.833	-128.85
946.007	-106.32
946.182	710.82
946.357	41.13
946.531	65.71
946.706	-71.51
946.88	-83.8
947.055	395.43
947.229	-8.02
947.404	37.03
947.578	485.54
947.752	164.01
947.927	-36.69
948.101	-137.04
948.276	336.04
948.45	346.28
948.624	209.06
948.799	-42.84
948.973	362.66
949.147	0.17
949.321	174.25
949.496	39.08
949.67	592.03
949.844	123.05
950.018	-32.6
950.193	55.47
950.367	739.49
950.541	198.82
950.715	194.73
950.889	153.77
951.063	155.82
951.237	377
951.411	-178
951.585	-180.05
951.759	354.47
951.933	256.17
952.107	16.55
952.281	221.35
952.455	733.34
952.629	522.4
952.803	26.79
952.977	104.62
953.151	430.24
953.325	346.28
953.499	231.59
953.672	-120.66
953.846	55.47
954.02	168.1
954.194	-26.45
954.368	-73.56
954.541	397.48
954.715	209.06
954.889	96.43
955.062	-24.4
955.236	303.27
955.41	129.19
955.583	121
955.757	-108.37
955.93	221.35
956.104	47.27
956.278	-53.08
956.451	102.57
956.625	352.42
956.798	704.67
956.972	229.54
957.145	-34.64
957.319	223.4
957.492	190.63
957.665	186.54
957.839	-24.4
958.012	311.46
958.185	94.38
958.359	43.18
958.532	254.12
958.705	393.38
958.879	211.11
959.052	135.34
959.225	-112.47
959.398	264.36
959.572	409.76
959.745	-73.56
959.918	6.31
960.091	170.15
960.264	336.04
960.438	-104.28
960.611	-106.32
960.784	432.29
960.957	84.14
961.13	465.06
961.303	-98.13
961.476	190.63
961.649	551.07
961.822	-40.79
961.995	106.67
962.168	395.43
962.341	303.27
962.514	22.7
962.686	-8.02
962.859	286.89
963.032	350.37
963.205	-30.55
963.378	-116.56
963.551	379.04
963.723	215.21
963.896	198.82
964.069	153.77
964.242	215.21
964.414	473.25
964.587	100.52
964.76	141.48
964.932	325.8
965.105	245.93
965.278	30.89
965.45	-83.8
965.623	315.56
965.795	405.67
965.968	-18.26
966.14	43.18
966.313	141.48
966.485	321.7
966.658	6.31
966.83	32.94
967.003	493.73
967.175	333.99
967.348	43.18
967.52	59.56
967.692	565.41
967.865	247.97
968.037	57.51
968.209	260.26
968.382	217.26
968.554	420
968.726	77.99
968.898	-26.45
969.071	331.94
969.243	372.9
969.415	59.56
969.587	198.82
969.759	721.06
969.932	463.01
970.104	55.47
970.276	-239.44
970.448	133.29
970.62	92.33
970.792	47.27
970.964	94.38
971.136	723.1
971.308	387.24
971.48	-10.07
971.652	-10.07
971.824	616.61
971.996	88.23
972.168	129.19
972.339	80.04
972.511	465.06
972.683	219.3
972.855	280.74
973.027	59.56
973.199	268.45
973.37	377
973.542	209.06
973.714	180.39
973.886	241.83
974.057	446.63
974.229	-30.55
974.401	34.99
974.572	96.43
974.744	-145.24
974.915	-85.84
975.087	-83.8
975.259	637.09
975.43	141.48
975.602	67.75
975.773	-36.69
975.945	34.99
976.116	424.1
976.288	-65.36
976.459	161.96
976.63	139.43
976.802	325.8
976.973	-5.97
977.145	186.54
977.316	690.34
977.487	592.03
977.659	221.35
977.83	45.23
978.001	661.66
978.172	288.93
978.344	-79.7
978.515	88.23
978.686	71.85
978.857	563.36
979.028	96.43
979.2	-67.41
979.371	465.06
979.542	274.6
979.713	266.41
979.884	-354.13
980.055	69.8
980.226	188.58
980.397	-96.08
980.568	-128.85
980.739	532.64
980.91	221.35
981.081	198.82
981.252	-30.55
981.423	417.96
981.594	473.25
981.765	-42.84
981.936	96.43
982.106	196.78
982.277	481.44
982.448	-1.88
982.619	260.26
982.79	168.1
982.96	544.93
983.131	100.52
983.302	-147.28
983.472	102.57
983.643	315.56
983.814	125.1
983.984	-10.07
984.155	143.53
984.326	448.68
984.496	82.09
984.667	61.61
984.837	151.72
985.008	506.02
985.178	137.38
985.349	16.55
985.519	155.82
985.69	106.67
985.86	57.51
986.031	2.22
986.201	280.74
986.371	342.18
986.542	-40.79
986.712	-171.86
986.882	360.61
987.053	344.23
987.223	-104.28
987.393	219.3
987.563	110.76
987.734	370.85
987.904	303.27
988.074	-16.21
988.244	364.71
988.414	137.38
988.585	-132.95
988.755	98.47
988.925	180.39
989.095	608.42
989.265	-87.89
989.435	43.18
989.605	354.47
989.775	399.52
989.945	344.23
990.115	-157.52
990.285	268.45
990.455	245.93
990.625	170.15
990.795	-116.56
990.965	563.36
991.134	18.6
991.304	-106.32
991.474	-40.79
991.644	301.22
991.814	612.51
991.984	-91.99
992.153	-108.37
992.323	129.19
992.493	227.5
992.662	-227.15
992.832	125.1
993.002	311.46
993.171	336.04
993.341	-182.1
993.511	104.62
993.68	24.75
993.85	420
994.019	-186.19
994.189	-67.41
994.358	366.76
994.528	55.47
994.697	-200.53
994.867	-155.47
995.036	329.89
995.206	71.85
995.375	-108.37
995.544	96.43
995.714	227.5
995.883	166.06
996.052	28.84
996.222	-294.74
996.391	768.16
996.56	262.31
996.73	-94.04
996.899	-120.66
997.068	604.32
997.237	116.9
997.406	-116.56
997.576	-163.67
997.745	284.84
997.914	243.88
998.083	-249.68
998.252	-63.32
998.421	88.23
998.59	34.99
998.759	-218.96
998.928	-268.11
999.097	485.54
999.266	190.63
999.435	0.17
999.604	-335.7
999.773	641.18
999.942	141.48
1000.111	-243.54
1000.28	-304.98
1000.448	-30.55
1000.617	-85.84
1000.786	30.89
1000.955	-280.4
1001.124	233.64
1001.292	788.64
1001.461	-96.08
1001.63	-190.29
1001.798	557.22
1001.967	491.68
1002.136	-261.97
1002.304	-167.76
1002.473	235.69
1002.642	305.32
1002.81	-26.45
1002.979	-145.24
1003.147	323.75
1003.316	747.68
1003.484	-145.24
1003.653	-141.14
1003.821	524.45
1003.99	196.78
1004.158	-18.26
1004.327	-81.75
1004.495	262.31
1004.663	45.23
1004.832	49.32
1005	-286.54
1005.168	338.09
1005.337	229.54
1005.505	-274.26
1005.673	22.7
1005.842	229.54
1006.01	315.56
1006.178	-239.44
1006.346	-132.95
1006.514	323.75
1006.683	432.29
1006.851	-145.24
1007.019	-321.36
1007.187	-171.86
1007.355	-255.83
1007.523	-374.61
1007.691	-335.7
1007.859	-108.37
1008.027	438.44
1008.195	-141.14
1008.363	-247.63
1008.531	385.19
1008.699	-48.98
1008.867	-192.34
1009.035	-159.57
1009.203	389.28
1009.37	84.14
1009.538	-165.71
1009.706	231.59
1009.874	221.35
1010.042	96.43
1010.209	-165.71
1010.377	-182.1
1010.545	432.29
1010.713	137.38
1010.88	-218.96
1011.048	-124.76
1011.216	125.1
1011.383	551.07
1011.551	-204.63
1011.718	-186.19
1011.886	350.37
1012.054	137.38
1012.221	-212.82
1012.389	-268.11
1012.556	110.76
1012.724	577.7
1012.891	-161.62
1013.058	-329.55
1013.226	280.74
1013.393	327.85
1013.561	-264.02
1013.728	-358.22
1013.895	336.04
1014.063	211.11
1014.23	-317.26
1014.397	-245.59
1014.565	383.14
1014.732	139.43
1014.899	-155.47
1015.066	-241.49
1015.233	229.54
1015.401	223.4
1015.568	-104.28
1015.735	-57.17
1015.902	243.88
1016.069	258.21
1016.236	-171.86
1016.403	-264.02
1016.57	-46.93
1016.737	333.99
1016.904	-102.23
1017.071	-302.93
1017.238	10.41
1017.405	348.33
1017.572	-149.33
1017.739	63.66
1017.906	295.08
1018.073	379.04
1018.24	-223.06
1018.407	-186.19
1018.573	415.91
1018.74	92.33
1018.907	-124.76
1019.074	-323.41
1019.241	452.77
1019.407	219.3
1019.574	-227.15
1019.741	-319.31
1019.907	176.3
1020.074	278.69
1020.241	-335.7
1020.407	-200.53
1020.574	338.09
1020.74	235.69
1020.907	-198.48
1021.073	-194.39
1021.24	731.3
1021.406	497.83
1021.573	-253.78
1021.739	-206.67
1021.906	350.37
1022.072	106.67
1022.239	-169.81
1022.405	-251.73
1022.571	135.34
1022.738	-104.28
1022.904	-188.24
1023.07	-157.52
1023.237	182.44
1023.403	465.06
1023.569	-186.19
1023.735	-149.33
1023.902	243.88
1024.068	241.83
1024.234	-268.11
1024.4	-182.1
1024.566	225.45
1024.732	395.43
1024.898	-225.11
1025.065	-360.27
1025.231	391.33
1025.397	6.31
1025.563	-206.67
1025.729	-225.11
1025.895	-321.36
1026.061	-79.7
1026.227	-325.46
1026.392	-122.71
1026.558	428.2
1026.724	245.93
1026.89	-190.29
1027.056	-161.62
1027.222	411.81
1027.388	41.13
1027.553	-153.43
1027.719	-241.49
1027.885	567.46
1028.051	290.98
1028.216	-378.7
1028.382	-175.95
1028.548	372.9
1028.713	2.22
1028.879	-298.83
1029.045	-1.88
1029.21	438.44
1029.376	432.29
1029.541	-120.66
1029.707	-157.52
1029.873	379.04
1030.038	417.96
1030.204	-178
1030.369	-155.47
1030.534	348.33
1030.7	98.47
1030.865	-192.34
1031.031	-245.59
1031.196	276.65
1031.361	211.11
1031.527	-180.05
1031.692	-251.73
1031.857	-200.53
1032.023	268.45
1032.188	-231.25
1032.353	-145.24
1032.518	542.88
1032.684	211.11
1032.849	-233.3
1033.014	-167.76
1033.179	430.24
1033.344	268.45
1033.509	-108.37
1033.674	-261.97
1033.839	333.99
1034.004	278.69
1034.17	-171.86
1034.335	-288.59
1034.5	145.58
1034.664	182.44
1034.829	-153.43
1034.994	-161.62
1035.159	221.35
1035.324	241.83
1035.489	-135
1035.654	-206.67
1035.819	546.98
1035.984	278.69
1036.148	-85.84
1036.313	-190.29
1036.478	434.34
1036.643	221.35
1036.807	-231.25
1036.972	-206.67
1037.137	471.2
1037.301	196.78
1037.466	-343.89
1037.631	-143.19
1037.795	407.72
1037.96	270.5
1038.124	14.51
1038.289	-251.73
1038.454	432.29
1038.618	172.2
1038.783	-194.39
1038.947	-96.08
1039.111	293.03
1039.276	14.51
1039.44	-235.35
1039.605	211.11
1039.769	77.99
1039.933	194.73
1040.098	-112.47
1040.262	0.17
1040.426	358.57
1040.591	368.81
1040.755	-225.11
1040.919	-190.29
1041.083	340.13
1041.248	135.34
1041.412	-307.02
1041.576	-231.25
1041.74	149.67
1041.904	350.37
1042.068	-253.78
1042.232	-116.56
1042.397	444.58
1042.561	217.26
1042.725	-388.94
1042.889	41.13
1043.053	403.62
1043.217	288.93
1043.381	-110.42
1043.544	-253.78
1043.708	473.25
1043.872	-51.03
1044.036	-360.27
1044.2	-188.24
1044.364	491.68
1044.528	579.75
1044.691	3149.95
1044.855	-272.21
1045.019	424.1
1045.183	368.81
1045.346	-100.18
1045.51	-329.55
1045.674	358.57
1045.837	297.13
1046.001	-155.47
1046.165	-132.95
1046.328	702.62
1046.492	276.65
1046.655	24.75
1046.819	-108.37
1046.983	92.33
1047.146	315.56
1047.31	-206.67
1047.473	-253.78
1047.636	135.34
1047.8	0.17
1047.963	-118.61
1048.127	-165.71
1048.29	37.03
