Data from Ink_Intensity_USB4F045381__77__00077.txt Node

Date: Mon Jul 17 10:53:28 EDT 2023
User: mmckonesweet
Spectrometer: USB4F04538
Trigger mode: 4
Integration Time (sec): 9.000000E-1
Scans to average: 1
Electric dark correction enabled: true
Nonlinearity correction enabled: false
Boxcar width: 0
XAxis mode: Wavelengths
Number of Pixels in Spectrum: 3648
>>>>>Begin Spectral Data<<<<<
345.52	-983.54
345.736	-983.54
345.952	-983.54
346.168	-961.01
346.384	-965.11
346.6	-231.93
346.816	-240.12
347.032	-164.35
347.248	318.97
347.464	-240.12
347.68	-66.05
347.896	36.35
348.112	466.42
348.328	-88.57
348.544	-76.29
348.76	60.93
348.975	224.76
349.191	-246.27
349.407	-162.3
349.623	87.55
349.839	-0.51
350.055	-55.81
350.27	130.56
350.486	232.96
350.702	394.75
350.918	230.91
351.133	-102.91
351.349	212.48
351.565	519.67
351.781	-154.11
351.996	85.5
352.212	345.59
352.428	-59.9
352.644	-176.64
352.859	-111.1
353.075	290.3
353.291	218.62
353.506	19.97
353.722	-90.62
353.938	56.83
354.153	501.24
354.369	167.42
354.584	-135.68
354.8	310.78
355.016	-211.45
355.231	-256.51
355.447	7.68
355.662	259.58
355.878	851.44
356.093	-231.93
356.309	140.8
356.524	-104.96
356.74	286.2
356.955	-82.43
357.171	3.58
357.386	196.09
357.602	-248.32
357.817	17.92
358.033	-33.28
358.248	421.37
358.464	245.24
358.679	-51.71
358.895	-205.31
359.11	136.7
359.325	433.66
359.541	89.6
359.756	52.74
359.972	-166.4
360.187	280.06
360.402	-33.28
360.618	-10.75
360.833	1095.15
361.048	167.42
361.264	-33.28
361.479	52.74
361.694	42.5
361.909	278.01
362.125	-143.87
362.34	-33.28
362.555	241.15
362.77	85.5
362.986	-227.84
363.201	-66.05
363.416	323.07
363.631	120.32
363.847	-66.05
364.062	-33.28
364.277	341.5
364.492	173.57
364.707	-74.24
364.922	-301.56
365.138	419.32
365.353	478.71
365.568	-111.1
365.783	34.3
365.998	206.33
366.213	722.42
366.428	-104.96
366.643	181.76
366.858	347.64
367.073	341.5
367.288	-33.28
367.503	-104.96
367.718	179.71
367.933	443.9
368.148	-86.53
368.363	75.26
368.578	122.37
368.793	601.59
369.008	-61.95
369.223	-143.87
369.438	337.4
369.653	591.35
369.868	-156.16
370.083	-100.86
370.298	228.86
370.513	488.95
370.728	161.28
370.943	-23.04
371.157	-111.1
371.372	683.51
371.587	-160.25
371.802	-68.09
372.017	198.14
372.232	622.07
372.446	73.21
372.661	-162.3
372.876	302.59
373.091	306.68
373.306	77.31
373.52	-127.49
373.735	-82.43
373.95	574.97
374.165	-14.85
374.379	17.92
374.594	7.68
374.809	280.06
375.023	269.82
375.238	-84.48
375.453	435.71
375.667	-84.48
375.882	-0.51
376.097	-14.85
376.311	132.61
376.526	165.37
376.741	-72.19
376.955	278.01
377.17	638.45
377.384	671.22
377.599	101.89
377.813	-115.2
378.028	720.37
378.242	372.22
378.457	167.42
378.672	-90.62
378.886	341.5
379.101	89.6
379.315	-76.29
379.53	-37.38
379.744	456.19
379.958	484.86
380.173	52.74
380.387	52.74
380.602	351.74
380.816	62.98
381.031	114.17
381.245	105.98
381.459	482.81
381.674	2964.95
381.888	65.02
382.103	290.3
382.317	-66.05
382.531	671.22
382.746	126.46
382.96	93.69
383.174	85.5
383.388	675.32
383.603	271.87
383.817	-51.71
384.031	466.42
384.246	716.28
384.46	232.96
384.674	445.95
384.888	261.63
385.103	273.92
385.317	3.58
385.531	130.56
385.745	564.73
385.959	513.53
386.174	75.26
386.388	1.54
386.602	335.35
386.816	155.13
387.03	151.04
387.244	151.04
387.458	357.88
387.672	605.69
387.887	-53.76
388.101	-33.28
388.315	703.99
388.529	462.33
388.743	157.18
388.957	99.84
389.171	644.6
389.385	97.79
389.599	157.18
389.813	329.21
390.027	509.43
390.241	906.74
390.455	165.37
390.669	189.95
390.883	165.37
391.097	722.42
391.311	337.4
391.525	67.07
391.738	456.19
391.952	564.73
392.166	226.81
392.38	81.41
392.594	536.06
392.808	617.97
393.022	253.44
393.236	296.44
393.449	472.57
393.663	570.87
393.877	81.41
394.091	263.68
394.305	368.12
394.518	237.05
394.732	48.64
394.946	212.48
395.16	833.01
395.373	450.04
395.587	239.1
395.801	140.8
396.015	644.6
396.228	663.03
396.442	142.85
396.656	56.83
396.869	802.29
397.083	867.83
397.297	323.07
397.51	124.41
397.724	691.7
397.938	499.19
398.151	114.17
398.365	118.27
398.578	697.85
398.792	740.85
399.005	380.41
399.219	271.87
399.433	562.68
399.646	605.69
399.86	505.34
400.073	466.42
400.287	681.46
400.5	400.89
400.714	388.6
400.927	355.83
401.141	732.66
401.354	1562.09
401.567	646.65
401.781	183.81
401.994	785.91
402.208	1074.67
402.421	372.22
402.635	433.66
402.848	501.24
403.061	757.24
403.275	464.38
403.488	345.59
403.701	972.27
403.915	790
404.128	552.44
404.341	314.88
404.555	679.41
404.768	570.87
404.981	529.91
405.195	374.27
405.408	1105.39
405.621	771.57
405.834	697.85
406.048	298.49
406.261	925.17
406.474	1002.99
406.687	450.04
406.9	540.15
407.114	648.69
407.327	747
407.54	259.58
407.753	271.87
407.966	495.1
408.179	798.2
408.392	421.37
408.605	304.64
408.819	775.67
409.032	798.2
409.245	474.62
409.458	728.56
409.671	865.78
409.884	859.63
410.097	407.03
410.31	701.94
410.523	820.72
410.736	589.3
410.949	615.93
411.162	468.47
411.375	1109.49
411.588	908.79
411.801	716.28
412.014	509.43
412.227	771.57
412.44	658.93
412.653	523.77
412.865	722.42
413.078	982.51
413.291	867.83
413.504	644.6
413.717	536.06
413.93	1052.14
414.143	613.88
414.356	644.6
414.568	417.27
414.781	1093.1
414.994	845.3
415.207	644.6
415.42	650.74
415.632	1062.38
415.845	1281.52
416.058	491
416.271	515.58
416.483	790
416.696	1291.76
416.909	706.04
417.121	626.17
417.334	1058.29
417.547	1295.85
417.759	675.32
417.972	628.21
418.185	806.39
418.397	1080.82
418.61	671.22
418.823	683.51
419.035	1361.39
419.248	908.79
419.46	796.15
419.673	851.44
419.885	1154.54
420.098	941.55
420.311	742.9
420.523	560.63
420.736	1080.82
420.948	916.98
421.161	708.09
421.373	577.02
421.586	1068.53
421.798	845.3
422.01	626.17
422.223	908.79
422.435	931.31
422.648	1265.13
422.86	835.06
423.073	767.48
423.285	1150.45
423.497	736.76
423.71	884.21
423.922	822.77
424.134	1052.14
424.347	1502.7
424.559	1199.6
424.771	1179.12
424.984	1062.38
425.196	1162.73
425.408	675.32
425.621	790
425.833	1322.48
426.045	1490.41
426.257	843.25
426.47	927.22
426.682	1224.17
426.894	1361.39
427.106	933.36
427.318	1066.48
427.531	970.23
427.743	1408.49
427.955	1033.71
428.167	1500.65
428.379	1318.38
428.591	1269.23
428.804	1052.14
429.016	1048.05
429.228	1181.17
429.44	1488.36
429.652	1312.24
429.864	992.75
430.076	1240.56
430.288	1252.84
430.5	1195.5
430.712	1328.62
430.924	1648.1
431.136	1297.9
431.348	1025.52
431.56	1246.7
431.772	1306.09
431.984	1361.39
432.196	1181.17
432.408	1246.7
432.62	1363.44
432.832	1584.62
433.044	1533.42
433.256	1422.83
433.468	1670.63
433.679	1187.31
433.891	1226.22
434.103	1486.31
434.315	1908.19
434.527	1760.74
434.739	1351.15
434.95	1330.67
435.162	1682.92
435.374	1410.54
435.586	1484.27
435.798	1297.9
436.009	1342.96
436.221	1478.12
436.433	1492.46
436.645	1484.27
436.856	1580.52
437.068	1916.39
437.28	1486.31
437.491	1775.08
437.703	1828.32
437.915	1873.38
438.126	1478.12
438.338	1699.3
438.55	1707.49
438.761	1768.93
438.973	1619.43
439.184	1506.79
439.396	1633.77
439.608	1877.48
439.819	1545.7
440.031	1631.72
440.242	1922.53
440.454	1975.78
440.665	1650.15
440.877	1830.37
441.088	1971.68
441.3	1965.54
441.511	1420.78
441.723	1594.86
441.934	2035.17
442.146	1953.25
442.357	1887.72
442.569	1920.48
442.78	1965.54
442.991	2256.35
443.203	2051.55
443.414	1639.91
443.626	2299.36
443.837	1797.6
444.048	1656.29
444.26	1644.01
444.471	2049.5
444.682	2338.27
444.894	1613.29
445.105	1639.91
445.316	2291.17
445.528	2223.58
445.739	1988.07
445.95	1924.58
446.161	2049.5
446.373	2360.8
446.584	2051.55
446.795	2020.83
447.006	2401.76
447.217	2514.39
447.429	1826.28
447.64	1916.39
447.851	2432.47
448.062	2213.34
448.273	1699.3
448.484	1918.43
448.695	2268.64
448.907	2166.24
449.118	2188.77
449.329	2342.36
449.54	2190.81
449.751	1906.15
449.962	2072.03
450.173	1949.15
450.384	2639.32
450.595	2600.41
450.806	2223.58
451.017	2065.89
451.228	2704.85
451.439	2565.59
451.65	2358.75
451.861	2033.12
452.072	2112.99
452.283	2487.77
452.494	2442.71
452.705	2215.39
452.915	2885.08
453.126	2612.7
453.337	2278.88
453.548	2297.31
453.759	2805.21
453.97	3036.63
454.181	2586.07
454.391	2399.71
454.602	2760.15
454.813	2721.24
455.024	2520.54
455.235	2518.49
455.445	2694.61
455.656	2883.03
455.867	2655.7
456.078	2395.61
456.288	2686.42
456.499	2977.23
456.71	2467.29
456.921	2842.07
457.131	2938.32
457.342	2858.45
457.553	2655.7
457.763	2551.26
457.974	3167.7
458.184	3147.22
458.395	2760.15
458.606	2708.95
458.816	3382.73
459.027	3511.75
459.237	2823.64
459.448	2737.62
459.659	3382.73
459.869	3786.18
460.08	2745.81
460.29	3229.13
460.501	3745.22
460.711	3220.94
460.922	2858.45
461.132	2907.6
461.343	3984.84
461.553	3077.59
461.764	3184.08
461.974	3169.74
462.184	3550.67
462.395	3659.21
462.605	3399.12
462.816	3093.97
463.026	3579.34
463.236	3964.36
463.447	3237.33
463.657	3397.07
463.867	3812.81
464.078	3841.48
464.288	3497.42
464.498	3591.63
464.709	3782.09
464.919	3726.79
465.129	3640.78
465.339	3640.78
465.55	4068.8
465.76	3999.17
465.97	3753.41
466.18	3657.16
466.391	4285.89
466.601	4294.08
466.811	3880.39
467.021	3726.79
467.231	4324.8
467.441	4459.96
467.651	4087.23
467.862	3800.52
468.072	4359.61
468.282	4623.8
468.492	4218.3
468.702	4341.18
468.912	4660.66
469.122	5125.55
469.332	4791.73
469.542	4423.1
469.752	4943.28
469.962	4928.95
470.172	4517.31
470.382	4664.76
470.592	5197.23
470.802	5184.94
471.012	4902.33
471.222	4818.36
471.432	5330.35
471.642	5436.85
471.852	5160.37
472.062	4887.99
472.272	5383.6
472.482	5057.97
472.691	5344.69
472.901	5225.9
473.111	5541.29
473.321	6241.7
473.531	5340.59
473.741	5606.83
473.95	5961.13
474.16	6055.33
474.37	5907.88
474.58	5729.7
474.79	6626.71
474.999	6426.01
475.209	5670.31
475.419	6122.91
475.628	6270.37
475.838	6645.15
476.048	6262.18
476.258	6180.26
476.467	6757.78
476.677	6641.05
476.886	6772.12
477.096	6626.71
477.306	6679.96
477.515	7237.01
477.725	6708.63
477.935	6819.22
478.144	7523.73
478.354	6976.92
478.563	6962.58
478.773	7050.64
478.982	7558.54
479.192	7773.58
479.401	7396.75
479.611	7280.02
479.82	7282.06
480.03	7847.3
480.239	7456.14
480.449	7413.13
480.658	8269.19
480.868	7916.94
481.077	8035.72
481.287	7959.94
481.496	8375.68
481.705	8535.42
481.915	8359.3
482.124	8437.12
482.333	8607.1
482.543	8850.81
482.752	8508.8
482.961	8437.12
483.171	8963.45
483.38	8945.02
483.589	9000.31
483.799	8830.33
484.008	9035.13
484.217	9362.8
484.426	9047.41
484.636	8725.88
484.845	9383.28
485.054	9125.24
485.263	9694.57
485.472	9274.74
485.682	9975.14
485.891	9557.36
486.1	9127.28
486.309	9614.7
486.518	10104.17
486.727	10184.04
486.936	9708.91
487.146	9893.23
487.355	10640.73
487.564	9979.24
487.773	10012.01
487.982	9983.34
488.191	10290.53
488.4	10573.15
488.609	10157.41
488.818	10497.38
489.027	11140.44
489.236	11359.57
489.445	10732.89
489.654	10562.91
489.863	11550.03
490.072	10958.17
490.281	11040.09
490.49	11167.06
490.698	11545.94
490.907	12055.88
491.116	11183.45
491.325	11167.06
491.534	11738.44
491.743	11656.53
491.952	11664.72
492.16	11521.36
492.369	11922.76
492.578	12090.7
492.787	11754.83
492.996	12035.4
493.204	11945.29
493.413	12664.13
493.622	11982.15
493.831	11781.45
494.039	12698.94
494.248	11963.72
494.457	12266.82
494.665	12166.47
494.874	12733.76
495.083	13098.3
495.291	12424.51
495.5	12612.93
495.709	13090.1
495.917	12625.22
496.126	12942.65
496.335	12752.19
496.543	13065.53
496.752	13307.19
496.96	13090.1
497.169	12850.49
497.377	13219.13
497.586	13810.99
497.794	13618.48
498.003	13055.29
498.211	13544.75
498.42	13985.07
498.628	13557.04
498.837	13485.36
499.045	14021.93
499.254	13614.38
499.462	13344.05
499.671	13841.71
499.879	14396.71
500.087	14318.89
500.296	14021.93
500.504	14081.32
500.713	14296.36
500.921	14904.6
501.129	13927.72
501.338	13843.76
501.546	14617.89
501.754	14544.16
501.962	14228.77
502.171	13995.31
502.379	14841.12
502.587	15207.7
502.795	14394.66
503.004	14548.26
503.212	14912.8
503.42	15400.21
503.628	14771.49
503.837	15023.39
504.045	15176.98
504.253	15721.74
504.461	14927.13
504.669	14943.52
504.877	15492.37
505.085	15797.52
505.294	15050.01
505.502	15189.27
505.71	15504.66
505.918	15668.5
506.126	15258.9
506.334	15160.6
506.542	15797.52
506.75	15592.72
506.958	15705.36
507.166	15480.08
507.374	15529.24
507.582	16469.25
507.79	15609.11
507.998	15672.59
508.206	16295.18
508.414	16348.42
508.622	15666.45
508.83	16047.37
509.037	16698.63
509.245	16098.57
509.453	16184.59
509.661	15906.06
509.869	16686.34
510.077	16354.57
510.285	16157.96
510.492	15957.26
510.7	17267.96
510.908	16485.64
511.116	16129.29
511.324	16420.1
511.531	16551.17
511.739	16874.75
511.947	16567.56
512.155	16876.8
512.362	16835.84
512.57	16841.98
512.778	16547.08
512.985	16416.01
513.193	17339.64
513.401	17755.38
513.608	16925.95
513.816	17063.16
514.024	17476.85
514.231	17499.38
514.439	16960.77
514.646	17079.55
514.854	17722.61
515.061	17534.2
515.269	17491.19
515.477	17122.55
515.684	17270.01
515.892	17851.63
516.099	17116.41
516.307	17483
516.514	18046.19
516.722	18050.28
516.929	17579.25
517.136	17505.52
517.344	18158.83
517.551	17964.27
517.759	17755.38
517.966	17921.26
518.173	17906.93
518.381	18230.51
518.588	17882.35
518.796	18097.39
519.003	18633.96
519.21	18332.9
519.418	18144.49
519.625	18443.49
519.832	18496.74
520.039	18867.42
520.247	18230.51
520.454	18349.29
520.661	19074.27
520.868	18785.51
521.076	18844.9
521.283	18693.35
521.49	19266.78
521.697	19150.04
521.904	18644.2
522.112	18767.07
522.319	19201.24
522.526	19000.54
522.733	18955.49
522.94	18953.44
523.147	19244.25
523.354	19410.14
523.561	19055.84
523.768	19365.08
523.975	19844.31
524.183	19506.39
524.39	19551.45
524.597	19311.83
524.804	19981.52
525.011	19721.43
525.218	19596.5
525.425	19698.9
525.632	20270.28
525.838	19750.1
526.045	19545.3
526.252	19580.12
526.459	21298.36
526.666	21083.33
526.873	20204.75
527.08	19985.62
527.287	20772.04
527.494	20587.72
527.701	20114.64
527.907	19887.31
528.114	20522.18
528.321	20475.08
528.528	20350.15
528.735	20423.88
528.941	20634.82
529.148	20346.06
529.355	20819.14
529.562	20282.57
529.768	21091.52
529.975	20595.91
530.182	20718.79
530.388	20495.56
530.595	21202.11
530.802	20692.16
531.008	21458.1
531.215	21140.67
531.422	21947.57
531.628	22031.54
531.835	21081.28
532.042	21355.71
532.248	21425.34
532.455	21791.92
532.661	21361.85
532.868	21324.99
533.074	22082.74
533.281	22246.57
533.487	21437.62
533.694	21759.16
533.9	21867.7
534.107	22222
534.313	22056.11
534.52	21576.89
534.726	22389.93
534.933	22451.37
535.139	21800.12
535.345	22041.78
535.552	22463.66
535.758	22547.62
535.965	22295.72
536.171	22062.26
536.377	22885.54
536.584	22822.05
536.79	22254.76
536.996	22449.32
537.203	22635.69
537.409	22803.62
537.615	22631.59
537.821	22983.84
538.028	23485.59
538.234	23010.46
538.44	22756.52
538.646	23100.58
538.853	23403.67
539.059	22856.87
539.265	23407.77
539.471	22834.34
539.677	23506.07
539.883	23590.04
540.09	22834.34
540.296	23737.49
540.502	23346.33
540.708	23575.7
540.914	23829.65
541.12	23755.93
541.326	23770.26
541.532	23843.99
541.738	23940.24
541.944	23807.12
542.15	24620.17
542.356	24161.42
542.562	23927.95
542.768	23833.75
542.974	25123.97
543.18	24843.4
543.386	24229.01
543.592	23940.24
543.798	24960.13
544.004	24702.09
544.21	24093.84
544.415	24562.83
544.621	25093.25
544.827	24968.32
545.033	24626.31
545.239	24726.66
545.445	24827.01
545.651	24722.57
545.856	24667.27
546.062	25070.72
546.268	24779.91
546.474	25220.22
546.679	24697.99
546.885	24790.15
547.091	24882.31
547.297	25488.51
547.502	24902.79
547.708	24878.21
547.914	24700.04
548.119	25656.44
548.325	24775.81
548.531	24431.76
548.736	25752.7
548.942	25171.07
549.147	24964.23
549.353	25480.32
549.559	25963.64
549.764	25621.63
549.97	25150.59
550.175	25646.2
550.381	25795.7
550.586	25429.12
550.792	25420.92
550.997	25478.27
551.203	25939.06
551.408	26283.12
551.614	25910.39
551.819	25801.85
552.025	26567.79
552.23	26618.99
552.435	25816.18
552.641	26604.65
552.846	26180.72
553.052	26743.91
553.257	26406
553.462	26530.92
553.668	26096.75
553.873	26856.55
554.078	26516.59
554.283	26668.14
554.489	27137.12
554.694	26819.69
554.899	26434.67
555.105	26795.11
555.31	27104.35
555.515	27102.31
555.72	27395.17
555.925	26784.87
556.131	27425.89
556.336	27135.07
556.541	27157.6
556.746	27159.65
556.951	27591.77
557.156	27579.48
557.361	27122.79
557.567	27751.51
557.772	28021.84
557.977	27681.88
558.182	27012.2
558.387	27202.66
558.592	27391.07
558.797	27753.56
559.002	27628.63
559.207	27376.73
559.412	27679.83
559.617	28404.81
559.822	27925.59
560.027	27573.34
560.232	27984.98
560.437	27901.01
560.642	27260
560.847	27636.83
561.051	28163.15
561.256	27944.02
561.461	27982.93
561.666	27559
561.871	28490.83
562.076	28294.22
562.281	27925.59
562.485	27698.27
562.69	28281.94
562.895	28603.47
563.1	28171.35
563.305	28296.27
563.509	28638.28
563.714	29140.04
563.919	28271.7
564.123	28326.99
564.328	28707.91
564.533	29256.77
564.737	28365.9
564.942	28388.43
565.147	29633.6
565.351	29826.1
565.556	28392.53
565.761	28505.17
565.965	29168.71
566.17	28585.04
566.374	28507.21
566.579	29119.56
566.784	29076.55
566.988	29023.3
567.193	28959.81
567.397	29002.82
567.602	29209.67
567.806	28922.95
568.011	29178.95
568.215	29035.59
568.42	29256.77
568.624	29711.42
568.828	28777.54
569.033	29283.39
569.237	29740.09
569.442	29791.29
569.646	28765.26
569.85	29387.84
570.055	29652.03
570.259	29905.98
570.463	29725.75
570.668	29432.89
570.872	29428.8
571.076	29678.65
571.281	29795.39
571.485	29740.09
571.689	30080.05
571.893	30155.83
572.098	30026.81
572.302	29783.1
572.506	30243.89
572.71	30043.19
572.914	30078.01
573.119	30108.72
573.323	30188.6
573.527	30585.9
573.731	30037.05
573.935	29733.95
574.139	30555.18
574.343	29989.94
574.547	29768.76
574.751	30303.28
574.955	30876.71
575.159	30944.3
575.364	30405.68
575.568	30366.77
575.772	30512.17
575.976	31124.52
576.18	30143.54
576.383	30571.57
576.587	31009.83
576.791	31140.9
576.995	30483.5
577.199	30518.32
577.403	31099.94
577.607	31644.7
577.811	30821.42
578.015	30903.34
578.219	31204.39
578.422	31239.2
578.626	31194.15
578.83	31001.64
579.034	31523.87
579.238	31343.65
579.442	31210.53
579.645	31355.94
579.849	31411.23
580.053	31786.01
580.257	31169.57
580.46	31421.47
580.664	31867.93
580.868	31595.55
581.071	31669.28
581.275	31792.15
581.479	31452.19
581.682	31763.48
581.886	31441.95
582.09	31996.95
582.293	31992.86
582.497	31949.85
582.7	31890.46
582.904	31865.88
583.107	32070.68
583.311	32072.73
583.515	31912.99
583.718	32125.97
583.922	32338.96
584.125	32656.4
584.329	31691.8
584.532	32136.21
584.735	32726.03
584.939	32386.07
585.142	31861.79
585.346	32093.21
585.549	32848.91
585.753	32615.44
585.956	32439.31
586.159	32662.54
586.363	33389.57
586.566	33436.67
586.769	32701.45
586.973	32578.57
587.176	32873.48
587.379	33383.43
587.582	33213.45
587.786	33180.68
587.989	33149.96
588.192	33965.05
588.395	33008.65
588.599	33104.9
588.802	33606.66
589.005	33281.03
589.208	33399.81
589.411	33551.36
589.615	33512.45
589.818	34317.3
590.021	33594.37
590.224	33504.26
590.427	34094.07
590.63	33545.22
590.833	33336.32
591.036	33944.57
591.239	33829.88
591.442	33838.08
591.645	34102.26
591.848	33731.58
592.051	34098.17
592.254	34040.82
592.457	34049.02
592.66	34036.73
592.863	34321.4
593.066	34436.08
593.269	34069.5
593.472	34165.75
593.675	34626.54
593.878	34522.1
594.081	34022.39
594.284	34184.18
594.486	34712.56
594.689	34876.4
594.892	34221.05
595.095	34599.92
595.298	34946.03
595.5	34855.92
595.703	35075.05
595.906	34626.54
596.109	35068.9
596.311	35058.67
596.514	34513.91
596.717	34747.37
596.92	35380.2
597.122	35408.87
597.325	34597.87
597.528	34872.3
597.73	35664.86
597.933	35249.13
598.136	35212.26
598.338	34696.17
598.541	35591.14
598.743	35830.75
598.946	35281.89
599.148	35361.76
599.351	35625.95
599.554	36053.98
599.756	35240.93
599.959	35781.6
600.161	35851.23
600.363	36209.62
600.566	35894.24
600.768	35378.15
600.971	36109.27
601.173	36162.52
601.376	35673.06
601.578	35908.57
601.78	36119.51
601.983	36459.48
602.185	35505.12
602.388	35840.99
602.59	36027.35
602.792	35916.76
602.995	35628
603.197	35488.74
603.399	36428.76
603.601	36258.77
603.804	35916.76
604.006	35765.21
604.208	36160.47
604.41	35681.25
604.613	36217.82
604.815	36094.94
605.017	36965.32
605.219	36209.62
605.421	36436.95
605.623	36123.61
605.826	36944.84
606.028	36815.82
606.23	36189.14
606.432	36215.77
606.634	37037
606.836	36813.77
607.038	36395.99
607.24	36525.01
607.442	36525.01
607.644	36377.56
607.846	36778.96
608.048	36363.22
608.25	37057.48
608.452	36502.48
608.654	36197.34
608.856	36195.29
609.058	36664.27
609.26	37034.95
609.462	36668.37
609.664	36987.85
609.866	36987.85
610.067	36889.55
610.269	36959.18
610.471	36666.32
610.673	36735.95
610.875	37295.05
611.077	36547.54
611.278	36735.95
611.48	36873.17
611.682	37098.44
611.884	37397.45
612.085	36950.99
612.287	36864.97
612.489	37149.64
612.69	36543.44
612.892	36938.7
613.094	37688.26
613.295	36684.75
613.497	36348.89
613.699	36869.07
613.9	37348.29
614.102	37413.83
614.304	37051.34
614.505	36512.72
614.707	37323.72
614.908	37026.76
615.11	36682.7
615.311	36910.03
615.513	37135.31
615.714	37542.85
615.916	36877.26
616.117	37000.14
616.319	37383.11
616.52	37624.77
616.722	36793.29
616.923	37098.44
617.124	37815.23
617.326	37213.13
617.527	37524.42
617.729	37120.97
617.93	37569.47
618.131	37559.23
618.333	37112.78
618.534	37249.99
618.735	37505.99
618.937	37544.9
619.138	37286.86
619.339	37141.45
619.54	37901.25
619.742	37520.32
619.943	37192.65
620.144	37063.63
620.345	37827.52
620.546	37526.47
620.748	37262.28
620.949	37350.34
621.15	37538.76
621.351	37413.83
621.552	37409.73
621.753	37215.18
621.954	37495.75
622.155	37962.68
622.356	37221.32
622.558	37577.67
622.759	37778.37
622.96	37909.44
623.161	36944.84
623.362	37645.25
623.563	37901.25
623.764	37577.67
623.965	37432.26
624.166	38095.8
624.366	37647.3
624.567	38015.93
624.768	37508.04
624.969	36842.45
625.17	37782.46
625.371	37821.37
625.572	38001.6
625.773	37555.14
625.973	38431.67
626.174	38081.47
626.375	37837.76
626.576	38116.28
626.777	38374.33
626.977	38697.91
627.178	38278.07
627.379	37917.63
627.58	37729.22
627.78	38190.01
627.981	37712.83
628.182	38368.18
628.382	38376.37
628.583	38060.99
628.784	37735.36
628.984	37893.05
629.185	38921.13
629.386	38101.95
629.586	38327.22
629.787	37923.77
629.987	38710.19
630.188	38527.92
630.388	38106.04
630.589	38120.38
630.79	38923.18
630.99	38615.99
631.191	38142.91
631.391	38468.53
631.591	38327.22
631.792	38675.38
631.992	38489.01
632.193	38560.69
632.393	38874.03
632.594	38249.4
632.794	37995.45
632.994	38228.92
633.195	38396.85
633.395	38605.75
633.595	38316.98
633.796	38839.22
633.996	38667.19
634.196	38781.87
634.397	38738.86
634.597	38345.65
634.797	38779.82
634.997	39060.4
635.198	38724.53
635.398	38179.77
635.598	39072.68
635.798	39328.68
635.998	38763.44
636.199	38327.22
636.399	38892.46
636.599	38943.66
636.799	38871.98
636.999	39066.54
637.199	38740.91
637.399	39670.69
637.599	38697.91
637.799	38810.54
637.999	38910.89
638.199	39508.9
638.399	39095.21
638.599	38937.52
638.799	39490.47
638.999	40172.44
639.199	39263.14
639.399	39367.59
639.599	39447.46
639.799	39035.82
639.999	38802.35
640.199	38953.9
640.399	39121.84
640.599	38644.66
640.799	39056.3
640.998	39613.35
641.198	39232.43
641.398	39177.13
641.598	39306.15
641.798	39379.88
641.997	40182.68
642.197	39148.46
642.397	39781.28
642.597	39513
642.796	39691.17
642.996	39932.83
643.196	39703.46
643.395	39046.06
643.595	39768.99
643.795	39539.62
643.994	39576.48
644.194	39607.2
644.394	40014.75
644.593	39500.71
644.793	39783.33
644.992	39859.1
645.192	39728.03
645.392	39424.93
645.591	39304.1
645.791	39920.54
645.99	40016.8
646.19	39984.03
646.389	39951.26
646.589	39422.89
646.788	39934.88
646.987	40035.23
647.187	40160.16
647.386	39938.97
647.586	40225.69
647.785	40301.47
647.984	39977.89
648.184	40405.91
648.383	40024.99
648.582	40020.89
648.782	39945.12
648.981	39961.5
649.18	39918.49
649.38	40381.34
649.579	40160.16
649.778	40029.09
649.977	40434.58
650.177	40354.71
650.376	40012.7
650.575	39879.58
650.774	40563.61
650.973	40297.37
651.173	39756.71
651.372	40172.44
651.571	40735.63
651.77	40416.15
651.969	40217.5
652.168	40211.35
652.367	40385.43
652.566	40526.74
652.765	40487.83
652.964	40313.75
653.163	40803.22
653.362	40604.56
653.561	40166.3
653.76	40397.72
653.959	40336.28
654.158	41008.01
654.357	40215.45
654.556	40416.15
654.755	41270.15
654.954	40483.73
655.153	39920.54
655.352	40614.8
655.551	41329.55
655.749	40582.04
655.948	40602.52
656.147	41012.11
656.346	41251.72
656.545	40608.66
656.743	40444.82
656.942	40924.05
657.141	40721.3
657.34	40676.24
657.538	40618.9
657.737	40645.52
657.936	41245.58
658.135	40774.55
658.333	40737.68
658.532	40833.94
658.731	41468.81
658.929	41511.81
659.128	41059.21
659.326	40635.28
659.525	41833.35
659.724	41163.66
659.922	40612.76
660.121	40661.91
660.319	40924.05
660.518	40432.54
660.716	40678.29
660.915	40709.01
661.113	41464.71
661.312	40670.1
661.51	41390.98
661.709	40653.72
661.907	40889.23
662.105	41325.45
662.304	40930.19
662.502	40979.34
662.701	41671.56
662.899	40969.1
663.097	41046.93
663.296	40711.06
663.494	41640.84
663.692	42023.81
663.891	40893.33
664.089	40285.08
664.287	41112.46
664.485	41474.95
664.684	40985.49
664.882	40858.51
665.08	41114.51
665.278	41235.34
665.476	40805.27
665.675	41055.12
665.873	41268.11
666.071	41558.92
666.269	40813.46
666.467	41003.92
666.665	41290.63
666.863	40610.71
667.061	41118.6
667.259	40770.45
667.457	41112.46
667.655	41261.96
667.853	40692.63
668.051	40792.98
668.249	41110.41
668.447	41294.73
668.645	40577.94
668.843	41339.79
669.041	41143.18
669.239	40926.1
669.437	40956.82
669.635	41085.84
669.833	41216.91
670.031	41141.13
670.229	40649.62
670.426	40987.53
670.624	40893.33
670.822	40846.22
671.02	41016.21
671.218	41165.71
671.415	40819.6
671.613	40819.6
671.811	41038.73
672.009	41026.45
672.206	41184.14
672.404	41044.88
672.602	41067.41
672.799	40901.52
672.997	40866.7
673.195	41417.61
673.392	40885.14
673.59	40280.99
673.788	40901.52
673.985	40346.52
674.183	40702.87
674.38	40635.28
674.578	41085.84
674.775	40528.79
674.973	40334.23
675.17	40725.39
675.368	41134.99
675.565	40612.76
675.763	40573.84
675.96	40539.03
676.158	41229.19
676.355	40117.15
676.553	40614.8
676.75	40311.7
676.947	40661.91
677.145	40516.5
677.342	40590.23
677.539	40829.84
677.737	41032.59
677.934	40995.73
678.131	40459.16
678.329	40332.18
678.526	40928.14
678.723	41073.55
678.92	40784.79
679.118	40262.55
679.315	40579.99
679.512	40713.11
679.709	40557.46
679.906	39981.98
680.104	40866.7
680.301	40412.06
680.498	39549.86
680.695	39816.1
680.892	40428.44
681.089	40219.55
681.286	40199.07
681.483	39609.25
681.68	40594.32
681.877	40647.57
682.075	40143.77
682.272	40246.17
682.469	40231.83
682.665	39922.59
682.862	39830.43
683.059	39998.37
683.256	40266.65
683.453	40326.04
683.65	40082.33
683.847	40098.72
684.044	40172.44
684.241	39875.49
684.438	40414.1
684.635	39537.57
684.831	40371.1
685.028	40278.94
685.225	39629.73
685.422	39736.23
685.619	40147.87
685.815	39721.89
686.012	40053.66
686.209	39383.98
686.405	39437.22
686.602	40024.99
686.799	39355.3
686.996	39807.9
687.192	39381.93
687.389	39889.82
687.586	39639.97
687.782	39889.82
687.979	40143.77
688.175	40045.47
688.372	39637.92
688.568	39431.08
688.765	39826.34
688.962	40369.05
689.158	39293.86
689.355	39699.36
689.551	39687.07
689.748	39336.87
689.944	39246.76
690.14	39220.14
690.337	39504.81
690.533	39406.5
690.73	39099.31
690.926	39265.19
691.123	39502.76
691.319	39615.4
691.515	39115.69
691.712	39209.9
691.908	39627.68
692.104	39345.06
692.301	39308.2
692.497	38910.89
692.693	39281.58
692.889	39220.14
693.086	38912.94
693.282	38478.77
693.478	38908.85
693.674	39689.12
693.87	38845.36
694.067	39093.16
694.263	39244.71
694.459	39297.96
694.655	38980.53
694.851	38970.29
695.047	39347.11
695.243	39535.52
695.439	39248.81
695.635	38538.16
695.831	38917.04
696.027	39187.37
696.224	38403
696.42	38990.77
696.615	38855.6
696.811	39111.6
697.007	38255.54
697.203	38878.13
697.399	38785.97
697.595	38704.05
697.791	38302.65
697.987	38589.36
698.183	38628.27
698.379	38194.11
698.575	38532.02
698.77	38781.87
698.966	39117.74
699.162	38788.02
699.358	38439.86
699.554	38761.39
699.749	38943.66
699.945	39066.54
700.141	38253.5
700.337	38474.68
700.532	38255.54
700.728	38355.89
700.924	38179.77
701.119	37962.68
701.315	38228.92
701.511	37757.89
701.706	38398.9
701.902	38161.34
702.097	38153.15
702.293	38425.53
702.489	38095.8
702.684	37878.72
702.88	38071.23
703.075	38218.68
703.271	38026.17
703.466	38046.65
703.662	38230.97
703.857	38587.32
704.053	38314.94
704.248	38083.51
704.443	38392.76
704.639	38132.67
704.834	38251.45
705.03	37706.69
705.225	38419.38
705.42	38263.74
705.616	37784.51
705.811	37702.59
706.006	38063.04
706.202	37686.21
706.397	37788.61
706.592	37352.39
706.787	37659.59
706.983	37913.53
707.178	38261.69
707.373	37954.49
707.568	38095.8
707.763	37972.92
707.959	37422.02
708.154	37592
708.349	37706.69
708.544	37979.07
708.739	37501.89
708.934	37272.52
709.129	37792.7
709.324	37733.31
709.519	37579.71
709.714	37561.28
709.909	38513.59
710.104	37731.26
710.299	37239.75
710.494	37665.73
710.689	37684.16
710.884	37682.11
711.079	37602.24
711.274	37526.47
711.469	37938.11
711.664	37460.93
711.859	37356.49
712.054	37811.14
712.249	37235.66
712.443	37649.35
712.638	37323.72
712.833	36811.73
713.028	37460.93
713.223	37211.08
713.417	37325.77
713.612	36989.9
713.807	37571.52
714.002	37993.4
714.196	37247.94
714.391	37260.23
714.586	37456.84
714.78	37071.82
714.975	36545.49
715.17	36660.18
715.364	37030.86
715.559	37843.9
715.754	36422.61
715.948	36625.36
716.143	36940.75
716.337	36721.62
716.532	36688.85
716.726	36793.29
716.921	37059.53
717.115	37274.57
717.31	36408.28
717.504	36998.09
717.699	37178.31
717.893	36738
718.088	36482
718.282	36297.69
718.476	36664.27
718.671	36277.21
718.865	36336.6
719.059	36037.59
719.254	36377.56
719.448	36950.99
719.642	37393.35
719.837	35763.17
720.031	36504.53
720.225	36527.06
720.419	36074.46
720.614	35920.86
720.808	36525.01
721.002	35677.15
721.196	35726.3
721.39	35707.87
721.585	36422.61
721.779	35961.82
721.973	35822.56
722.167	35607.52
722.361	36158.42
722.555	36154.33
722.749	35693.54
722.943	35855.32
723.137	36025.31
723.331	35974.11
723.525	35771.36
723.719	35466.21
723.913	35871.71
724.107	36088.79
724.301	35527.65
724.495	35636.19
724.689	35734.49
724.883	36013.02
725.077	35265.51
725.271	35689.44
725.465	35636.19
725.659	35519.46
725.853	35283.94
726.046	35021.8
726.24	35015.66
726.434	35763.17
726.628	35347.43
726.822	34972.65
727.015	35750.88
727.209	35603.42
727.403	35750.88
727.596	35302.37
727.79	35367.91
727.984	35671.01
728.177	35789.79
728.371	35679.2
728.565	35900.38
728.758	35521.51
728.952	35195.88
729.146	35054.57
729.339	36131.8
729.533	35797.98
729.726	34956.27
729.92	35122.15
730.113	36060.12
730.307	36078.55
730.5	35054.57
730.694	35070.95
730.887	35159.02
731.081	36041.69
731.274	34982.89
731.468	35161.06
731.661	35357.67
731.854	35208.17
732.048	35421.16
732.241	35154.92
732.435	35230.69
732.628	35519.46
732.821	34929.64
733.014	34679.79
733.208	34917.36
733.401	35611.62
733.594	34790.38
733.788	34989.03
733.981	35498.98
734.174	35372
734.367	35220.45
734.56	35075.05
734.754	35638.24
734.947	35314.66
735.14	34837.48
735.333	35292.13
735.526	35554.27
735.719	34880.49
735.912	34700.27
736.105	34872.3
736.298	35357.67
736.491	34931.69
736.684	34886.64
736.877	34857.96
737.07	35007.47
737.263	35175.4
737.456	34636.78
737.649	34417.65
737.842	35081.19
738.035	34991.08
738.228	34438.13
738.421	35146.73
738.614	35716.06
738.807	35167.21
739	34425.84
739.192	34597.87
739.385	34810.86
739.578	35226.6
739.771	34900.97
739.964	34190.33
740.156	34939.88
740.349	34438.13
740.542	34671.6
740.735	34401.27
740.927	34647.02
741.12	34503.67
741.313	34513.91
741.505	34919.4
741.698	34917.36
741.891	34368.5
742.083	34444.27
742.276	34839.53
742.468	34812.91
742.661	34546.67
742.854	34431.99
743.046	34298.87
743.239	34628.59
743.431	34716.65
743.624	34137.08
743.816	34171.89
744.009	34577.39
744.201	34614.26
744.393	34681.84
744.586	34284.53
744.778	34866.16
744.971	34411.51
745.163	34307.06
745.355	33954.81
745.548	34474.99
745.74	34434.03
745.932	34290.68
746.125	33709.05
746.317	34880.49
746.509	34257.91
746.702	33999.87
746.894	33872.89
747.086	34276.34
747.278	34386.93
747.471	34059.26
747.663	34032.63
747.855	33991.67
748.047	34575.34
748.239	33811.45
748.431	33668.09
748.623	34472.95
748.815	34087.93
749.008	33684.48
749.2	33829.88
749.392	34229.24
749.584	33958.91
749.776	33926.14
749.968	34073.59
750.16	34339.83
750.352	33508.35
750.544	33680.38
750.736	33270.79
750.928	33887.23
751.12	33676.29
751.311	33405.95
751.503	33430.53
751.695	33778.68
751.887	33338.37
752.079	33455.11
752.271	33227.78
752.463	34397.17
752.654	33625.09
752.846	33147.91
753.038	33084.42
753.23	33008.65
753.421	33696.77
753.613	33100.81
753.805	33395.71
753.997	33571.84
754.188	33506.3
754.38	33219.59
754.572	33192.97
754.763	32943.11
754.955	32924.68
755.146	33084.42
755.338	32863.24
755.53	33166.34
755.721	33192.97
755.913	32744.46
756.104	32680.97
756.296	33143.81
756.487	33223.69
756.679	32461.84
756.87	32490.51
757.062	32402.45
757.253	32951.31
757.445	32515.09
757.636	32627.73
757.827	32588.81
758.019	33207.3
758.21	32234.52
758.401	32160.79
758.593	33094.66
758.784	33094.66
758.975	31949.85
759.167	32027.67
759.358	32345.11
759.549	32740.36
759.74	31917.08
759.932	32455.7
760.123	32769.04
760.314	32160.79
760.505	31798.3
760.696	31826.97
760.888	32971.78
761.079	32011.29
761.27	31622.17
761.461	31630.37
761.652	32582.67
761.843	32179.22
762.034	31583.26
762.225	31902.75
762.416	31833.11
762.607	31720.48
762.798	31611.93
762.989	31548.45
763.18	32488.46
763.371	31405.09
763.562	31400.99
763.753	31476.77
763.944	31872.03
764.135	32056.34
764.326	31310.88
764.517	31327.27
764.708	31646.75
764.899	31597.6
765.089	30905.38
765.28	30952.49
765.471	31593.5
765.662	31253.54
765.853	31439.9
766.043	30878.76
766.234	31681.56
766.425	31179.81
766.615	30913.58
766.806	31079.46
766.997	31353.89
767.187	31052.84
767.378	30784.55
767.569	30454.83
767.759	30817.32
767.95	30829.61
768.141	30940.2
768.331	30587.95
768.522	31083.56
768.712	31040.55
768.903	30700.59
769.093	30434.35
769.284	31095.85
769.474	30626.86
769.665	29916.22
769.855	30137.4
770.046	30739.5
770.236	30575.66
770.426	30153.78
770.617	30198.84
770.807	30413.87
770.998	30420.02
771.188	30204.98
771.378	30202.93
771.569	30368.82
771.759	30274.61
771.949	29555.77
772.139	29611.07
772.33	29723.71
772.52	30676.01
772.71	30186.55
772.9	29686.84
773.09	30704.68
773.281	30821.42
773.471	29545.53
773.661	29692.99
773.851	30035
774.041	29742.14
774.231	29342.78
774.421	29596.73
774.611	30157.88
774.802	29658.17
774.992	29383.74
775.182	29537.34
775.372	29422.66
775.562	29844.54
775.752	29426.75
775.942	29137.99
776.131	29666.36
776.321	29310.02
776.511	29101.12
776.701	28808.26
776.891	29516.86
777.081	29011.01
777.271	29101.12
777.461	29250.63
777.651	29275.2
777.84	29123.65
778.03	29375.55
778.22	29039.68
778.41	29504.57
778.599	28800.07
778.789	28849.22
778.979	29033.54
779.169	29107.27
779.358	29049.92
779.548	28910.66
779.738	28273.74
779.927	28978.25
780.117	28884.04
780.307	28548.17
780.496	28185.68
780.686	28728.39
780.875	29375.55
781.065	28679.24
781.254	27944.02
781.444	28275.79
781.633	28726.35
781.823	28255.31
782.012	28027.99
782.202	28435.53
782.391	28167.25
782.581	27966.55
782.77	28003.41
782.96	28496.97
783.149	27962.45
783.338	27794.52
783.528	28032.08
783.717	28236.88
783.906	28687.43
784.096	27878.49
784.285	27708.51
784.474	27911.25
784.663	27892.82
784.853	27548.76
785.042	27536.48
785.231	27839.58
785.42	28353.62
785.61	27841.62
785.799	27550.81
785.988	27653.21
786.177	27679.83
786.366	27802.71
786.555	27565.15
786.744	27870.29
786.933	27903.06
787.122	27210.85
787.312	27393.12
787.501	27446.37
787.69	27784.28
787.879	27552.86
788.068	27434.08
788.257	27094.11
788.445	27309.15
788.634	27364.45
788.823	26770.54
789.012	28058.71
789.201	27843.67
789.39	27010.15
789.579	26698.86
789.768	27016.29
789.957	27305.06
790.145	27229.28
790.334	26877.03
790.523	26897.51
790.712	27122.79
790.9	27022.44
791.089	26328.17
791.278	27542.62
791.467	27034.72
791.655	26844.26
791.844	26915.94
792.033	26485.87
792.221	26553.45
792.41	26498.16
792.599	25967.73
792.787	26745.96
792.976	26934.37
793.164	26571.88
793.353	26301.55
793.541	26739.82
793.73	26883.17
793.918	26485.87
794.107	26266.74
794.295	26498.16
794.484	26416.24
794.672	26125.43
794.861	26553.45
795.049	26203.25
795.238	26678.38
795.426	26109.04
795.614	26279.02
795.803	26664.04
795.991	26721.38
796.179	26113.14
796.368	25879.67
796.556	26641.51
796.744	25830.52
796.932	25959.54
797.121	25476.22
797.309	26168.43
797.497	26233.97
797.685	25822.33
797.874	25910.39
798.062	26090.61
798.25	26274.93
798.438	25889.91
798.626	25795.7
798.814	26455.15
799.002	26451.05
799.19	26197.1
799.378	26070.13
799.566	26465.39
799.755	26336.37
799.943	25707.64
800.131	25627.77
800.318	26063.99
800.506	26082.42
800.694	25683.06
800.882	25885.81
801.07	26266.74
801.258	25891.96
801.446	25607.29
801.634	25885.81
801.822	25746.55
802.01	26072.18
802.197	25982.07
802.385	25963.64
802.573	26186.86
802.761	25756.79
802.949	25783.41
803.136	25711.74
803.324	26500.2
803.512	26393.71
803.699	25732.22
803.887	25691.26
804.075	26455.15
804.262	26371.18
804.45	25431.16
804.638	25939.06
804.825	26131.57
805.013	26031.22
805.201	26039.41
805.388	25842.81
805.576	26193.01
805.763	26549.35
805.951	25896.05
806.138	26410.09
806.326	26829.93
806.513	26461.29
806.701	26109.04
806.888	25982.07
807.075	26440.81
807.263	26758.25
807.45	25977.97
807.638	26496.11
807.825	27214.94
808.012	26553.45
808.2	26399.85
808.387	25998.45
808.574	26508.4
808.761	26956.9
808.949	26082.42
809.136	26211.44
809.323	26319.98
809.51	26846.31
809.698	26412.14
809.885	26211.44
810.072	26731.62
810.259	26885.22
810.446	26268.78
810.633	26362.99
810.82	26997.86
811.008	27001.96
811.195	26586.22
811.382	26745.96
811.569	26469.48
811.756	26236.02
811.943	26506.35
812.13	26457.2
812.317	26678.38
812.504	26625.13
812.691	26500.2
812.878	26393.71
813.064	26975.33
813.251	26625.13
813.438	26455.15
813.625	26551.4
813.812	26612.84
813.999	26999.91
814.186	26698.86
814.372	26406
814.559	26694.76
814.746	27104.35
814.933	26299.5
815.12	26510.44
815.306	26262.64
815.493	26301.55
815.68	26721.38
815.866	26494.06
816.053	27108.45
816.24	27040.87
816.426	26303.6
816.613	26139.76
816.799	27053.16
816.986	26733.67
817.173	26436.72
817.359	26143.86
817.546	26350.7
817.732	26127.47
817.919	26240.11
818.105	26475.63
818.292	26330.22
818.478	27055.2
818.665	26672.23
818.851	26301.55
819.037	27028.58
819.224	26285.17
819.41	25713.78
819.597	25900.15
819.783	26666.09
819.969	26586.22
820.156	25932.92
820.342	25902.2
820.528	27006.05
820.714	26164.34
820.901	26352.75
821.087	25824.37
821.273	26543.21
821.459	25783.41
821.646	25529.47
821.832	25836.66
822.018	26086.51
822.204	25769.08
822.39	25900.15
822.576	25683.06
822.762	25939.06
822.948	25830.52
823.134	25564.28
823.32	25377.92
823.507	25506.94
823.693	25760.89
823.879	25734.26
824.065	25412.73
824.25	25810.04
824.436	25416.83
824.622	25445.5
824.808	25617.53
824.994	25371.77
825.18	25531.51
825.366	24968.32
825.552	25193.6
825.738	25455.74
825.923	25310.33
826.109	25279.61
826.295	25316.48
826.481	25119.87
826.667	25621.63
826.852	25222.27
827.038	25097.35
827.224	25754.74
827.409	25734.26
827.595	24769.67
827.781	25068.67
827.966	25533.56
828.152	25336.96
828.338	25001.09
828.523	24224.91
828.709	24880.26
828.894	25023.62
829.08	24730.76
829.266	24753.29
829.451	25066.63
829.637	25199.74
829.822	24661.13
830.008	24861.83
830.193	24996.99
830.378	25222.27
830.564	24663.18
830.749	24106.13
830.935	24759.43
831.12	24284.3
831.305	24218.77
831.491	24026.26
831.676	24118.42
831.861	24401.04
832.047	24509.58
832.232	24278.16
832.417	24667.27
832.602	24433.8
832.788	23880.85
832.973	24140.94
833.158	24038.55
833.343	24345.74
833.528	23774.36
833.714	23919.76
833.899	24206.48
834.084	24577.16
834.269	24026.26
834.454	23876.76
834.639	24085.65
834.824	23938.19
835.009	23999.63
835.194	23837.84
835.379	24120.46
835.564	24067.22
835.749	23823.51
835.934	23676.05
836.119	24048.79
836.304	24028.31
836.489	23403.67
836.674	23817.36
836.859	23581.85
837.044	24171.66
837.228	23475.35
837.413	23133.34
837.598	24048.79
837.783	23903.38
837.968	23483.55
838.152	23567.51
838.337	23213.21
838.522	23862.42
838.707	23760.02
838.891	23542.94
839.076	23542.94
839.261	23547.03
839.445	23266.46
839.63	23037.09
839.815	23579.8
839.999	23153.82
840.184	22869.16
840.368	23018.66
840.553	23432.35
840.737	23448.73
840.922	22688.93
841.106	22543.53
841.291	22686.89
841.475	22981.79
841.66	22715.56
841.844	22564.01
842.029	23751.83
842.213	22869.16
842.397	22363.31
842.582	22437.03
842.766	23037.09
842.951	23088.29
843.135	22543.53
843.319	22602.92
843.504	22750.37
843.688	22744.23
843.872	22293.68
844.056	22480.04
844.241	22664.36
844.425	22785.19
844.609	22508.71
844.793	22279.34
844.977	23121.06
845.161	22379.69
845.346	22201.52
845.53	22054.06
845.714	22402.22
845.898	22996.13
846.082	21609.65
846.266	22199.47
846.45	22121.65
846.634	22318.25
846.818	21906.61
847.002	21906.61
847.186	22174.89
847.37	21945.52
847.554	21845.17
847.738	22062.26
847.922	22004.91
848.106	22031.54
848.29	21533.88
848.473	21920.95
848.657	22121.65
848.841	22084.78
849.025	21415.1
849.209	21619.89
849.392	22340.78
849.576	21847.22
849.76	21087.42
849.944	21601.46
850.127	21953.71
850.311	21226.68
850.495	21234.88
850.678	21361.85
850.862	21972.14
851.046	22041.78
851.229	21376.19
851.413	21226.68
851.596	21564.6
851.78	21771.44
851.964	21421.24
852.147	21380.28
852.331	22267.05
852.514	21894.32
852.698	21263.55
852.881	20882.63
853.065	21787.83
853.248	21265.6
853.431	21056.7
853.615	20870.34
853.798	21879.99
853.982	21193.92
854.165	21118.14
854.348	20782.27
854.532	20946.11
854.715	21093.57
854.898	20944.06
855.081	20921.54
855.265	21404.86
855.448	21419.19
855.631	20192.46
855.814	20368.59
855.997	21175.48
856.181	20708.55
856.364	20552.9
856.547	20466.89
856.73	20624.58
856.913	20667.59
857.096	20198.6
857.279	20155.6
857.462	20268.23
857.645	21138.62
857.828	20176.08
858.011	20409.54
858.194	19983.57
858.377	20518.09
858.56	20157.64
858.743	20264.14
858.926	20053.2
859.109	20499.66
859.292	20133.07
859.475	20079.82
859.658	20554.95
859.841	20563.14
860.023	19875.02
860.206	19756.24
860.389	19985.62
860.572	20421.83
860.755	19754.19
860.937	19932.37
861.12	19926.22
861.303	20131.02
861.486	19780.82
861.668	19684.56
861.851	19999.95
862.034	20042.96
862.216	19756.24
862.399	19068.13
862.581	19711.19
862.764	19666.13
862.947	19252.44
863.129	19340.5
863.312	19254.49
863.494	19952.85
863.677	19590.36
863.859	19244.25
864.042	19664.08
864.224	19838.16
864.406	19158.24
864.589	18920.67
864.771	19301.59
864.954	18912.48
865.136	18926.82
865.318	18377.96
865.501	19328.22
865.683	18652.39
865.865	18719.97
866.048	18619.62
866.23	18902.24
866.412	19113.18
866.594	18447.59
866.777	18935.01
866.959	18965.73
867.141	18711.78
867.323	18957.53
867.505	18736.35
867.687	18693.35
867.869	18902.24
868.052	18588.9
868.234	18416.87
868.416	18771.17
868.598	19014.88
868.78	18334.95
868.962	18363.62
869.144	19006.69
869.326	18957.53
869.508	18302.18
869.69	18230.51
869.872	18490.6
870.054	19117.28
870.236	18021.61
870.417	18312.42
870.599	18375.91
870.781	19117.28
870.963	18588.9
871.145	18226.41
871.327	18443.49
871.508	18629.86
871.69	18341.1
871.872	18267.37
872.054	18765.03
872.235	18369.77
872.417	18220.27
872.599	17929.45
872.78	19008.73
872.962	18300.14
873.144	18150.64
873.325	18443.49
873.507	18818.27
873.689	18560.23
873.87	18269.42
874.052	18339.05
874.233	18353.38
874.415	18601.19
874.596	18226.41
874.778	18027.76
874.959	18271.47
875.141	18728.16
875.322	18293.99
875.503	18185.45
875.685	18672.87
875.866	18097.39
876.048	18099.44
876.229	18232.55
876.41	18363.62
876.592	19012.83
876.773	18167.02
876.954	17958.13
877.136	19035.36
877.317	18306.28
877.498	18423.01
877.679	17945.84
877.86	18703.59
878.042	18449.64
878.223	18496.74
878.404	18453.73
878.585	18875.62
878.766	18930.91
878.947	18615.52
879.128	18423.01
879.309	19014.88
879.49	18711.78
879.672	18402.54
879.853	18486.5
880.034	18629.86
880.215	18638.05
880.396	18537.7
880.576	18668.77
880.757	18662.63
880.938	19383.51
881.119	18621.67
881.3	18853.09
881.481	18785.51
881.662	20032.72
881.843	18500.84
882.023	18494.69
882.204	18851.04
882.385	19246.3
882.566	18652.39
882.747	18758.88
882.927	18894.05
883.108	19303.64
883.289	18767.07
883.469	19029.21
883.65	18902.24
883.831	19135.71
884.011	19021.02
884.192	18830.56
884.373	19438.81
884.553	19324.12
884.734	19199.2
884.914	19248.35
885.095	20131.02
885.275	19590.36
885.456	19442.9
885.636	18902.24
885.817	19516.63
885.997	19363.03
886.178	19141.85
886.358	19129.56
886.538	19631.32
886.719	20151.5
886.899	19035.36
887.08	19487.96
887.26	19909.84
887.44	19447
887.621	19389.66
887.801	19166.43
887.981	20503.75
888.161	20135.12
888.342	19287.26
888.522	19821.78
888.702	19762.39
888.882	20171.98
889.062	19401.94
889.242	19348.7
889.423	20094.16
889.603	19746
889.783	19616.98
889.963	19104.99
890.143	19838.16
890.323	19754.19
890.503	19520.73
890.683	19643.6
890.863	19498.2
891.043	19741.91
891.223	19774.67
891.403	19713.24
891.583	19664.08
891.763	19782.87
891.943	19688.66
892.122	19639.51
892.302	19754.19
892.482	19922.13
892.662	19600.6
892.842	19551.45
893.022	20016.33
893.201	19317.98
893.381	19760.34
893.561	19250.39
893.741	20270.28
893.92	20098.25
894.1	19637.46
894.28	19692.76
894.459	19872.98
894.639	20337.87
894.819	19545.3
894.998	19899.6
895.178	20196.56
895.357	19946.7
895.537	19365.08
895.716	19547.35
895.896	19834.07
896.075	20288.71
896.255	19471.57
896.434	19043.55
896.614	20208.84
896.793	20282.57
896.973	19487.96
897.152	19578.07
897.331	19590.36
897.511	20012.24
897.69	19084.51
897.87	19705.04
898.049	19764.43
898.228	19999.95
898.407	19365.08
898.587	19627.22
898.766	19524.82
898.945	19602.64
899.124	19291.35
899.304	19447
899.483	19795.15
899.662	20067.53
899.841	19115.23
900.02	19307.74
900.199	19508.44
900.378	19436.76
900.557	18943.2
900.737	19016.93
900.916	19432.66
901.095	19913.94
901.274	19424.47
901.453	19092.7
901.632	19137.76
901.811	19113.18
901.989	18652.39
902.168	18750.69
902.347	19571.93
902.526	19182.81
902.705	18722.02
902.884	18967.77
903.063	19477.72
903.242	19477.72
903.42	18502.89
903.599	18867.42
903.778	19152.09
903.957	19332.31
904.135	18703.59
904.314	18898.14
904.493	18892
904.672	19186.91
904.85	18719.97
905.029	18701.54
905.207	18988.25
905.386	19688.66
905.565	18101.48
905.743	18838.75
905.922	18584.8
906.1	18912.48
906.279	17960.17
906.457	17868.02
906.636	18394.34
906.814	18441.45
906.993	18085.1
907.171	18023.66
907.35	18547.94
907.528	18425.06
907.707	18226.41
907.885	17825.01
908.063	18685.15
908.242	17984.75
908.42	18089.2
908.598	17804.53
908.777	18248.94
908.955	17962.22
909.133	18072.81
909.311	17718.51
909.49	18058.48
909.668	17804.53
909.846	17554.68
910.024	17208.57
910.202	18011.37
910.38	18187.5
910.559	17532.15
910.737	17253.62
910.915	17487.09
911.093	17773.81
911.271	17413.37
911.449	17808.62
911.627	17530.1
911.805	18216.17
911.983	17304.82
912.161	16928
912.339	17636.59
912.517	17579.25
912.695	17343.74
912.872	17179.9
913.05	17386.74
913.228	17444.09
913.406	16862.46
913.584	16897.28
913.762	17376.5
913.939	16635.14
914.117	16798.98
914.295	16725.25
914.473	17302.78
914.65	17120.51
914.828	16502.02
915.006	16391.43
915.184	16678.15
915.361	16887.04
915.539	16870.65
915.716	16753.92
915.894	16811.26
916.072	17009.92
916.249	16401.67
916.427	16631.04
916.604	16375.05
916.782	16606.47
916.959	15996.17
917.137	16370.95
917.314	16534.79
917.492	16489.73
917.669	16112.91
917.847	15975.69
918.024	16117
918.201	16127.24
918.379	15772.94
918.556	15844.62
918.733	16174.35
918.911	15637.78
919.088	15820.05
919.265	15539.47
919.442	15875.34
919.62	15562
919.797	15580.43
919.974	15355.16
920.151	15676.69
920.328	15430.93
920.506	15217.94
920.683	15621.39
920.86	15246.62
921.037	15174.94
921.214	15043.87
921.391	14955.8
921.568	15607.06
921.745	14888.22
921.922	15193.37
922.099	14820.64
922.276	15437.08
922.453	15314.2
922.63	14875.93
922.807	14929.18
922.984	15099.16
923.161	14802.21
923.338	14648.61
923.514	14331.17
923.691	14619.94
923.868	14798.11
924.045	14431.52
924.222	14251.3
924.399	14742.82
924.575	14589.22
924.752	14353.7
924.929	14404.9
925.105	14562.59
925.282	14114.09
925.459	13968.68
925.635	14134.57
925.812	14456.1
925.989	14196.01
926.165	14109.99
926.342	13688.11
926.518	13673.78
926.695	13686.06
926.871	13554.99
927.048	13387.06
927.224	14148.9
927.401	13405.49
927.577	13299
927.754	13337.91
927.93	13708.59
928.107	13751.6
928.283	13172.02
928.459	13376.82
928.636	13372.72
928.812	13253.94
928.988	12899.64
929.165	12750.14
929.341	12954.94
929.517	13083.96
929.693	13264.18
929.87	12401.99
930.046	12932.41
930.222	12608.83
930.398	12475.71
930.574	12547.39
930.751	12715.33
930.927	12600.64
931.103	12315.97
931.279	12379.46
931.455	12311.88
931.631	12303.68
931.807	12004.68
931.983	12000.58
932.159	12135.75
932.335	12195.14
932.511	11947.34
932.687	11867.47
932.863	12059.98
933.039	11910.47
933.215	11378
933.391	11263.32
933.566	11560.27
933.742	11601.23
933.918	11027.8
934.094	11003.22
934.27	11298.13
934.445	10999.13
934.621	11017.56
934.797	10599.77
934.973	11054.42
935.148	10870.11
935.324	10448.22
935.5	10132.84
935.675	10599.77
935.851	10286.44
936.027	10108.26
936.202	9786.73
936.378	9932.14
936.553	9831.79
936.729	9971.05
936.904	9198.96
937.08	9209.2
937.255	9045.37
937.431	8908.15
937.606	8533.37
937.782	8740.22
937.957	8732.03
938.133	8463.74
938.308	8168.84
938.483	8392.06
938.659	8015.24
938.834	7835.02
939.009	7777.67
939.185	7832.97
939.36	7544.2
939.535	7001.49
939.71	7404.94
939.886	7765.39
940.061	7642.51
940.236	7398.8
940.411	7077.27
940.586	7411.09
940.761	7269.78
940.937	6909.33
941.112	6620.57
941.287	6790.55
941.462	6819.22
941.637	6473.12
941.812	6557.08
941.987	6802.84
942.162	6690.2
942.337	6505.88
942.512	6229.41
942.687	6589.85
942.862	6612.38
943.037	5907.88
943.212	5877.16
943.386	6131.11
943.561	6374.81
943.736	6170.02
943.911	6301.09
944.086	6473.12
944.26	6294.94
944.435	5967.27
944.61	5979.56
944.785	6350.24
944.959	6487.45
945.134	5756.33
945.309	5813.67
945.483	5873.06
945.658	6081.96
945.833	5438.89
946.007	5477.8
946.182	6450.59
946.357	5764.52
946.531	5676.46
946.706	5832.1
946.88	5660.07
947.055	6129.06
947.229	5739.94
947.404	5639.59
947.578	6010.28
947.752	6030.76
947.927	5576.11
948.101	5711.27
948.276	6106.53
948.45	6041
948.624	5961.13
948.799	5557.68
948.973	6243.74
949.147	5787.05
949.321	5858.73
949.496	5729.7
949.67	6299.04
949.844	5940.65
950.018	5764.52
950.193	5739.94
950.367	6442.4
950.541	5926.31
950.715	5914.02
950.889	5909.93
951.063	5893.54
951.237	6167.97
951.411	5672.36
951.585	5606.83
951.759	6294.94
951.933	6221.22
952.107	5569.96
952.281	5987.75
952.455	6333.86
952.629	6196.64
952.803	5721.51
952.977	5744.04
953.151	6270.37
953.325	6147.49
953.499	5881.25
953.672	5690.79
953.846	5846.44
954.02	5803.43
954.194	5696.94
954.368	5655.98
954.541	6038.95
954.715	5825.96
954.889	5789.1
955.062	5606.83
955.236	5944.74
955.41	5774.76
955.583	5954.98
955.757	5512.62
955.93	5871.01
956.104	5672.36
956.278	5612.97
956.451	5731.75
956.625	6000.04
956.798	6374.81
956.972	6016.42
957.145	5434.8
957.319	5969.32
957.492	5858.73
957.665	5950.89
957.839	5373.36
958.012	6057.38
958.185	5696.94
958.359	5627.31
958.532	5795.24
958.705	5967.27
958.879	5834.15
959.052	5494.19
959.225	5393.84
959.398	5715.37
959.572	5746.09
959.745	5467.56
959.918	5563.82
960.091	5725.61
960.264	5885.35
960.438	5230
960.611	5340.59
960.784	5854.63
960.957	5440.94
961.13	5938.6
961.303	5332.4
961.476	5672.36
961.649	6067.62
961.822	5260.72
961.995	5516.72
962.168	5660.07
962.341	5713.32
962.514	5373.36
962.686	5350.83
962.859	5670.31
963.032	5713.32
963.205	5344.69
963.378	5094.83
963.551	5729.7
963.723	5545.39
963.896	5236.14
964.069	5477.8
964.242	5381.55
964.414	5696.94
964.587	5481.9
964.76	5356.97
964.932	5584.3
965.105	5496.24
965.278	5152.18
965.45	5154.23
965.623	5426.61
965.795	5541.29
965.968	5291.44
966.14	5197.23
966.313	5496.24
966.485	5547.44
966.658	5195.18
966.83	5246.38
967.003	5709.22
967.175	5754.28
967.348	5287.34
967.52	4947.38
967.692	5744.04
967.865	5397.93
968.037	5332.4
968.209	5311.92
968.382	5356.97
968.554	5451.18
968.726	5066.16
968.898	5211.57
969.071	5451.18
969.243	5445.04
969.415	4906.42
969.587	5074.35
969.759	5823.91
969.932	5645.74
970.104	5148.08
970.276	4775.35
970.448	5162.42
970.62	4967.86
970.792	5043.64
970.964	5139.89
971.136	5590.44
971.308	5393.84
971.48	4847.03
971.652	4988.34
971.824	5512.62
971.996	5049.78
972.168	5039.54
972.339	4908.47
972.511	5389.74
972.683	5023.16
972.855	5170.61
973.027	4951.48
973.199	5064.11
973.37	5230
973.542	4949.43
973.714	4881.85
973.886	5127.6
974.057	5256.62
974.229	4734.39
974.401	4795.83
974.572	4814.26
974.744	4558.27
974.915	4687.29
975.087	4447.68
975.259	5225.9
975.43	4855.22
975.602	4634.04
975.773	4443.58
975.945	4799.93
976.116	5002.68
976.288	4664.76
976.459	4808.12
976.63	4814.26
976.802	4947.38
976.973	4468.16
977.145	4769.21
977.316	5273.01
977.487	5131.7
977.659	4709.82
977.83	4668.86
978.001	5160.37
978.172	4816.31
978.344	4627.9
978.515	4687.29
978.686	4507.07
978.857	5162.42
979.028	4558.27
979.2	4521.4
979.371	4939.19
979.542	4726.2
979.713	4482.49
979.884	4210.11
980.055	4496.83
980.226	4599.23
980.397	4394.43
980.568	4357.57
980.739	4867.51
980.91	4539.83
981.081	4484.54
981.252	4298.17
981.423	4789.69
981.594	4687.29
981.765	4165.06
981.936	4539.83
982.106	4677.05
982.277	4746.68
982.448	4283.84
982.619	4302.27
982.79	4324.8
982.96	4734.39
983.131	4416.96
983.302	3909.06
983.472	4322.75
983.643	4484.54
983.814	4335.04
983.984	4185.54
984.155	4447.68
984.326	4650.43
984.496	4371.9
984.667	4095.43
984.837	4285.89
985.008	4709.82
985.178	4281.79
985.349	4277.69
985.519	4425.15
985.69	4296.13
985.86	4017.6
986.031	3968.45
986.201	4316.61
986.371	4394.43
986.542	3911.11
986.712	3726.79
986.882	4300.22
987.053	4302.27
987.223	4009.41
987.393	4046.27
987.563	4095.43
987.734	4275.65
987.904	4210.11
988.074	3894.72
988.244	4167.1
988.414	4031.94
988.585	3734.98
988.755	3941.83
988.925	4085.19
989.095	4519.36
989.265	3915.2
989.435	3859.91
989.605	4140.48
989.775	4242.88
989.945	4062.66
990.115	3665.35
990.285	4060.61
990.455	4120
990.625	3927.49
990.795	3702.22
990.965	4257.22
991.134	3800.52
991.304	3747.27
991.474	3741.13
991.644	3947.97
991.814	4283.84
991.984	3677.64
992.153	3710.41
992.323	3886.53
992.493	4001.22
992.662	3358.16
992.832	3792.33
993.002	3962.31
993.171	3966.4
993.341	3464.65
993.511	3718.6
993.68	3722.7
993.85	3952.07
994.019	3505.61
994.189	3517.9
994.358	3747.27
994.528	3720.65
994.697	3134.93
994.867	3360.2
995.036	3909.06
995.206	3796.42
995.375	3540.43
995.544	3526.09
995.714	3739.08
995.883	3677.64
996.052	3503.56
996.222	3288.53
996.391	4173.25
996.56	3745.22
996.73	3214.8
996.899	3196.37
997.068	3947.97
997.237	3509.71
997.406	3151.31
997.576	3116.5
997.745	3691.98
997.914	3636.68
998.083	3173.84
998.252	3270.09
998.421	3519.95
998.59	3296.72
998.759	3179.98
998.928	3163.6
999.097	3878.34
999.266	3485.13
999.435	3329.49
999.604	2928.08
999.773	3962.31
999.942	3392.97
1000.111	2985.43
1000.28	2950.61
1000.448	3231.18
1000.617	3196.37
1000.786	3302.86
1000.955	3036.63
1001.124	3575.24
1001.292	3990.98
1001.461	3030.48
1001.63	3030.48
1001.798	3659.21
1001.967	3749.32
1002.136	2840.02
1002.304	2934.23
1002.473	3386.83
1002.642	3349.96
1002.81	3034.58
1002.979	2876.88
1003.147	3231.18
1003.316	3775.94
1003.484	2934.23
1003.653	2805.21
1003.821	3309.01
1003.99	3171.79
1004.158	2903.51
1004.327	2981.33
1004.495	3198.42
1004.663	3122.64
1004.832	2917.84
1005	2711
1005.168	3272.14
1005.337	3108.3
1005.505	2674.14
1005.673	2893.27
1005.842	3206.61
1006.01	3206.61
1006.178	2606.55
1006.346	2788.82
1006.514	3116.5
1006.683	3278.29
1006.851	2735.57
1007.019	2541.02
1007.187	2870.74
1007.355	2508.25
1007.523	2502.11
1007.691	2592.22
1007.859	2713.05
1008.027	3186.13
1008.195	2739.67
1008.363	2577.88
1008.531	3141.07
1008.699	2854.36
1008.867	2463.19
1009.035	2584.02
1009.203	3206.61
1009.37	2878.93
1009.538	2559.45
1009.706	2907.6
1009.874	2854.36
1010.042	2688.47
1010.209	2272.73
1010.377	2418.14
1010.545	2979.28
1010.713	2860.5
1010.88	2352.6
1011.048	2395.61
1011.216	2663.9
1011.383	3042.77
1011.551	2319.84
1011.718	2375.13
1011.886	3038.67
1012.054	2743.77
1012.221	2272.73
1012.389	2336.22
1012.556	2729.43
1012.724	3190.22
1012.891	2450.91
1013.058	2207.2
1013.226	2776.53
1013.393	2807.25
1013.561	2072.03
1013.728	2115.04
1013.895	2860.5
1014.063	2794.97
1014.23	2180.57
1014.397	2166.24
1014.565	2721.24
1014.732	2567.64
1014.899	2174.43
1015.066	2072.03
1015.233	2694.61
1015.401	2745.81
1015.568	2246.11
1015.735	2319.84
1015.902	2532.83
1016.069	2637.27
1016.236	2156
1016.403	2141.66
1016.57	2190.81
1016.737	2741.72
1016.904	2268.64
1017.071	2018.79
1017.238	2260.45
1017.405	2502.11
1017.572	1955.3
1017.739	2276.83
1017.906	2461.15
1018.073	2622.94
1018.24	1953.25
1018.407	2033.12
1018.573	2612.7
1018.74	2221.53
1018.907	2004.45
1019.074	1912.29
1019.241	2538.97
1019.407	2321.88
1019.574	1891.81
1019.741	1666.53
1019.907	2442.71
1020.074	2344.41
1020.241	1752.55
1020.407	1805.8
1020.574	2364.89
1020.74	2366.94
1020.907	1928.67
1021.073	1916.39
1021.24	2756.05
1021.406	2553.31
1021.573	1850.85
1021.739	1777.12
1021.906	2225.63
1022.072	2125.28
1022.239	1959.39
1022.405	1893.86
1022.571	2127.33
1022.738	2043.36
1022.904	1877.48
1023.07	1826.28
1023.237	2100.7
1023.403	2330.08
1023.569	1656.29
1023.735	1766.89
1023.902	2117.09
1024.068	2080.22
1024.234	1517.03
1024.4	1658.34
1024.566	2149.86
1024.732	2264.54
1024.898	1680.87
1025.065	1490.41
1025.231	2258.4
1025.397	1844.71
1025.563	1744.36
1025.729	1500.65
1025.895	1607.14
1026.061	1664.49
1026.227	1338.86
1026.392	1535.46
1026.558	2256.35
1026.724	2049.5
1026.89	1566.18
1027.056	1621.48
1027.222	1988.07
1027.388	1797.6
1027.553	1525.22
1027.719	1416.68
1027.885	2186.72
1028.051	1986.02
1028.216	1293.8
1028.382	1457.64
1028.548	1971.68
1028.713	1752.55
1028.879	1406.44
1029.045	1514.98
1029.21	2160.1
1029.376	2137.57
1029.541	1474.03
1029.707	1510.89
1029.873	1871.33
1030.038	1918.43
1030.204	1396.2
1030.369	1412.59
1030.534	1992.16
1030.7	1615.34
1030.865	1541.61
1031.031	1318.38
1031.196	1961.44
1031.361	1736.17
1031.527	1375.72
1031.692	1324.52
1031.857	1236.46
1032.023	1928.67
1032.188	1279.47
1032.353	1359.34
1032.518	2051.55
1032.684	1717.73
1032.849	1150.45
1033.014	1332.72
1033.179	1785.32
1033.344	1725.93
1033.509	1265.13
1033.674	1408.49
1033.839	1803.75
1034.004	1867.24
1034.17	1379.82
1034.335	1207.79
1034.5	1549.8
1034.664	1342.96
1034.829	1281.52
1034.994	1312.24
1035.159	1572.33
1035.324	1557.99
1035.489	1234.41
1035.654	1119.73
1035.819	1877.48
1035.984	1625.58
1036.148	1101.3
1036.313	1086.96
1036.478	1711.59
1036.643	1502.7
1036.807	1222.13
1036.972	1091.06
1037.137	1830.37
1037.301	1523.18
1037.466	921.07
1037.631	1211.89
1037.795	1713.64
1037.96	1572.33
1038.124	1293.8
1038.289	1019.38
1038.454	1607.14
1038.618	1576.42
1038.783	1228.27
1038.947	1064.43
1039.111	1467.88
1039.276	1373.68
1039.44	980.47
1039.605	1502.7
1039.769	1297.9
1039.933	1457.64
1040.098	1156.59
1040.262	1240.56
1040.426	1549.8
1040.591	1506.79
1040.755	937.46
1040.919	1031.66
1041.083	1523.18
1041.248	1195.5
1041.412	882.16
1041.576	837.11
1041.74	1375.72
1041.904	1474.03
1042.068	898.55
1042.232	974.32
1042.397	1570.28
1042.561	1404.39
1042.725	667.13
1042.889	1162.73
1043.053	1396.2
1043.217	1375.72
1043.381	1064.43
1043.544	818.68
1043.708	1490.41
1043.872	996.85
1044.036	679.41
1044.2	818.68
1044.364	1539.56
1044.528	1560.04
1044.691	4165.06
1044.855	798.2
1045.019	1486.31
1045.183	1371.63
1045.346	904.69
1045.51	775.67
1045.674	1328.62
1045.837	1404.39
1046.001	876.02
1046.165	847.35
1046.328	1793.51
1046.492	1263.08
1046.655	939.51
1046.819	933.36
1046.983	1082.86
1047.146	1238.51
1047.31	882.16
1047.473	564.73
1047.636	1170.93
1047.8	886.26
1047.963	843.25
1048.127	671.22
1048.29	982.51
