Data from Ink_Intensity_USB4F045381__56__00056.txt Node

Date: Mon Jul 17 10:17:46 EDT 2023
User: mmckonesweet
Spectrometer: USB4F04538
Trigger mode: 4
Integration Time (sec): 9.000000E-1
Scans to average: 1
Electric dark correction enabled: true
Nonlinearity correction enabled: false
Boxcar width: 0
XAxis mode: Wavelengths
Number of Pixels in Spectrum: 3648
>>>>>Begin Spectral Data<<<<<
345.52	-1038.15
345.736	-1038.15
345.952	-1038.15
346.168	-1068.87
346.384	-960.33
346.6	-114.52
346.816	-249.68
347.032	-229.2
347.248	282.79
347.464	-161.62
347.68	-163.67
347.896	110.76
348.112	393.38
348.328	-57.17
348.544	-51.03
348.76	-77.65
348.975	317.61
349.191	-253.78
349.407	-182.1
349.623	32.94
349.839	-89.94
350.055	-132.95
350.27	82.09
350.486	157.86
350.702	303.27
350.918	192.68
351.133	-182.1
351.349	151.72
351.565	438.44
351.781	-290.64
351.996	28.84
352.212	280.74
352.428	-91.99
352.644	-169.81
352.859	-233.3
353.075	227.5
353.291	75.95
353.506	-139.09
353.722	-241.49
353.938	-91.99
354.153	385.19
354.369	32.94
354.584	-198.48
354.8	204.97
355.016	-382.8
355.231	-247.63
355.447	-46.93
355.662	98.47
355.878	805.02
356.093	-409.42
356.309	-26.45
356.524	-307.02
356.74	223.4
356.955	-167.76
357.171	-46.93
357.386	159.91
357.602	-266.07
357.817	-71.51
358.033	-259.92
358.248	397.48
358.464	190.63
358.679	-153.43
358.895	-429.9
359.11	-77.65
359.325	327.85
359.541	6.31
359.756	-26.45
359.972	-278.35
360.187	145.58
360.402	-231.25
360.618	-110.42
360.833	950.43
361.048	63.66
361.264	-180.05
361.479	-44.88
361.694	22.7
361.909	174.25
362.125	-229.2
362.34	-147.28
362.555	270.5
362.77	-16.21
362.986	-390.99
363.201	-143.19
363.416	90.28
363.631	-51.03
363.847	-284.5
364.062	-206.67
364.277	192.68
364.492	65.71
364.707	-182.1
364.922	-382.8
365.138	241.83
365.353	295.08
365.568	-278.35
365.783	-130.9
365.998	57.51
366.213	549.03
366.428	-282.45
366.643	53.42
366.858	288.93
367.073	153.77
367.288	-159.57
367.503	-233.3
367.718	73.9
367.933	338.09
368.148	-261.97
368.363	-83.8
368.578	20.65
368.793	411.81
369.008	-132.95
369.223	-300.88
369.438	112.81
369.653	303.27
369.868	-339.79
370.083	-268.11
370.298	59.56
370.513	348.33
370.728	6.31
370.943	-225.11
371.157	-184.15
371.372	510.11
371.587	-364.37
371.802	-288.59
372.017	28.84
372.232	323.75
372.446	-100.18
372.661	-233.3
372.876	200.87
373.091	213.16
373.306	-135
373.52	-243.54
373.735	-233.3
373.95	372.9
374.165	-73.56
374.379	-173.91
374.594	-194.39
374.809	143.53
375.023	6.31
375.238	-298.83
375.453	209.06
375.667	-300.88
375.882	-239.44
376.097	-255.83
376.311	-48.98
376.526	-48.98
376.741	-255.83
376.955	4.27
377.17	536.74
377.384	530.59
377.599	-61.27
377.813	-300.88
378.028	524.45
378.242	73.9
378.457	-55.12
378.672	-438.09
378.886	49.32
379.101	-77.65
379.315	-329.55
379.53	-141.14
379.744	145.58
379.958	161.96
380.173	-175.95
380.387	-233.3
380.602	151.72
380.816	-198.48
381.031	-237.39
381.245	-198.48
381.459	127.14
381.674	2572.42
381.888	-337.74
382.103	51.37
382.317	-184.15
382.531	354.47
382.746	-122.71
382.96	-202.58
383.174	-157.52
383.388	354.47
383.603	77.99
383.817	-372.56
384.031	151.72
384.246	481.44
384.46	-16.21
384.674	358.57
384.888	-10.07
385.103	118.95
385.317	-327.5
385.531	-28.5
385.745	282.79
385.959	311.46
386.174	-208.72
386.388	-294.74
386.602	-48.98
386.816	-137.04
387.03	-149.33
387.244	-116.56
387.458	37.03
387.672	342.18
387.887	-319.31
388.101	-343.89
388.315	276.65
388.529	129.19
388.743	-151.38
388.957	-223.06
389.171	325.8
389.385	-323.41
389.599	-147.28
389.813	-14.17
390.027	135.34
390.241	626.85
390.455	-237.39
390.669	-118.61
390.883	-169.81
391.097	329.89
391.311	-5.97
391.525	-165.71
391.738	200.87
391.952	200.87
392.166	-91.99
392.38	-188.24
392.594	231.59
392.808	319.65
393.022	-77.65
393.236	-137.04
393.449	176.3
393.663	82.09
393.877	-327.5
394.091	-98.13
394.305	-75.6
394.518	-165.71
394.732	-313.17
394.946	-210.77
395.16	473.25
395.373	123.05
395.587	-249.68
395.801	-204.63
396.015	254.12
396.228	168.1
396.442	-356.18
396.656	-362.32
396.869	282.79
397.083	448.68
397.297	-87.89
397.51	-184.15
397.724	301.22
397.938	94.38
398.151	-395.09
398.365	-323.41
398.578	184.49
398.792	247.97
399.005	-20.31
399.219	-153.43
399.433	65.71
399.646	143.53
399.86	-59.22
400.073	-61.27
400.287	139.43
400.5	-71.51
400.714	-46.93
400.927	-94.04
401.141	168.1
401.354	1085.59
401.567	118.95
401.781	-376.66
401.994	186.54
402.208	520.35
402.421	-178
402.635	-171.86
402.848	-61.27
403.061	227.5
403.275	-40.79
403.488	-274.26
403.701	395.43
403.915	137.38
404.128	-16.21
404.341	-147.28
404.555	155.82
404.768	-102.23
404.981	-34.64
405.195	-163.67
405.408	514.21
405.621	217.26
405.834	47.27
406.048	-247.63
406.261	358.57
406.474	467.11
406.687	-274.26
406.9	-32.6
407.114	-57.17
407.327	102.57
407.54	-317.26
407.753	-376.66
407.966	-132.95
408.179	174.25
408.392	-261.97
408.605	-360.27
408.819	161.96
409.032	202.92
409.245	-266.07
409.458	37.03
409.671	170.15
409.884	182.44
410.097	-268.11
410.31	14.51
410.523	188.58
410.736	-65.36
410.949	-159.57
411.162	-153.43
411.375	342.18
411.588	245.93
411.801	-61.27
412.014	-311.12
412.227	-112.47
412.44	-126.8
412.653	-196.43
412.865	-24.4
413.078	219.3
413.291	178.34
413.504	-192.34
413.717	-229.2
413.93	213.16
414.143	-157.52
414.356	-225.11
414.568	-401.23
414.781	219.3
414.994	45.23
415.207	-188.24
415.42	-89.94
415.632	235.69
415.845	477.35
416.058	-302.93
416.271	-352.08
416.483	73.9
416.696	403.62
416.909	-151.38
417.121	-266.07
417.334	114.86
417.547	467.11
417.759	-266.07
417.972	-249.68
418.185	-149.33
418.397	161.96
418.61	-235.35
418.823	-212.82
419.035	446.63
419.248	20.65
419.46	-139.09
419.673	-91.99
419.885	161.96
420.098	-1.88
420.311	-157.52
420.523	-438.09
420.736	82.09
420.948	37.03
421.161	-218.96
421.373	-446.29
421.586	28.84
421.798	-135
422.01	-366.42
422.223	-46.93
422.435	-100.18
422.648	211.11
422.86	-319.31
423.073	-204.63
423.285	260.26
423.497	-276.31
423.71	-257.87
423.922	-223.06
424.134	141.48
424.347	352.42
424.559	53.42
424.771	61.61
424.984	2.22
425.196	106.67
425.408	-434
425.621	-352.08
425.833	215.21
426.045	299.17
426.257	-221.01
426.47	-192.34
426.682	153.77
426.894	59.56
427.106	-247.63
427.318	-184.15
427.531	-178
427.743	188.58
427.955	-286.54
428.167	200.87
428.379	178.34
428.591	12.46
428.804	-75.6
429.016	-216.91
429.228	-85.84
429.44	118.95
429.652	-26.45
429.864	-427.85
430.076	-8.02
430.288	-44.88
430.5	-167.76
430.712	-149.33
430.924	172.2
431.136	43.18
431.348	-409.42
431.56	-223.06
431.772	-61.27
431.984	-126.8
432.196	-325.46
432.408	-216.91
432.62	-36.69
432.832	143.53
433.044	30.89
433.256	-46.93
433.468	151.72
433.679	-284.5
433.891	-280.4
434.103	-59.22
434.315	311.46
434.527	186.54
434.739	-57.17
434.95	-171.86
435.162	217.26
435.374	-249.68
435.586	-184.15
435.798	-268.11
436.009	-229.2
436.221	-110.42
436.433	-282.45
436.645	-200.53
436.856	-122.71
437.068	278.69
437.28	-249.68
437.491	77.99
437.703	137.38
437.915	14.51
438.126	-98.13
438.338	-12.12
438.55	-1.88
438.761	131.24
438.973	-200.53
439.184	-178
439.396	108.71
439.608	235.69
439.819	-323.41
440.031	-155.47
440.242	131.24
440.454	106.67
440.665	-194.39
440.877	-116.56
441.088	102.57
441.3	-65.36
441.511	-321.36
441.723	-266.07
441.934	104.62
442.146	67.75
442.357	-98.13
442.569	77.99
442.78	-3.93
442.991	407.72
443.203	90.28
443.414	-259.92
443.626	315.56
443.837	-132.95
444.048	-190.29
444.26	-393.04
444.471	53.42
444.682	258.21
444.894	-450.38
445.105	-403.28
445.316	219.3
445.528	84.14
445.739	-135
445.95	-192.34
446.161	4.27
446.373	252.07
446.584	-204.63
446.795	-178
447.006	192.68
447.217	342.18
447.429	-331.6
447.64	-272.21
447.851	217.26
448.062	96.43
448.273	-526.16
448.484	-280.4
448.695	174.25
448.907	-36.69
449.118	-77.65
449.329	80.04
449.54	-73.56
449.751	-190.29
449.962	-223.06
450.173	-212.82
450.384	266.41
450.595	331.94
450.806	-294.74
451.017	-139.09
451.228	344.23
451.439	211.11
451.65	-192.34
451.861	-421.71
452.072	-253.78
452.283	8.36
452.494	-102.23
452.705	-272.21
452.915	352.42
453.126	88.23
453.337	-135
453.548	-237.39
453.759	266.41
453.97	503.97
454.181	69.8
454.391	-184.15
454.602	86.19
454.813	229.54
455.024	-178
455.235	-339.79
455.445	67.75
455.656	102.57
455.867	-69.46
456.078	-257.87
456.288	-130.9
456.499	49.32
456.71	-245.59
456.921	-5.97
457.131	106.67
457.342	63.66
457.553	-128.85
457.763	-161.62
457.974	114.86
458.184	184.49
458.395	-360.27
458.606	-362.32
458.816	276.65
459.027	401.57
459.237	-102.23
459.448	-378.7
459.659	264.36
459.869	407.72
460.08	-444.24
460.29	-53.08
460.501	475.3
460.711	-145.24
460.922	-356.18
461.132	-284.5
461.343	589.99
461.553	-282.45
461.764	-229.2
461.974	-198.48
462.184	229.54
462.395	86.19
462.605	-229.2
462.816	-347.98
463.026	104.62
463.236	276.65
463.447	-278.35
463.657	-311.12
463.867	233.64
464.078	-71.51
464.288	-165.71
464.498	-251.73
464.709	-14.17
464.919	-12.12
465.129	-155.47
465.339	-247.63
465.55	49.32
465.76	176.3
465.97	-300.88
466.18	-302.93
466.391	250.02
466.601	-36.69
466.811	-126.8
467.021	-419.66
467.231	77.99
467.441	315.56
467.651	-221.01
467.862	-448.33
468.072	-57.17
468.282	274.6
468.492	-276.31
468.702	-274.26
468.912	0.17
469.122	598.18
469.332	-34.64
469.542	-239.44
469.752	202.92
469.962	-59.22
470.172	-298.83
470.382	-296.78
470.592	112.81
470.802	262.31
471.012	-143.19
471.222	-286.54
471.432	180.39
471.642	161.96
471.852	-147.28
472.062	-329.55
472.272	-126.8
472.482	-339.79
472.691	-319.31
472.901	-368.46
473.111	37.03
473.321	516.26
473.531	-286.54
473.741	-91.99
473.95	131.24
474.16	221.35
474.37	-77.65
474.58	-325.46
474.79	432.29
474.999	217.26
475.209	-315.22
475.419	-231.25
475.628	-59.22
475.838	176.3
476.048	-198.48
476.258	-294.74
476.467	307.37
476.677	-153.43
476.886	-36.69
477.096	-151.38
477.306	-210.77
477.515	293.03
477.725	-151.38
477.935	-153.43
478.144	274.6
478.354	-141.14
478.563	-165.71
478.773	-335.7
478.982	241.83
479.192	270.5
479.401	-171.86
479.611	-294.74
479.82	-208.72
480.03	80.04
480.239	-323.41
480.449	-304.98
480.658	397.48
480.868	-173.91
481.077	-141.14
481.287	-307.02
481.496	86.19
481.705	315.56
481.915	-40.79
482.124	53.42
482.333	20.65
482.543	379.04
482.752	-188.24
482.961	-233.3
483.171	194.73
483.38	20.65
483.589	-198.48
483.799	-249.68
484.008	-18.26
484.217	217.26
484.426	-184.15
484.636	-325.46
484.845	14.51
485.054	-247.63
485.263	69.8
485.472	-221.01
485.682	381.09
485.891	63.66
486.1	-468.81
486.309	-225.11
486.518	219.3
486.727	338.09
486.936	-294.74
487.146	-57.17
487.355	331.94
487.564	-241.49
487.773	-204.63
487.982	-233.3
488.191	-110.42
488.4	14.51
488.609	-280.4
488.818	-235.35
489.027	491.68
489.236	344.23
489.445	-266.07
489.654	-298.83
489.863	223.4
490.072	110.76
490.281	71.85
490.49	-266.07
490.698	303.27
490.907	288.93
491.116	-204.63
491.325	-409.42
491.534	424.1
491.743	67.75
491.952	-122.71
492.16	-85.84
492.369	217.26
492.578	192.68
492.787	-130.9
492.996	-411.47
493.204	-161.62
493.413	430.24
493.622	-495.44
493.831	-417.61
494.039	405.67
494.248	-227.15
494.457	-270.16
494.665	-395.09
494.874	127.14
495.083	446.63
495.291	-212.82
495.5	-339.79
495.709	166.06
495.917	118.95
496.126	-73.56
496.335	-298.83
496.543	-53.08
496.752	47.27
496.96	82.09
497.169	-360.27
497.377	104.62
497.586	278.69
497.794	-126.8
498.003	-495.44
498.211	-28.5
498.42	344.23
498.628	-167.76
498.837	-321.36
499.045	159.91
499.254	20.65
499.462	-364.37
499.671	-266.07
499.879	391.33
500.087	221.35
500.296	-298.83
500.504	-216.91
500.713	121
500.921	510.11
501.129	-282.45
501.338	-196.43
501.546	77.99
501.754	-20.31
501.962	-212.82
502.171	-307.02
502.379	96.43
502.587	499.88
502.795	-198.48
503.004	-216.91
503.212	-22.36
503.42	241.83
503.628	-317.26
503.837	-216.91
504.045	221.35
504.253	413.86
504.461	-282.45
504.669	-450.38
504.877	256.17
505.085	452.77
505.294	-370.51
505.502	-83.8
505.71	24.75
505.918	176.3
506.126	-290.64
506.334	-272.21
506.542	-100.18
506.75	20.65
506.958	-198.48
507.166	-112.47
507.374	-126.8
507.582	510.11
507.79	-89.94
507.998	-270.16
508.206	196.78
508.414	131.24
508.622	-237.39
508.83	-231.25
509.037	383.14
509.245	-79.7
509.453	-257.87
509.661	-266.07
509.869	237.74
510.077	0.17
510.285	-61.27
510.492	-520.01
510.7	649.38
510.908	-8.02
511.116	-229.2
511.324	-284.5
511.531	-153.43
511.739	53.42
511.947	-94.04
512.155	28.84
512.362	47.27
512.57	-247.63
512.778	-270.16
512.985	-393.04
513.193	250.02
513.401	352.42
513.608	-192.34
513.816	-218.96
514.024	100.52
514.231	321.7
514.439	-317.26
514.646	-233.3
514.854	172.2
515.061	270.5
515.269	-180.05
515.477	-264.02
515.684	-102.23
515.892	311.46
516.099	-350.03
516.307	-327.5
516.514	219.3
516.722	444.58
516.929	-184.15
517.136	-319.31
517.344	417.96
517.551	98.47
517.759	-266.07
517.966	-210.77
518.173	-28.5
518.381	-38.74
518.588	-175.95
518.796	-317.26
519.003	211.11
519.21	43.18
519.418	-343.89
519.625	77.99
519.832	-53.08
520.039	102.57
520.247	-403.28
520.454	-241.49
520.661	213.16
520.868	174.25
521.076	-196.43
521.283	-122.71
521.49	630.95
521.697	153.77
521.904	-218.96
522.112	-229.2
522.319	178.34
522.526	164.01
522.733	-268.11
522.94	-339.79
523.147	20.65
523.354	200.87
523.561	-462.67
523.768	-188.24
523.975	231.59
524.183	86.19
524.39	-161.62
524.597	-378.7
524.804	37.03
525.011	-126.8
525.218	-253.78
525.425	-282.45
525.632	348.33
525.838	-132.95
526.045	-253.78
526.252	-268.11
526.459	1136.79
526.666	848.03
526.873	-339.79
527.08	-196.43
527.287	452.77
527.494	293.03
527.701	-366.42
527.907	-288.59
528.114	145.58
528.321	-5.97
528.528	-206.67
528.735	-257.87
528.941	10.41
529.148	-71.51
529.355	-180.05
529.562	-315.22
529.768	458.92
529.975	8.36
530.182	-223.06
530.388	-327.5
530.595	262.31
530.802	-149.33
531.008	-114.52
531.215	-229.2
531.422	676
531.628	817.31
531.835	-153.43
532.042	-108.37
532.248	-120.66
532.455	143.53
532.661	-204.63
532.868	-268.11
533.074	65.71
533.281	227.5
533.487	-110.42
533.694	-266.07
533.9	-233.3
534.107	90.28
534.313	-313.17
534.52	-364.37
534.726	293.03
534.933	489.64
535.139	-288.59
535.345	-384.85
535.552	184.49
535.758	53.42
535.965	-165.71
536.171	-218.96
536.377	215.21
536.584	391.33
536.79	-216.91
536.996	-188.24
537.203	80.04
537.409	190.63
537.615	-180.05
537.821	-102.23
538.028	239.78
538.234	293.03
538.44	-253.78
538.646	-132.95
538.853	254.12
539.059	-26.45
539.265	176.3
539.471	-378.7
539.677	194.73
539.883	-26.45
540.09	-208.72
540.296	161.96
540.502	110.76
540.708	-104.28
540.914	-61.27
541.12	-239.44
541.326	186.54
541.532	20.65
541.738	-118.61
541.944	-180.05
542.15	280.74
542.356	4.27
542.562	-261.97
542.768	-192.34
542.974	686.24
543.18	577.7
543.386	-198.48
543.592	-347.98
543.798	501.92
544.004	348.33
544.21	-337.74
544.415	-165.71
544.621	151.72
544.827	348.33
545.033	-264.02
545.239	37.03
545.445	-216.91
545.651	164.01
545.856	-221.01
546.062	-253.78
546.268	-32.6
546.474	127.14
546.679	-124.76
546.885	-128.85
547.091	-155.47
547.297	573.6
547.502	-102.23
547.708	-317.26
547.914	-96.08
548.119	270.5
548.325	-321.36
548.531	-319.31
548.736	409.76
548.942	-18.26
549.147	-200.53
549.353	49.32
549.559	393.38
549.764	180.39
549.97	-83.8
550.175	-186.19
550.381	229.54
550.586	0.17
550.792	-145.24
550.997	-165.71
551.203	227.5
551.408	239.78
551.614	-255.83
551.819	-218.96
552.025	473.25
552.23	573.6
552.435	-356.18
552.641	-44.88
552.846	-180.05
553.052	340.13
553.257	-81.75
553.462	-182.1
553.668	-57.17
553.873	243.88
554.078	-311.12
554.283	-198.48
554.489	141.48
554.694	37.03
554.899	-235.35
555.105	-10.07
555.31	215.21
555.515	329.89
555.72	-67.41
555.925	-356.18
556.131	258.21
556.336	-51.03
556.541	-208.72
556.746	-282.45
556.951	407.72
557.156	475.3
557.361	-55.12
557.567	-118.61
557.772	688.29
557.977	241.83
558.182	-178
558.387	-173.91
558.592	37.03
558.797	389.28
559.002	-55.12
559.207	-3.93
559.412	108.71
559.617	493.73
559.822	-196.43
560.027	-274.26
560.232	221.35
560.437	250.02
560.642	-257.87
560.847	-315.22
561.051	90.28
561.256	104.62
561.461	-175.95
561.666	-266.07
561.871	153.77
562.076	198.82
562.281	-171.86
562.485	-313.17
562.69	303.27
562.895	368.81
563.1	-171.86
563.305	-255.83
563.509	434.34
563.714	620.71
563.919	-204.63
564.123	-251.73
564.328	26.79
564.533	407.72
564.737	-102.23
564.942	-96.08
565.147	524.45
565.351	616.61
565.556	-104.28
565.761	-89.94
565.965	170.15
566.17	-118.61
566.374	-102.23
566.579	-268.11
566.784	164.01
566.988	12.46
567.193	-251.73
567.397	-196.43
567.602	-206.67
567.806	45.23
568.011	-51.03
568.215	-108.37
568.42	86.19
568.624	108.71
568.828	-159.57
569.033	37.03
569.237	209.06
569.442	192.68
569.646	-280.4
569.85	-151.38
570.055	88.23
570.259	166.06
570.463	49.32
570.668	-124.76
570.872	63.66
571.076	104.62
571.281	28.84
571.485	-40.79
571.689	137.38
571.893	301.22
572.098	-22.36
572.302	-106.32
572.506	247.97
572.71	77.99
572.914	-69.46
573.119	-233.3
573.323	444.58
573.527	415.91
573.731	-165.71
573.935	-264.02
574.139	168.1
574.343	-102.23
574.547	-114.52
574.751	-151.38
574.955	446.63
575.159	417.96
575.364	-186.19
575.568	-212.82
575.772	209.06
575.976	430.24
576.18	-151.38
576.383	-268.11
576.587	407.72
576.791	368.81
576.995	-276.31
577.199	-321.36
577.403	309.41
577.607	389.28
577.811	-245.59
578.015	-108.37
578.219	172.2
578.422	323.75
578.626	-18.26
578.83	34.99
579.034	430.24
579.238	127.14
579.442	-206.67
579.645	272.55
579.849	125.1
580.053	196.78
580.257	-122.71
580.46	-20.31
580.664	315.56
580.868	202.92
581.071	51.37
581.275	-12.12
581.479	-126.8
581.682	301.22
581.886	-214.87
582.09	-12.12
582.293	403.62
582.497	395.43
582.7	69.8
582.904	-192.34
583.107	129.19
583.311	94.38
583.515	-67.41
583.718	-81.75
583.922	321.7
584.125	528.55
584.329	-147.28
584.532	41.13
584.735	465.06
584.939	239.78
585.142	-302.93
585.346	-141.14
585.549	243.88
585.753	20.65
585.956	-112.47
586.159	84.14
586.363	530.59
586.566	207.02
586.769	-188.24
586.973	-192.34
587.176	229.54
587.379	452.77
587.582	155.82
587.786	100.52
587.989	194.73
588.192	764.06
588.395	10.41
588.599	219.3
588.802	250.02
589.005	374.95
589.208	-91.99
589.411	-73.56
589.615	424.1
589.818	612.51
590.021	170.15
590.224	49.32
590.427	338.09
590.63	303.27
590.833	-311.12
591.036	-180.05
591.239	69.8
591.442	77.99
591.645	190.63
591.848	-81.75
592.051	313.51
592.254	282.79
592.457	-16.21
592.66	-108.37
592.863	129.19
593.066	297.13
593.269	-143.19
593.472	98.47
593.675	-8.02
593.878	432.29
594.081	22.7
594.284	-182.1
594.486	338.09
594.689	125.1
594.892	63.66
595.095	-38.74
595.298	342.18
595.5	51.37
595.703	67.75
595.906	106.67
596.109	524.45
596.311	481.44
596.514	-325.46
596.717	65.71
596.92	481.44
597.122	342.18
597.325	-343.89
597.528	-139.09
597.73	483.49
597.933	174.25
598.136	-46.93
598.338	-255.83
598.541	286.89
598.743	536.74
598.946	-114.52
599.148	-34.64
599.351	536.74
599.554	311.46
599.756	67.75
599.959	-91.99
600.161	424.1
600.363	792.73
600.566	151.72
600.768	-8.02
600.971	555.17
601.173	385.19
601.376	-135
601.578	45.23
601.78	288.93
601.983	784.54
602.185	-53.08
602.388	88.23
602.59	348.33
602.792	121
602.995	98.47
603.197	-20.31
603.399	444.58
603.601	278.69
603.804	37.03
604.006	-40.79
604.208	143.53
604.41	-71.51
604.613	75.95
604.815	-38.74
605.017	790.69
605.219	32.94
605.421	297.13
605.623	-20.31
605.826	546.98
606.028	628.9
606.23	-20.31
606.432	-118.61
606.634	618.66
606.836	499.88
607.038	-18.26
607.24	82.09
607.442	200.87
607.644	307.37
607.846	61.61
608.048	-112.47
608.25	528.55
608.452	112.81
608.654	61.61
608.856	-282.45
609.058	221.35
609.26	426.15
609.462	129.19
609.664	-3.93
609.866	794.78
610.067	471.2
610.269	135.34
610.471	-26.45
610.673	184.49
610.875	307.37
611.077	-165.71
611.278	118.95
611.48	262.31
611.682	708.77
611.884	170.15
612.085	-18.26
612.287	110.76
612.489	381.09
612.69	-149.33
612.892	133.29
613.094	546.98
613.295	340.13
613.497	-149.33
613.699	-5.97
613.9	600.23
614.102	508.07
614.304	65.71
614.505	-71.51
614.707	280.74
614.908	213.16
615.11	-145.24
615.311	67.75
615.513	442.53
615.714	528.55
615.916	-53.08
616.117	75.95
616.319	145.58
616.52	420
616.722	-20.31
616.923	-10.07
617.124	516.26
617.326	407.72
617.527	121
617.729	256.17
617.93	483.49
618.131	440.48
618.333	24.75
618.534	88.23
618.735	24.75
618.937	684.19
619.138	-100.18
619.339	-206.67
619.54	368.81
619.742	131.24
619.943	202.92
620.144	49.32
620.345	491.68
620.546	483.49
620.748	-28.5
620.949	41.13
621.15	358.57
621.351	360.61
621.552	28.84
621.753	-96.08
621.954	-73.56
622.155	727.2
622.356	-3.93
622.558	229.54
622.759	293.03
622.96	725.15
623.161	43.18
623.362	18.6
623.563	192.68
623.764	323.75
623.965	14.51
624.166	233.64
624.366	266.41
624.567	377
624.768	-261.97
624.969	16.55
625.17	219.3
625.371	471.2
625.572	149.67
625.773	-34.64
625.973	458.92
626.174	413.86
626.375	69.8
626.576	96.43
626.777	508.07
626.977	831.65
627.178	84.14
627.379	110.76
627.58	280.74
627.78	336.04
627.981	112.81
628.182	155.82
628.382	540.83
628.583	-67.41
628.784	-69.46
628.984	166.06
629.185	409.76
629.386	477.35
629.586	219.3
629.787	-10.07
629.987	348.33
630.188	256.17
630.388	133.29
630.589	61.61
630.79	882.85
630.99	387.24
631.191	200.87
631.391	161.96
631.591	530.59
631.792	739.49
631.992	198.82
632.193	67.75
632.393	735.39
632.594	321.7
632.794	102.57
632.994	252.07
633.195	333.99
633.395	329.89
633.595	-16.21
633.796	350.37
633.996	184.49
634.196	639.14
634.397	-163.67
634.597	227.5
634.797	131.24
634.997	659.62
635.198	323.75
635.398	-85.84
635.598	450.72
635.798	635.04
635.998	546.98
636.199	-18.26
636.399	194.73
636.599	88.23
636.799	118.95
636.999	393.38
637.199	452.77
637.399	569.51
637.599	80.04
637.799	327.85
637.999	252.07
638.199	776.35
638.399	24.75
638.599	196.78
638.799	520.35
638.999	825.5
639.199	348.33
639.399	176.3
639.599	688.29
639.799	198.82
639.999	8.36
640.199	37.03
640.399	463.01
640.599	401.57
640.799	221.35
640.998	256.17
641.198	614.56
641.398	458.92
641.598	278.69
641.798	159.91
641.997	1304.73
642.197	348.33
642.397	164.01
642.597	237.74
642.796	532.64
642.996	671.9
643.196	227.5
643.395	34.99
643.595	477.35
643.795	12.46
643.994	102.57
644.194	241.83
644.394	573.6
644.593	430.24
644.793	26.79
644.992	215.21
645.192	501.92
645.392	-57.17
645.591	325.8
645.791	184.49
645.99	585.89
646.19	336.04
646.389	147.62
646.589	145.58
646.788	516.26
646.987	569.51
647.187	454.82
647.386	344.23
647.586	442.53
647.785	606.37
647.984	198.82
648.184	217.26
648.383	286.89
648.582	358.57
648.782	194.73
648.981	250.02
649.18	258.21
649.38	426.15
649.579	180.39
649.778	49.32
649.977	495.78
650.177	489.64
650.376	211.11
650.575	49.32
650.774	839.84
650.973	176.3
651.173	-36.69
651.372	225.45
651.571	452.77
651.77	604.32
651.969	252.07
652.168	299.17
652.367	104.62
652.566	325.8
652.765	186.54
652.964	442.53
653.163	872.61
653.362	475.3
653.561	207.02
653.76	143.53
653.959	278.69
654.158	530.59
654.357	370.85
654.556	180.39
654.755	520.35
654.954	608.42
655.153	245.93
655.352	180.39
655.551	622.75
655.749	405.67
655.948	352.42
656.147	344.23
656.346	479.4
656.545	342.18
656.743	207.02
656.942	290.98
657.141	442.53
657.34	176.3
657.538	188.58
657.737	272.55
657.936	379.04
658.135	618.66
658.333	180.39
658.532	374.95
658.731	815.26
658.929	546.98
659.128	569.51
659.326	186.54
659.525	630.95
659.724	383.14
659.922	-16.21
660.121	26.79
660.319	448.68
660.518	252.07
660.716	8.36
660.915	47.27
661.113	759.97
661.312	180.39
661.51	434.34
661.709	73.9
661.907	602.27
662.105	807.07
662.304	237.74
662.502	274.6
662.701	710.82
662.899	336.04
663.097	485.54
663.296	155.82
663.494	782.49
663.692	868.51
663.891	106.67
664.089	209.06
664.287	583.84
664.485	712.86
664.684	159.91
664.882	344.23
665.08	415.91
665.278	471.2
665.476	94.38
665.675	530.59
665.873	891.04
666.071	782.49
666.269	276.65
666.467	483.49
666.665	471.2
666.863	397.48
667.061	362.66
667.259	215.21
667.457	420
667.655	620.71
667.853	84.14
668.051	397.48
668.249	258.21
668.447	616.61
668.645	219.3
668.843	434.34
669.041	612.51
669.239	352.42
669.437	473.25
669.635	346.28
669.833	321.7
670.031	655.52
670.229	372.9
670.426	225.45
670.624	370.85
670.822	331.94
671.02	225.45
671.218	295.08
671.415	290.98
671.613	575.65
671.811	417.96
672.009	301.22
672.206	538.79
672.404	522.4
672.602	508.07
672.799	336.04
672.997	510.11
673.195	757.92
673.392	383.14
673.59	139.43
673.788	676
673.985	151.72
674.183	260.26
674.38	256.17
674.578	721.06
674.775	258.21
674.973	252.07
675.17	254.12
675.368	880.8
675.565	704.67
675.763	186.54
675.96	200.87
676.158	770.21
676.355	516.26
676.553	290.98
676.75	282.79
676.947	483.49
677.145	372.9
677.342	426.15
677.539	350.37
677.737	612.51
677.934	975
678.131	442.53
678.329	254.12
678.526	915.61
678.723	667.81
678.92	506.02
679.118	307.37
679.315	225.45
679.512	829.6
679.709	348.33
679.906	305.32
680.104	782.49
680.301	651.42
680.498	186.54
680.695	145.58
680.892	389.28
681.089	323.75
681.286	344.23
681.483	164.01
681.68	671.9
681.877	682.14
682.075	377
682.272	598.18
682.469	655.52
682.665	432.29
682.862	274.6
683.059	131.24
683.256	624.8
683.453	567.46
683.65	389.28
683.847	348.33
684.044	512.16
684.241	354.47
684.438	424.1
684.635	172.2
684.831	944.28
685.028	1083.55
685.225	282.79
685.422	471.2
685.619	475.3
685.815	532.64
686.012	389.28
686.209	313.51
686.405	258.21
686.602	753.82
686.799	192.68
686.996	233.64
687.192	270.5
687.389	1009.82
687.586	215.21
687.782	325.8
687.979	909.47
688.175	745.63
688.372	303.27
688.568	307.37
688.765	465.06
688.962	843.93
689.158	512.16
689.355	141.48
689.551	743.58
689.748	377
689.944	536.74
690.14	104.62
690.337	770.21
690.533	506.02
690.73	516.26
690.926	391.33
691.123	694.43
691.319	542.88
691.515	217.26
691.712	471.2
691.908	645.28
692.104	567.46
692.301	483.49
692.497	133.29
692.693	762.02
692.889	733.34
693.086	432.29
693.282	90.28
693.478	618.66
693.674	952.48
693.87	358.57
694.067	243.88
694.263	692.38
694.459	540.83
694.655	520.35
694.851	487.59
695.047	776.35
695.243	712.86
695.439	542.88
695.635	323.75
695.831	655.52
696.027	532.64
696.224	264.36
696.42	632.99
696.615	852.13
696.811	712.86
697.007	200.87
697.203	420
697.399	647.33
697.595	794.78
697.791	260.26
697.987	551.07
698.183	360.61
698.379	463.01
698.575	399.52
698.77	391.33
698.966	757.92
699.162	772.25
699.358	395.43
699.554	331.94
699.749	757.92
699.945	749.73
700.141	587.94
700.337	489.64
700.532	512.16
700.728	450.72
700.924	264.36
701.119	194.73
701.315	643.23
701.511	524.45
701.706	442.53
701.902	106.67
702.097	655.52
702.293	710.82
702.489	426.15
702.684	344.23
702.88	585.89
703.075	442.53
703.271	377
703.466	282.79
703.662	579.75
703.857	782.49
704.053	301.22
704.248	426.15
704.443	762.02
704.639	682.14
704.834	471.2
705.03	295.08
705.225	852.13
705.42	876.7
705.616	454.82
705.811	311.46
706.006	536.74
706.202	487.59
706.397	549.03
706.592	247.97
706.787	690.34
706.983	571.55
707.178	592.03
707.373	526.5
707.568	817.31
707.763	895.13
707.959	295.08
708.154	288.93
708.349	727.2
708.544	602.27
708.739	630.95
708.934	336.04
709.129	786.59
709.324	817.31
709.519	270.5
709.714	229.54
709.909	786.59
710.104	700.58
710.299	440.48
710.494	331.94
710.689	774.3
710.884	632.99
711.079	522.4
711.274	630.95
711.469	745.63
711.664	714.91
711.859	303.27
712.054	520.35
712.249	721.06
712.443	835.74
712.638	235.69
712.833	327.85
713.028	549.03
713.223	614.56
713.417	643.23
713.612	360.61
713.807	817.31
714.002	1163.42
714.196	624.8
714.391	495.78
714.586	770.21
714.78	632.99
714.975	444.58
715.17	362.66
715.364	639.14
715.559	798.88
715.754	86.19
715.948	352.42
716.143	1097.88
716.337	694.43
716.532	635.04
716.726	280.74
716.921	772.25
717.115	979.1
717.31	149.67
717.504	872.61
717.699	426.15
717.893	903.32
718.088	245.93
718.282	280.74
718.476	706.72
718.671	772.25
718.865	358.57
719.059	446.63
719.254	538.79
719.448	940.19
719.642	1775.76
719.837	172.2
720.031	784.54
720.225	813.21
720.419	483.49
720.614	399.52
720.808	979.1
721.002	561.31
721.196	356.52
721.39	368.81
721.585	1013.92
721.779	776.35
721.973	354.47
722.167	258.21
722.361	635.04
722.555	831.65
722.749	395.43
722.943	323.75
723.137	348.33
723.331	698.53
723.525	475.3
723.719	348.33
723.913	788.64
724.107	991.39
724.301	309.41
724.495	422.05
724.689	1036.44
724.883	962.72
725.077	393.38
725.271	319.65
725.465	956.57
725.659	628.9
725.853	569.51
726.046	260.26
726.24	469.16
726.434	903.32
726.628	440.48
726.822	481.44
727.015	821.41
727.209	1061.02
727.403	358.57
727.596	254.12
727.79	778.4
727.984	835.74
728.177	364.71
728.371	454.82
728.565	792.73
728.758	377
728.952	280.74
729.146	422.05
729.339	833.69
729.533	647.33
729.726	499.88
729.92	374.95
730.113	1005.72
730.307	608.42
730.5	432.29
730.694	313.51
730.887	487.59
731.081	739.49
731.274	278.69
731.468	495.78
731.661	602.27
731.854	512.16
732.048	364.71
732.241	286.89
732.435	508.07
732.628	749.73
732.821	442.53
733.014	329.89
733.208	397.48
733.401	831.65
733.594	471.2
733.788	360.61
733.981	960.67
734.174	721.06
734.367	448.68
734.56	526.5
734.754	864.41
734.947	528.55
735.14	368.81
735.333	452.77
735.526	805.02
735.719	489.64
735.912	297.13
736.105	336.04
736.298	671.9
736.491	479.4
736.684	446.63
736.877	352.42
737.07	807.07
737.263	1001.63
737.456	399.52
737.649	282.79
737.842	577.7
738.035	700.58
738.228	526.5
738.421	620.71
738.614	919.71
738.807	839.84
739	221.35
739.192	379.04
739.385	716.96
739.578	856.22
739.771	729.25
739.964	463.01
740.156	723.1
740.349	663.71
740.542	587.94
740.735	286.89
740.927	356.52
741.12	438.44
741.313	340.13
741.505	503.97
741.698	608.42
741.891	714.91
742.083	653.47
742.276	348.33
742.468	663.71
742.661	587.94
742.854	405.67
743.046	448.68
743.239	1048.73
743.431	585.89
743.624	585.89
743.816	344.23
744.009	616.61
744.201	719.01
744.393	702.62
744.586	323.75
744.778	936.09
744.971	612.51
745.163	444.58
745.355	491.68
745.548	706.72
745.74	577.7
745.932	487.59
746.125	413.86
746.317	1257.62
746.509	628.9
746.702	424.1
746.894	469.16
747.086	825.5
747.278	968.86
747.471	561.31
747.663	485.54
747.855	671.9
748.047	1089.69
748.239	387.24
748.431	409.76
748.623	1052.83
748.815	1030.3
749.008	331.94
749.2	336.04
749.392	811.17
749.584	870.56
749.776	477.35
749.968	589.99
750.16	1159.32
750.352	604.32
750.544	493.73
750.736	340.13
750.928	790.69
751.12	600.23
751.311	374.95
751.503	428.2
751.695	807.07
751.887	684.19
752.079	329.89
752.271	397.48
752.463	1398.93
752.654	864.41
752.846	456.87
753.038	483.49
753.23	487.59
753.421	823.45
753.613	503.97
753.805	661.66
753.997	956.57
754.188	899.23
754.38	508.07
754.572	495.78
754.763	682.14
754.955	747.68
755.146	520.35
755.338	489.64
755.53	872.61
755.721	569.51
755.913	411.81
756.104	360.61
756.296	647.33
756.487	766.11
756.679	379.04
756.87	411.81
757.062	602.27
757.253	835.74
757.445	514.21
757.636	483.49
757.827	682.14
758.019	1292.44
758.21	350.37
758.401	526.5
758.593	1151.13
758.784	989.34
758.975	274.6
759.167	252.07
759.358	637.09
759.549	995.48
759.74	409.76
759.932	473.25
760.123	983.2
760.314	374.95
760.505	585.89
760.696	364.71
760.888	1038.49
761.079	635.04
761.27	346.28
761.461	213.16
761.652	1007.77
761.843	585.89
762.034	354.47
762.225	698.53
762.416	602.27
762.607	676
762.798	426.15
762.989	344.23
763.18	1515.67
763.371	657.57
763.562	379.04
763.753	450.72
763.944	907.42
764.135	1013.92
764.326	546.98
764.517	491.68
764.708	774.3
764.899	825.5
765.089	383.14
765.28	266.41
765.471	696.48
765.662	809.12
765.853	518.31
766.043	245.93
766.234	913.56
766.425	862.37
766.615	489.64
766.806	297.13
766.997	946.33
767.187	747.68
767.378	391.33
767.569	290.98
767.759	880.8
767.95	778.4
768.141	655.52
768.331	325.8
768.522	723.1
768.712	899.23
768.903	209.06
769.093	340.13
769.284	1120.41
769.474	714.91
769.665	223.4
769.855	286.89
770.046	821.41
770.236	592.03
770.426	651.42
770.617	350.37
770.807	800.93
770.998	624.8
771.188	647.33
771.378	452.77
771.569	946.33
771.759	848.03
771.949	358.57
772.139	194.73
772.33	684.19
772.52	1079.45
772.71	379.04
772.9	221.35
773.09	1108.12
773.281	999.58
773.471	364.71
773.661	475.3
773.851	975
774.041	399.52
774.231	409.76
774.421	536.74
774.611	1003.68
774.802	663.71
774.992	444.58
775.182	327.85
775.372	630.95
775.562	864.41
775.752	377
775.942	456.87
776.131	921.76
776.321	819.36
776.511	516.26
776.701	350.37
776.891	833.69
777.081	331.94
777.271	348.33
777.461	360.61
777.651	911.52
777.84	899.23
778.03	536.74
778.22	409.76
778.41	886.94
778.599	479.4
778.789	637.09
778.979	372.9
779.169	872.61
779.358	700.58
779.548	667.81
779.738	301.22
779.927	704.67
780.117	374.95
780.307	446.63
780.496	188.58
780.686	692.38
780.875	1118.36
781.065	374.95
781.254	360.61
781.444	635.04
781.633	706.72
781.823	413.86
782.012	358.57
782.202	506.02
782.391	589.99
782.581	250.02
782.77	538.79
782.96	856.22
783.149	700.58
783.338	471.2
783.528	223.4
783.717	921.76
783.906	966.81
784.096	524.45
784.285	348.33
784.474	487.59
784.663	479.4
784.853	463.01
785.042	434.34
785.231	612.51
785.42	874.65
785.61	524.45
785.799	346.28
785.988	561.31
786.177	669.86
786.366	557.22
786.555	563.36
786.744	868.51
786.933	739.49
787.122	323.75
787.312	262.31
787.501	456.87
787.69	839.84
787.879	391.33
788.068	370.85
788.257	430.24
788.445	589.99
788.634	430.24
788.823	297.13
789.012	1280.15
789.201	944.28
789.39	587.94
789.579	282.79
789.768	659.62
789.957	714.91
790.145	413.86
790.334	209.06
790.523	532.64
790.712	499.88
790.9	489.64
791.089	254.12
791.278	817.31
791.467	708.77
791.655	678.05
791.844	895.13
792.033	501.92
792.221	614.56
792.41	389.28
792.599	268.45
792.787	735.39
792.976	862.37
793.164	315.56
793.353	356.52
793.541	819.36
793.73	782.49
793.918	440.48
794.107	344.23
794.295	694.43
794.484	655.52
794.672	405.67
794.861	469.16
795.049	880.8
795.238	985.24
795.426	331.94
795.614	456.87
795.803	696.48
795.991	1065.11
796.179	446.63
796.368	331.94
796.556	952.48
796.744	477.35
796.932	331.94
797.121	372.9
797.309	645.28
797.497	850.08
797.685	374.95
797.874	397.48
798.062	538.79
798.25	1071.26
798.438	276.65
798.626	358.57
798.814	725.15
799.002	1278.1
799.19	569.51
799.378	467.11
799.566	854.17
799.755	966.81
799.943	565.41
800.131	336.04
800.318	704.67
800.506	733.34
800.694	381.09
800.882	506.02
801.07	919.71
801.258	639.14
801.446	411.81
801.634	446.63
801.822	704.67
802.01	696.48
802.197	454.82
802.385	553.12
802.573	663.71
802.761	573.6
802.949	460.96
803.136	319.65
803.324	921.76
803.512	702.62
803.699	436.39
803.887	290.98
804.075	968.86
804.262	546.98
804.45	272.55
804.638	487.59
804.825	542.88
805.013	544.93
805.201	422.05
805.388	385.19
805.576	526.5
805.763	1101.98
805.951	442.53
806.138	618.66
806.326	1165.46
806.513	782.49
806.701	508.07
806.888	372.9
807.075	716.96
807.263	1151.13
807.45	237.74
807.638	598.18
807.825	1112.22
808.012	831.65
808.2	389.28
808.387	727.2
808.574	864.41
808.761	1044.63
808.949	415.91
809.136	579.75
809.323	561.31
809.51	546.98
809.698	815.26
809.885	553.12
810.072	716.96
810.259	905.37
810.446	503.97
810.633	401.57
810.82	972.96
811.008	1044.63
811.195	551.07
811.382	518.31
811.569	671.9
811.756	458.92
811.943	516.26
812.13	438.44
812.317	581.79
812.504	544.93
812.691	477.35
812.878	585.89
813.064	1036.44
813.251	671.9
813.438	405.67
813.625	628.9
813.812	581.79
813.999	700.58
814.186	528.55
814.372	495.78
814.559	702.62
814.746	1083.55
814.933	575.65
815.12	692.38
815.306	573.6
815.493	508.07
815.68	446.63
815.866	426.15
816.053	882.85
816.24	1231
816.426	561.31
816.613	321.7
816.799	903.32
816.986	997.53
817.173	465.06
817.359	458.92
817.546	809.12
817.732	309.41
817.919	145.58
818.105	557.22
818.292	569.51
818.478	819.36
818.665	503.97
818.851	473.25
819.037	1171.61
819.224	680.1
819.41	372.9
819.597	497.83
819.783	1110.17
819.969	831.65
820.156	503.97
820.342	397.48
820.528	1386.65
820.714	616.61
820.901	786.59
821.087	370.85
821.273	1058.97
821.459	655.52
821.646	379.04
821.832	346.28
822.018	673.95
822.204	766.11
822.39	514.21
822.576	364.71
822.762	882.85
822.948	782.49
823.134	651.42
823.32	432.29
823.507	391.33
823.693	710.82
823.879	786.59
824.065	520.35
824.25	794.78
824.436	458.92
824.622	592.03
824.808	370.85
824.994	503.97
825.18	442.53
825.366	368.81
825.552	430.24
825.738	626.85
825.923	909.47
826.109	694.43
826.295	372.9
826.481	612.51
826.667	639.14
826.852	606.37
827.038	448.68
827.224	1065.11
827.409	1204.38
827.595	241.83
827.781	663.71
827.966	950.43
828.152	948.38
828.338	577.7
828.523	317.61
828.709	569.51
828.894	934.04
829.08	467.11
829.266	383.14
829.451	651.42
829.637	759.97
829.822	540.83
830.008	377
830.193	901.28
830.378	1069.21
830.564	471.2
830.749	377
830.935	802.97
831.12	925.85
831.305	493.73
831.491	579.75
831.676	442.53
831.861	872.61
832.047	475.3
832.232	290.98
832.417	921.76
832.602	768.16
832.788	497.83
832.973	456.87
833.158	661.66
833.343	657.57
833.528	542.88
833.714	483.49
833.899	903.32
834.084	1243.29
834.269	643.23
834.454	569.51
834.639	897.18
834.824	645.28
835.009	635.04
835.194	610.47
835.379	786.59
835.564	1005.72
835.749	565.41
835.934	383.14
836.119	981.15
836.304	757.92
836.489	491.68
836.674	643.23
836.859	551.07
837.044	999.58
837.228	489.64
837.413	352.42
837.598	800.93
837.783	923.8
837.968	536.74
838.152	293.03
838.337	290.98
838.522	979.1
838.707	915.61
838.891	635.04
839.076	657.57
839.261	921.76
839.445	424.1
839.63	448.68
839.815	1038.49
839.999	647.33
840.184	405.67
840.368	430.24
840.553	872.61
840.737	874.65
840.922	364.71
841.106	325.8
841.291	413.86
841.475	747.68
841.66	381.09
841.844	540.83
842.029	1405.08
842.213	403.62
842.397	479.4
842.582	319.65
842.766	1042.59
842.951	919.71
843.135	440.48
843.319	454.82
843.504	796.83
843.688	940.19
843.872	241.83
844.056	385.19
844.241	774.3
844.425	702.62
844.609	716.96
844.793	313.51
844.977	934.04
845.161	743.58
845.346	229.54
845.53	471.2
845.714	686.24
845.898	1036.44
846.082	360.61
846.266	303.27
846.45	665.76
846.634	809.12
846.818	409.76
847.002	571.55
847.186	762.02
847.37	397.48
847.554	327.85
847.738	581.79
847.922	782.49
848.106	686.24
848.29	323.75
848.473	483.49
848.657	800.93
848.841	665.76
849.025	471.2
849.209	168.1
849.392	868.51
849.576	567.46
849.76	270.5
849.944	577.7
850.127	1018.01
850.311	446.63
850.495	323.75
850.678	389.28
850.862	934.04
851.046	1118.36
851.229	647.33
851.413	383.14
851.596	639.14
851.78	606.37
851.964	665.76
852.147	514.21
852.331	1427.6
852.514	989.34
852.698	506.02
852.881	235.69
853.065	932
853.248	651.42
853.431	596.13
853.615	561.31
853.798	1314.97
853.982	739.49
854.165	647.33
854.348	458.92
854.532	442.53
854.715	544.93
854.898	428.2
855.081	354.47
855.265	897.18
855.448	1048.73
855.631	379.04
855.814	450.72
855.997	929.95
856.181	637.09
856.364	471.2
856.547	305.32
856.73	729.25
856.913	741.54
857.096	276.65
857.279	424.1
857.462	538.79
857.645	860.32
857.828	569.51
858.011	587.94
858.194	528.55
858.377	794.78
858.56	274.6
858.743	460.96
858.926	497.83
859.109	729.25
859.292	344.23
859.475	297.13
859.658	968.86
859.841	876.7
860.023	372.9
860.206	354.47
860.389	786.59
860.572	995.48
860.755	526.5
860.937	442.53
861.12	692.38
861.303	655.52
861.486	503.97
861.668	364.71
861.851	809.12
862.034	729.25
862.216	585.89
862.399	192.68
862.581	909.47
862.764	1058.97
862.947	546.98
863.129	409.76
863.312	430.24
863.494	1046.68
863.677	708.77
863.859	256.17
864.042	870.56
864.224	1097.88
864.406	510.11
864.589	344.23
864.771	827.55
864.954	469.16
865.136	383.14
865.318	174.25
865.501	876.7
865.683	219.3
865.865	473.25
866.048	409.76
866.23	784.54
866.412	696.48
866.594	178.34
866.777	575.65
866.959	796.83
867.141	559.27
867.323	712.86
867.505	493.73
867.687	637.09
867.869	657.57
868.052	440.48
868.234	241.83
868.416	714.91
868.598	845.98
868.78	446.63
868.962	319.65
869.144	907.42
869.326	860.32
869.508	422.05
869.69	344.23
869.872	528.55
870.054	975
870.236	307.37
870.417	331.94
870.599	573.6
870.781	1036.44
870.963	639.14
871.145	329.89
871.327	508.07
871.508	815.26
871.69	381.09
871.872	520.35
872.054	635.04
872.235	729.25
872.417	487.59
872.599	321.7
872.78	995.48
872.962	641.18
873.144	260.26
873.325	432.29
873.507	1061.02
873.689	721.06
873.87	331.94
874.052	516.26
874.233	436.39
874.415	891.04
874.596	485.54
874.778	231.59
874.959	700.58
875.141	946.33
875.322	401.57
875.503	336.04
875.685	753.82
875.866	297.13
876.048	307.37
876.229	315.56
876.41	684.19
876.592	792.73
876.773	440.48
876.954	282.79
877.136	960.67
877.317	483.49
877.498	297.13
877.679	469.16
877.86	731.3
878.042	585.89
878.223	387.24
878.404	645.28
878.585	770.21
878.766	1063.07
878.947	649.38
879.128	553.12
879.309	792.73
879.49	954.52
879.672	483.49
879.853	546.98
880.034	489.64
880.215	594.08
880.396	407.72
880.576	428.2
880.757	458.92
880.938	1040.54
881.119	323.75
881.3	426.15
881.481	497.83
881.662	1458.32
881.843	274.6
882.023	299.17
882.204	630.95
882.385	688.29
882.566	391.33
882.747	331.94
882.927	676
883.108	682.14
883.289	315.56
883.469	612.51
883.65	436.39
883.831	753.82
884.011	626.85
884.192	356.52
884.373	874.65
884.553	698.53
884.734	573.6
884.914	737.44
885.095	1329.3
885.275	1081.5
885.456	729.25
885.636	266.41
885.817	565.41
885.997	665.76
886.178	399.52
886.358	561.31
886.538	766.11
886.719	1611.92
886.899	366.76
887.08	557.22
887.26	958.62
887.44	458.92
887.621	254.12
887.801	620.71
887.981	1269.91
888.161	911.52
888.342	483.49
888.522	487.59
888.702	934.04
888.882	985.24
889.062	579.75
889.242	278.69
889.423	1036.44
889.603	882.85
889.783	534.69
889.963	385.19
890.143	893.09
890.323	1022.11
890.503	323.75
890.683	483.49
890.863	735.39
891.043	680.1
891.223	508.07
891.403	655.52
891.583	702.62
891.763	782.49
891.943	508.07
892.122	503.97
892.302	696.48
892.482	610.47
892.662	628.9
892.842	546.98
893.022	725.15
893.201	655.52
893.381	700.58
893.561	377
893.741	958.62
893.92	841.89
894.1	581.79
894.28	532.64
894.459	862.37
894.639	807.07
894.819	506.02
894.998	618.66
895.178	798.88
895.357	1044.63
895.537	446.63
895.716	342.18
895.896	766.11
896.075	1089.69
896.255	426.15
896.434	313.51
896.614	932
896.793	1067.16
896.973	520.35
897.152	551.07
897.331	882.85
897.511	923.8
897.69	442.53
897.87	647.33
898.049	995.48
898.228	745.63
898.407	692.38
898.587	661.66
898.766	508.07
898.945	807.07
899.124	778.4
899.304	581.79
899.483	948.38
899.662	1177.75
899.841	428.2
900.02	534.69
900.199	987.29
900.378	905.37
900.557	510.11
900.737	323.75
900.916	813.21
901.095	893.09
901.274	719.01
901.453	336.04
901.632	592.03
901.811	604.32
901.989	489.64
902.168	473.25
902.347	872.61
902.526	628.9
902.705	440.48
902.884	534.69
903.063	950.43
903.242	1022.11
903.42	409.76
903.599	561.31
903.778	1093.79
903.957	1079.45
904.135	708.77
904.314	616.61
904.493	829.6
904.672	829.6
904.85	598.18
905.029	532.64
905.207	866.46
905.386	1427.6
905.565	356.52
905.743	473.25
905.922	569.51
906.1	932
906.279	405.67
906.457	512.16
906.636	594.08
906.814	737.44
906.993	491.68
907.171	338.09
907.35	821.41
907.528	946.33
907.707	753.82
907.885	358.57
908.063	1181.85
908.242	506.02
908.42	512.16
908.598	303.27
908.777	911.52
908.955	553.12
909.133	573.6
909.311	331.94
909.49	571.55
909.668	788.64
909.846	516.26
910.024	241.83
910.202	696.48
910.38	862.37
910.559	315.56
910.737	348.33
910.915	833.69
911.093	690.34
911.271	477.35
911.449	712.86
911.627	888.99
911.805	1239.19
911.983	549.03
912.161	579.75
912.339	776.35
912.517	1089.69
912.695	512.16
912.872	557.22
913.05	538.79
913.228	792.73
913.406	475.3
913.584	317.61
913.762	868.51
913.939	514.21
914.117	469.16
914.295	284.84
914.473	755.87
914.65	825.5
914.828	426.15
915.006	387.24
915.184	538.79
915.361	745.63
915.539	555.17
915.716	565.41
915.894	850.08
916.072	798.88
916.249	680.1
916.427	594.08
916.604	413.86
916.782	798.88
916.959	266.41
917.137	463.01
917.314	749.73
917.492	764.06
917.669	520.35
917.847	428.2
918.024	743.58
918.201	542.88
918.379	514.21
918.556	573.6
918.733	841.89
918.911	612.51
919.088	647.33
919.265	516.26
919.442	759.97
919.62	694.43
919.797	350.37
919.974	372.9
920.151	628.9
920.328	659.62
920.506	409.76
920.683	651.42
920.86	417.96
921.037	454.82
921.214	460.96
921.391	475.3
921.568	858.27
921.745	518.31
921.922	372.9
922.099	434.34
922.276	936.09
922.453	819.36
922.63	403.62
922.807	757.92
922.984	700.58
923.161	487.59
923.338	399.52
923.514	325.8
923.691	661.66
923.868	807.07
924.045	383.14
924.222	229.54
924.399	704.67
924.575	964.76
924.752	487.59
924.929	536.74
925.105	747.68
925.282	389.28
925.459	381.09
925.635	485.54
925.812	649.38
925.989	614.56
926.165	565.41
926.342	250.02
926.518	411.81
926.695	645.28
926.871	387.24
927.048	305.32
927.224	864.41
927.401	493.73
927.577	415.91
927.754	274.6
927.93	854.17
928.107	827.55
928.283	319.65
928.459	487.59
928.636	729.25
928.812	565.41
928.988	432.29
929.165	151.72
929.341	604.32
929.517	774.3
929.693	577.7
929.87	194.73
930.046	637.09
930.222	471.2
930.398	254.12
930.574	516.26
930.751	567.46
930.927	454.82
931.103	479.4
931.279	456.87
931.455	331.94
931.631	673.95
931.807	209.06
931.983	196.78
932.159	168.1
932.335	561.31
932.511	467.11
932.687	342.18
932.863	632.99
933.039	604.32
933.215	108.71
933.391	217.26
933.566	452.77
933.742	530.59
933.918	346.28
934.094	131.24
934.27	489.64
934.445	608.42
934.621	307.37
934.797	274.6
934.973	772.25
935.148	587.94
935.324	170.15
935.5	53.42
935.675	729.25
935.851	557.22
936.027	297.13
936.202	383.14
936.378	585.89
936.553	399.52
936.729	706.72
936.904	164.01
937.08	268.45
937.255	282.79
937.431	196.78
937.606	96.43
937.782	456.87
937.957	524.45
938.133	323.75
938.308	225.45
938.483	356.52
938.659	247.97
938.834	252.07
939.009	129.19
939.185	348.33
939.36	233.64
939.535	-149.33
939.71	233.64
939.886	598.18
940.061	585.89
940.236	348.33
940.411	282.79
940.586	491.68
940.761	649.38
940.937	147.62
941.112	86.19
941.287	399.52
941.462	389.28
941.637	-14.17
941.812	180.39
941.987	489.64
942.162	428.2
942.337	323.75
942.512	143.53
942.687	589.99
942.862	598.18
943.037	37.03
943.212	-208.72
943.386	278.69
943.561	395.43
943.736	307.37
943.911	444.58
944.086	487.59
944.26	415.91
944.435	137.38
944.61	110.76
944.785	526.5
944.959	782.49
945.134	106.67
945.309	71.85
945.483	147.62
945.658	589.99
945.833	-206.67
946.007	59.56
946.182	610.47
946.357	108.71
946.531	45.23
946.706	47.27
946.88	-59.22
947.055	379.04
947.229	123.05
947.404	47.27
947.578	563.36
947.752	223.4
947.927	8.36
948.101	-63.32
948.276	344.23
948.45	290.98
948.624	202.92
948.799	41.13
948.973	409.76
949.147	69.8
949.321	114.86
949.496	65.71
949.67	540.83
949.844	178.34
950.018	102.57
950.193	67.75
950.367	770.21
950.541	168.1
950.715	207.02
950.889	286.89
951.063	268.45
951.237	512.16
951.411	-182.1
951.585	-102.23
951.759	389.28
951.933	362.66
952.107	43.18
952.281	204.97
952.455	659.62
952.629	522.4
952.803	28.84
952.977	63.66
953.151	495.78
953.325	430.24
953.499	293.03
953.672	-73.56
953.846	116.9
954.02	282.79
954.194	-28.5
954.368	39.08
954.541	395.43
954.715	266.41
954.889	143.53
955.062	-16.21
955.236	256.17
955.41	147.62
955.583	176.3
955.757	-143.19
955.93	110.76
956.104	10.41
956.278	112.81
956.451	26.79
956.625	434.34
956.798	655.52
956.972	286.89
957.145	-65.36
957.319	278.69
957.492	227.5
957.665	174.25
957.839	28.84
958.012	354.47
958.185	241.83
958.359	53.42
958.532	350.37
958.705	514.21
958.879	344.23
959.052	110.76
959.225	-141.14
959.398	272.55
959.572	290.98
959.745	49.32
959.918	155.82
960.091	207.02
960.264	374.95
960.438	-3.93
960.611	-26.45
960.784	467.11
960.957	125.1
961.13	438.44
961.303	39.08
961.476	313.51
961.649	469.16
961.822	-14.17
961.995	88.23
962.168	401.57
962.341	393.38
962.514	90.28
962.686	8.36
962.859	399.52
963.032	450.72
963.205	88.23
963.378	-163.67
963.551	323.75
963.723	311.46
963.896	215.21
964.069	231.59
964.242	221.35
964.414	452.77
964.587	151.72
964.76	151.72
964.932	299.17
965.105	211.11
965.278	49.32
965.45	-16.21
965.623	241.83
965.795	430.24
965.968	92.33
966.14	59.56
966.313	221.35
966.485	286.89
966.658	69.8
966.83	-75.6
967.003	526.5
967.175	512.16
967.348	92.33
967.52	12.46
967.692	549.03
967.865	368.81
968.037	51.37
968.209	270.5
968.382	258.21
968.554	499.88
968.726	114.86
968.898	28.84
969.071	323.75
969.243	401.57
969.415	69.8
969.587	141.48
969.759	743.58
969.932	471.2
970.104	69.8
970.276	-184.15
970.448	190.63
970.62	196.78
970.792	123.05
970.964	61.61
971.136	747.68
971.308	422.05
971.48	-51.03
971.652	-28.5
971.824	602.27
971.996	176.3
972.168	155.82
972.339	121
972.511	438.44
972.683	217.26
972.855	280.74
973.027	53.42
973.199	217.26
973.37	426.15
973.542	170.15
973.714	151.72
973.886	311.46
974.057	487.59
974.229	2.22
974.401	67.75
974.572	73.9
974.744	-161.62
974.915	-53.08
975.087	-48.98
975.259	581.79
975.43	143.53
975.602	24.75
975.773	-61.27
975.945	12.46
976.116	440.48
976.288	-65.36
976.459	151.72
976.63	301.22
976.802	348.33
976.973	-22.36
977.145	139.43
977.316	684.19
977.487	372.9
977.659	204.97
977.83	59.56
978.001	768.16
978.172	389.28
978.344	26.79
978.515	-3.93
978.686	147.62
978.857	577.7
979.028	41.13
979.2	-69.46
979.371	516.26
979.542	237.74
979.713	225.45
979.884	-393.04
980.055	106.67
980.226	268.45
980.397	65.71
980.568	-79.7
980.739	538.79
980.91	151.72
981.081	241.83
981.252	-32.6
981.423	319.65
981.594	508.07
981.765	-36.69
981.936	143.53
982.106	284.84
982.277	678.05
982.448	61.61
982.619	207.02
982.79	135.34
982.96	526.5
983.131	127.14
983.302	-261.97
983.472	241.83
983.643	327.85
983.814	168.1
983.984	37.03
984.155	176.3
984.326	520.35
984.496	145.58
984.667	20.65
984.837	153.77
985.008	563.36
985.178	127.14
985.349	61.61
985.519	188.58
985.69	45.23
985.86	0.17
986.031	-28.5
986.201	336.04
986.371	385.19
986.542	-51.03
986.712	-151.38
986.882	446.63
987.053	311.46
987.223	-190.29
987.393	159.91
987.563	32.94
987.734	424.1
987.904	293.03
988.074	-67.41
988.244	260.26
988.414	88.23
988.585	-24.4
988.755	166.06
988.925	198.82
989.095	647.33
989.265	34.99
989.435	75.95
989.605	321.7
989.775	370.85
989.945	286.89
990.115	-98.13
990.285	145.58
990.455	336.04
990.625	65.71
990.795	-141.14
990.965	514.21
991.134	123.05
991.304	-34.64
991.474	0.17
991.644	333.99
991.814	598.18
991.984	-165.71
992.153	-14.17
992.323	321.7
992.493	204.97
992.662	-245.59
992.832	53.42
993.002	221.35
993.171	295.08
993.341	-212.82
993.511	184.49
993.68	37.03
993.85	362.66
994.019	-130.9
994.189	-104.28
994.358	297.13
994.528	100.52
994.697	-264.02
994.867	-128.85
995.036	377
995.206	121
995.375	-182.1
995.544	77.99
995.714	383.14
995.883	164.01
996.052	100.52
996.222	-184.15
996.391	626.85
996.56	290.98
996.73	-116.56
996.899	-132.95
997.068	536.74
997.237	168.1
997.406	-77.65
997.576	-175.95
997.745	237.74
997.914	182.44
998.083	-337.74
998.252	-98.13
998.421	151.72
998.59	18.6
998.759	-196.43
998.928	-266.07
999.097	499.88
999.266	295.08
999.435	37.03
999.604	-284.5
999.773	737.44
999.942	92.33
1000.111	-233.3
1000.28	-290.64
1000.448	-8.02
1000.617	34.99
1000.786	37.03
1000.955	-206.67
1001.124	200.87
1001.292	786.59
1001.461	-85.84
1001.63	-94.04
1001.798	655.52
1001.967	389.28
1002.136	-210.77
1002.304	-169.81
1002.473	270.5
1002.642	192.68
1002.81	-26.45
1002.979	-155.47
1003.147	379.04
1003.316	694.43
1003.484	-98.13
1003.653	-261.97
1003.821	397.48
1003.99	121
1004.158	-3.93
1004.327	-128.85
1004.495	321.7
1004.663	18.6
1004.832	-40.79
1005	-266.07
1005.168	266.41
1005.337	188.58
1005.505	-288.59
1005.673	47.27
1005.842	239.78
1006.01	327.85
1006.178	-235.35
1006.346	-165.71
1006.514	278.69
1006.683	481.44
1006.851	-130.9
1007.019	-227.15
1007.187	-48.98
1007.355	-218.96
1007.523	-321.36
1007.691	-253.78
1007.859	-210.77
1008.027	477.35
1008.195	-175.95
1008.363	-292.69
1008.531	417.96
1008.699	-57.17
1008.867	-249.68
1009.035	-257.87
1009.203	450.72
1009.37	172.2
1009.538	-200.53
1009.706	264.36
1009.874	241.83
1010.042	84.14
1010.209	-227.15
1010.377	-221.01
1010.545	391.33
1010.713	178.34
1010.88	-157.52
1011.048	-167.76
1011.216	82.09
1011.383	506.02
1011.551	-188.24
1011.718	-212.82
1011.886	399.52
1012.054	186.54
1012.221	-208.72
1012.389	-251.73
1012.556	129.19
1012.724	598.18
1012.891	-32.6
1013.058	-337.74
1013.226	276.65
1013.393	327.85
1013.561	-374.61
1013.728	-292.69
1013.895	290.98
1014.063	317.61
1014.23	-280.4
1014.397	-200.53
1014.565	415.91
1014.732	49.32
1014.899	-157.52
1015.066	-192.34
1015.233	174.25
1015.401	338.09
1015.568	-186.19
1015.735	-128.85
1015.902	243.88
1016.069	254.12
1016.236	-251.73
1016.403	-231.25
1016.57	0.17
1016.737	340.13
1016.904	-61.27
1017.071	-227.15
1017.238	24.75
1017.405	405.67
1017.572	-196.43
1017.739	51.37
1017.906	200.87
1018.073	360.61
1018.24	-249.68
1018.407	-40.79
1018.573	393.38
1018.74	159.91
1018.907	-65.36
1019.074	-356.18
1019.241	368.81
1019.407	235.69
1019.574	-272.21
1019.741	-323.41
1019.907	301.22
1020.074	188.58
1020.241	-352.08
1020.407	-315.22
1020.574	325.8
1020.74	278.69
1020.907	-163.67
1021.073	-296.78
1021.24	653.47
1021.406	454.82
1021.573	-251.73
1021.739	-151.38
1021.906	336.04
1022.072	80.04
1022.239	-153.43
1022.405	-159.57
1022.571	137.38
1022.738	-112.47
1022.904	-198.48
1023.07	-178
1023.237	127.14
1023.403	282.79
1023.569	-157.52
1023.735	-188.24
1023.902	202.92
1024.068	123.05
1024.234	-266.07
1024.4	-165.71
1024.566	241.83
1024.732	381.09
1024.898	-180.05
1025.065	-374.61
1025.231	329.89
1025.397	4.27
1025.563	-132.95
1025.729	-304.98
1025.895	-274.26
1026.061	-87.89
1026.227	-339.79
1026.392	-167.76
1026.558	471.2
1026.724	356.52
1026.89	-255.83
1027.056	-104.28
1027.222	223.4
1027.388	37.03
1027.553	-198.48
1027.719	-294.74
1027.885	546.98
1028.051	286.89
1028.216	-411.47
1028.382	-206.67
1028.548	448.68
1028.713	-20.31
1028.879	-266.07
1029.045	-141.14
1029.21	481.44
1029.376	383.14
1029.541	-147.28
1029.707	-202.58
1029.873	342.18
1030.038	426.15
1030.204	-315.22
1030.369	-149.33
1030.534	397.48
1030.7	129.19
1030.865	-173.91
1031.031	-309.07
1031.196	327.85
1031.361	159.91
1031.527	-214.87
1031.692	-227.15
1031.857	-235.35
1032.023	313.51
1032.188	-352.08
1032.353	-106.32
1032.518	512.16
1032.684	170.15
1032.849	-384.85
1033.014	-106.32
1033.179	368.81
1033.344	290.98
1033.509	-98.13
1033.674	-149.33
1033.839	338.09
1034.004	188.58
1034.17	-180.05
1034.335	-376.66
1034.5	-5.97
1034.664	8.36
1034.829	-247.63
1034.994	-204.63
1035.159	266.41
1035.324	329.89
1035.489	-212.82
1035.654	-218.96
1035.819	426.15
1035.984	155.82
1036.148	-147.28
1036.313	-167.76
1036.478	428.2
1036.643	127.14
1036.807	-212.82
1036.972	-304.98
1037.137	446.63
1037.301	188.58
1037.466	-335.7
1037.631	-212.82
1037.795	481.44
1037.96	229.54
1038.124	-51.03
1038.289	-368.46
1038.454	323.75
1038.618	270.5
1038.783	-171.86
1038.947	-141.14
1039.111	256.17
1039.276	63.66
1039.44	-237.39
1039.605	233.64
1039.769	125.1
1039.933	139.43
1040.098	-124.76
1040.262	32.94
1040.426	409.76
1040.591	307.37
1040.755	-264.02
1040.919	-204.63
1041.083	319.65
1041.248	88.23
1041.412	-360.27
1041.576	-249.68
1041.74	94.38
1041.904	432.29
1042.068	-218.96
1042.232	-167.76
1042.397	401.57
1042.561	321.7
1042.725	-456.53
1042.889	-30.55
1043.053	360.61
1043.217	336.04
1043.381	-65.36
1043.544	-302.93
1043.708	401.57
1043.872	-114.52
1044.036	-388.94
1044.2	-307.02
1044.364	417.96
1044.528	516.26
1044.691	2971.77
1044.855	-327.5
1045.019	379.04
1045.183	323.75
1045.346	-102.23
1045.51	-270.16
1045.674	280.74
1045.837	288.93
1046.001	-180.05
1046.165	-257.87
1046.328	766.11
1046.492	260.26
1046.655	63.66
1046.819	-116.56
1046.983	77.99
1047.146	250.02
1047.31	-83.8
1047.473	-309.07
1047.636	125.1
1047.8	-3.93
1047.963	-225.11
1048.127	-274.26
1048.29	16.55
