Data from Ink_Intensity_USB4F045381__174__00174.txt Node

Date: Mon Jul 17 11:39:46 EDT 2023
User: mmckonesweet
Spectrometer: USB4F04538
Trigger mode: 4
Integration Time (sec): 9.000000E-1
Scans to average: 1
Electric dark correction enabled: true
Nonlinearity correction enabled: false
Boxcar width: 0
XAxis mode: Wavelengths
Number of Pixels in Spectrum: 3648
>>>>>Begin Spectral Data<<<<<
345.52	-1000.94
345.736	-1000.94
345.952	-1000.94
346.168	-990.7
346.384	-1062.38
346.6	-52.74
346.816	-255.48
347.032	-179.71
347.248	303.61
347.464	-280.06
347.68	-165.37
347.896	92.67
348.112	401.91
348.328	-58.88
348.544	-40.45
348.76	-52.74
348.975	287.23
349.191	-200.19
349.407	-155.13
349.623	-34.3
349.839	-46.59
350.055	-245.24
350.27	39.42
350.486	139.77
350.702	293.37
350.918	203.26
351.133	-271.87
351.349	131.58
351.565	358.91
351.781	-288.25
351.996	43.52
352.212	246.27
352.428	-187.9
352.644	-232.96
352.859	-228.86
353.075	188.93
353.291	51.71
353.506	-105.98
353.722	-198.14
353.938	-171.52
354.153	360.95
354.369	147.97
354.584	-237.05
354.8	326.14
355.016	-312.83
355.231	-202.24
355.447	-167.42
355.662	215.55
355.878	754.16
356.093	-370.17
356.309	-48.64
356.524	-239.1
356.74	260.6
356.955	-196.09
357.171	-132.61
357.386	96.77
357.602	-222.72
357.817	-87.55
358.033	-204.28
358.248	377.34
358.464	141.82
358.679	-177.66
358.895	-347.64
359.11	-32.26
359.325	221.69
359.541	10.75
359.756	80.38
359.972	-288.25
360.187	131.58
360.402	-306.68
360.618	-116.22
360.833	920.05
361.048	172.54
361.264	-218.62
361.479	-99.84
361.694	-1.54
361.909	199.16
362.125	-140.8
362.34	-110.08
362.555	238.08
362.77	92.67
362.986	-255.48
363.201	-245.24
363.416	100.86
363.631	25.09
363.847	-220.67
364.062	-122.37
364.277	123.39
364.492	117.25
364.707	-171.52
364.922	-347.64
365.138	162.3
365.353	264.7
365.568	-308.73
365.783	-220.67
365.998	100.86
366.213	590.33
366.428	-251.39
366.643	-17.92
366.858	225.79
367.073	170.49
367.288	-169.47
367.503	-300.54
367.718	45.57
367.933	305.66
368.148	-316.92
368.363	-50.69
368.578	12.8
368.793	367.1
369.008	-192
369.223	-189.95
369.438	164.35
369.653	356.86
369.868	-294.4
370.083	-222.72
370.298	59.9
370.513	389.63
370.728	-112.13
370.943	-194.05
371.157	-179.71
371.372	530.94
371.587	-288.25
371.802	-314.88
372.017	23.04
372.232	358.91
372.446	57.86
372.661	-255.48
372.876	94.72
373.091	186.88
373.306	-99.84
373.52	-321.02
373.735	-210.43
373.95	307.71
374.165	-157.18
374.379	-148.99
374.594	-128.51
374.809	64
375.023	14.85
375.238	-224.76
375.453	256.51
375.667	-251.39
375.882	-171.52
376.097	-232.96
376.311	-34.3
376.526	-28.16
376.741	-220.67
376.955	195.07
377.17	557.56
377.384	483.83
377.599	-120.32
377.813	-316.92
378.028	608.76
378.242	211.45
378.457	-91.65
378.672	-349.69
378.886	0.51
379.101	-32.26
379.315	-409.08
379.53	-265.72
379.744	102.91
379.958	147.97
380.173	-185.85
380.387	-202.24
380.602	82.43
380.816	-142.85
381.031	-275.96
381.245	-83.45
381.459	203.26
381.674	2662.87
381.888	-304.64
382.103	31.23
382.317	-183.81
382.531	465.4
382.746	-99.84
382.96	-216.57
383.174	-73.21
383.388	393.72
383.603	-52.74
383.817	-294.4
384.031	43.52
384.246	477.69
384.46	-13.82
384.674	248.32
384.888	8.7
385.103	64
385.317	-294.4
385.531	-69.12
385.745	246.27
385.959	229.88
386.174	-286.2
386.388	-284.16
386.602	-22.02
386.816	-116.22
387.03	-138.75
387.244	-148.99
387.458	31.23
387.672	403.96
387.887	-351.74
388.101	-306.68
388.315	356.86
388.529	186.88
388.743	-138.75
388.957	-241.15
389.171	326.14
389.385	-194.05
389.599	-206.33
389.813	10.75
390.027	129.53
390.241	635.38
390.455	-124.41
390.669	-159.23
390.883	-38.4
391.097	371.19
391.311	20.99
391.525	-255.48
391.738	150.01
391.952	190.97
392.166	-157.18
392.38	-271.87
392.594	334.33
392.808	283.13
393.022	-169.47
393.236	-155.13
393.449	293.37
393.663	88.57
393.877	-294.4
394.091	-132.61
394.305	-89.6
394.518	-120.32
394.732	-278.01
394.946	-198.14
395.16	434.68
395.373	121.34
395.587	-335.35
395.801	-187.9
396.015	162.3
396.228	100.86
396.442	-321.02
396.656	-400.89
396.869	317.95
397.083	463.35
397.297	-108.03
397.51	-220.67
397.724	328.19
397.938	78.33
398.151	-341.5
398.365	-294.4
398.578	178.69
398.792	250.36
399.005	-85.5
399.219	-155.13
399.433	64
399.646	121.34
399.86	27.14
400.073	-56.83
400.287	80.38
400.5	-32.26
400.714	20.99
400.927	-99.84
401.141	197.12
401.354	1079.79
401.567	154.11
401.781	-333.31
401.994	252.41
402.208	584.18
402.421	-140.8
402.635	-67.07
402.848	-13.82
403.061	272.89
403.275	-69.12
403.488	-306.68
403.701	403.96
403.915	291.32
404.128	-79.36
404.341	-253.44
404.555	150.01
404.768	10.75
404.981	-7.68
405.195	-271.87
405.408	481.78
405.621	186.88
405.834	-58.88
406.048	-341.5
406.261	369.15
406.474	436.73
406.687	-261.63
406.9	-91.65
407.114	96.77
407.327	182.78
407.54	-345.59
407.753	-292.35
407.966	-212.48
408.179	217.6
408.392	-251.39
408.605	-345.59
408.819	137.73
409.032	104.96
409.245	-187.9
409.458	20.99
409.671	121.34
409.884	205.31
410.097	-247.29
410.31	-28.16
410.523	258.56
410.736	-38.4
410.949	-157.18
411.162	-103.93
411.375	397.82
411.588	283.13
411.801	31.23
412.014	-181.76
412.227	33.28
412.44	-65.02
412.653	-189.95
412.865	16.9
413.078	260.6
413.291	195.07
413.504	-132.61
413.717	-189.95
413.93	227.84
414.143	-136.7
414.356	-138.75
414.568	-376.31
414.781	213.5
414.994	96.77
415.207	-138.75
415.42	-118.27
415.632	229.88
415.845	412.15
416.058	-253.44
416.271	-251.39
416.483	98.81
416.696	504.31
416.909	-181.76
417.121	-206.33
417.334	66.05
417.547	471.54
417.759	-157.18
417.972	-173.57
418.185	-56.83
418.397	240.12
418.61	-210.43
418.823	-210.43
419.035	414.2
419.248	-1.54
419.46	-91.65
419.673	-85.5
419.885	156.16
420.098	-22.02
420.311	-144.89
420.523	-316.92
420.736	211.45
420.948	10.75
421.161	-194.05
421.373	-327.16
421.586	137.73
421.798	-157.18
422.01	-325.12
422.223	-126.46
422.435	-73.21
422.648	178.69
422.86	-183.81
423.073	-177.66
423.285	199.16
423.497	-235
423.71	-280.06
423.922	-300.54
424.134	41.47
424.347	389.63
424.559	18.94
424.771	113.15
424.984	0.51
425.196	170.49
425.408	-361.98
425.621	-331.26
425.833	195.07
426.045	363
426.257	-230.91
426.47	-255.48
426.682	96.77
426.894	147.97
427.106	-99.84
427.318	-194.05
427.531	-124.41
427.743	186.88
427.955	-271.87
428.167	178.69
428.379	172.54
428.591	8.7
428.804	-153.09
429.016	-351.74
429.228	-48.64
429.44	137.73
429.652	12.8
429.864	-341.5
430.076	-69.12
430.288	-60.93
430.5	-112.13
430.712	-142.85
430.924	268.8
431.136	92.67
431.348	-419.32
431.56	-144.89
431.772	23.04
431.984	-7.68
432.196	-222.72
432.408	-263.68
432.62	0.51
432.832	123.39
433.044	68.09
433.256	-50.69
433.468	219.64
433.679	-222.72
433.891	-304.64
434.103	27.14
434.315	375.29
434.527	193.02
434.739	-140.8
434.95	-189.95
435.162	238.08
435.374	-116.22
435.586	-187.9
435.798	-196.09
436.009	-300.54
436.221	-95.74
436.433	-241.15
436.645	-179.71
436.856	-103.93
437.068	289.28
437.28	-224.76
437.491	43.52
437.703	145.92
437.915	141.82
438.126	-148.99
438.338	-34.3
438.55	-87.55
438.761	135.68
438.973	-136.7
439.184	-183.81
439.396	6.66
439.608	225.79
439.819	-353.79
440.031	-95.74
440.242	170.49
440.454	227.84
440.665	-194.05
440.877	-87.55
441.088	162.3
441.3	-56.83
441.511	-415.23
441.723	-271.87
441.934	160.25
442.146	4.61
442.357	-5.63
442.569	86.53
442.78	8.7
442.991	432.63
443.203	113.15
443.414	-288.25
443.626	248.32
443.837	-206.33
444.048	-269.82
444.26	-370.17
444.471	90.62
444.682	195.07
444.894	-378.36
445.105	-370.17
445.316	172.54
445.528	172.54
445.739	-79.36
445.95	-159.23
446.161	170.49
446.373	272.89
446.584	-165.37
446.795	-200.19
447.006	190.97
447.217	408.06
447.429	-429.56
447.64	-310.78
447.851	289.28
448.062	31.23
448.273	-394.75
448.484	-230.91
448.695	139.77
448.907	-5.63
449.118	-71.17
449.329	-58.88
449.54	-60.93
449.751	-177.66
449.962	-192
450.173	-275.96
450.384	260.6
450.595	379.39
450.806	-237.05
451.017	-243.2
451.228	293.37
451.439	262.65
451.65	-124.41
451.861	-378.36
452.072	-294.4
452.283	-44.54
452.494	-44.54
452.705	-220.67
452.915	399.87
453.126	133.63
453.337	-181.76
453.548	-230.91
453.759	356.86
453.97	465.4
454.181	51.71
454.391	-171.52
454.602	82.43
454.813	88.57
455.024	-185.85
455.235	-202.24
455.445	193.02
455.656	123.39
455.867	-46.59
456.078	-251.39
456.288	-87.55
456.499	143.87
456.71	-288.25
456.921	-32.26
457.131	143.87
457.342	18.94
457.553	-103.93
457.763	-198.14
457.974	223.74
458.184	264.7
458.395	-288.25
458.606	-208.38
458.816	184.83
459.027	489.98
459.237	-75.26
459.448	-378.36
459.659	320
459.869	528.89
460.08	-312.83
460.29	-155.13
460.501	508.41
460.711	-50.69
460.922	-288.25
461.132	-269.82
461.343	731.64
461.553	-226.81
461.764	-216.57
461.974	-124.41
462.184	213.5
462.395	195.07
462.605	-228.86
462.816	-290.3
463.026	68.09
463.236	301.56
463.447	-239.1
463.657	-243.2
463.867	240.12
464.078	-91.65
464.288	-108.03
464.498	-247.29
464.709	18.94
464.919	-48.64
465.129	-194.05
465.339	-316.92
465.55	74.24
465.76	211.45
465.97	-232.96
466.18	-228.86
466.391	268.8
466.601	156.16
466.811	-165.37
467.021	-341.5
467.231	88.57
467.441	328.19
467.651	-194.05
467.862	-529.91
468.072	29.18
468.282	346.62
468.492	-206.33
468.702	-155.13
468.912	-62.98
469.122	573.94
469.332	107.01
469.542	-253.44
469.752	178.69
469.962	98.81
470.172	-226.81
470.382	-282.11
470.592	186.88
470.802	295.42
471.012	-95.74
471.222	-296.44
471.432	150.01
471.642	88.57
471.852	-40.45
472.062	-284.16
472.272	18.94
472.482	-267.77
472.691	-337.4
472.901	-361.98
473.111	33.28
473.321	541.18
473.531	-304.64
473.741	-271.87
473.95	141.82
474.16	252.41
474.37	-198.14
474.58	-370.17
474.79	444.92
474.999	256.51
475.209	-318.97
475.419	-255.48
475.628	10.75
475.838	283.13
476.048	-249.34
476.258	-286.2
476.467	379.39
476.677	-142.85
476.886	-85.5
477.096	-196.09
477.306	-132.61
477.515	391.67
477.725	-171.52
477.935	-196.09
478.144	377.34
478.354	-165.37
478.563	-177.66
478.773	-206.33
478.982	242.17
479.192	338.43
479.401	-181.76
479.611	-394.75
479.82	-73.21
480.03	98.81
480.239	-288.25
480.449	-300.54
480.658	406.01
480.868	-44.54
481.077	-99.84
481.287	-226.81
481.496	98.81
481.705	350.71
481.915	64
482.124	-30.21
482.333	162.3
482.543	414.2
482.752	-148.99
482.961	-323.07
483.171	219.64
483.38	-9.73
483.589	-65.02
483.799	-316.92
484.008	-65.02
484.217	264.7
484.426	-210.43
484.636	-329.21
484.845	158.21
485.054	-189.95
485.263	-26.11
485.472	-198.14
485.682	492.02
485.891	107.01
486.1	-378.36
486.309	-255.48
486.518	213.5
486.727	295.42
486.936	-306.68
487.146	-185.85
487.355	358.91
487.564	-237.05
487.773	-247.29
487.982	-235
488.191	-136.7
488.4	-17.92
488.609	-232.96
488.818	-212.48
489.027	569.85
489.236	414.2
489.445	-157.18
489.654	-263.68
489.863	293.37
490.072	64
490.281	53.76
490.49	-261.63
490.698	350.71
490.907	436.73
491.116	-308.73
491.325	-450.04
491.534	340.47
491.743	104.96
491.952	-189.95
492.16	-128.51
492.369	141.82
492.578	258.56
492.787	-214.52
492.996	-359.93
493.204	-93.69
493.413	442.87
493.622	-484.86
493.831	-341.5
494.039	375.29
494.248	-183.81
494.457	-318.97
494.665	-435.71
494.874	203.26
495.083	518.65
495.291	-212.48
495.5	-237.05
495.709	215.55
495.917	57.86
496.126	-163.33
496.335	-312.83
496.543	-79.36
496.752	190.97
496.96	82.43
497.169	-388.6
497.377	37.38
497.586	305.66
497.794	-134.65
498.003	-423.42
498.211	-9.73
498.42	424.44
498.628	-105.98
498.837	-292.35
499.045	125.44
499.254	51.71
499.462	-253.44
499.671	-300.54
499.879	432.63
500.087	227.84
500.296	-349.69
500.504	-230.91
500.713	133.63
500.921	487.93
501.129	-263.68
501.338	-222.72
501.546	107.01
501.754	68.09
501.962	-271.87
502.171	-378.36
502.379	193.02
502.587	436.73
502.795	-218.62
503.004	-173.57
503.212	72.19
503.42	233.98
503.628	-275.96
503.837	-132.61
504.045	281.08
504.253	401.91
504.461	-294.4
504.669	-421.37
504.877	150.01
505.085	375.29
505.294	-359.93
505.502	-58.88
505.71	-28.16
505.918	270.84
506.126	-349.69
506.334	-288.25
506.542	-9.73
506.75	197.12
506.958	-185.85
507.166	-255.48
507.374	-62.98
507.582	358.91
507.79	-187.9
507.998	-278.01
508.206	143.87
508.414	186.88
508.622	-316.92
508.83	-230.91
509.037	477.69
509.245	-65.02
509.453	-263.68
509.661	-370.17
509.869	98.81
510.077	16.9
510.285	-167.42
510.492	-583.16
510.7	604.66
510.908	-62.98
511.116	-226.81
511.324	-288.25
511.531	-42.5
511.739	37.38
511.947	-95.74
512.155	25.09
512.362	209.4
512.57	-210.43
512.778	-308.73
512.985	-372.22
513.193	246.27
513.401	410.11
513.608	-222.72
513.816	-230.91
514.024	262.65
514.231	297.47
514.439	-222.72
514.646	-212.48
514.854	260.6
515.061	295.42
515.269	-271.87
515.477	-214.52
515.684	-230.91
515.892	322.04
516.099	-374.27
516.307	-349.69
516.514	190.97
516.722	426.49
516.929	-239.1
517.136	-372.22
517.344	375.29
517.551	115.2
517.759	-237.05
517.966	-167.42
518.173	-24.06
518.381	53.76
518.588	-187.9
518.796	-325.12
519.003	240.12
519.21	43.52
519.418	-263.68
519.625	-60.93
519.832	49.66
520.039	96.77
520.247	-394.75
520.454	-241.15
520.661	219.64
520.868	154.11
521.076	-196.09
521.283	-194.05
521.49	645.62
521.697	102.91
521.904	-235
522.112	-241.15
522.319	238.08
522.526	119.29
522.733	-292.35
522.94	-318.97
523.147	94.72
523.354	264.7
523.561	-458.23
523.768	-206.33
523.975	250.36
524.183	96.77
524.39	-208.38
524.597	-390.65
524.804	45.57
525.011	-77.31
525.218	-310.78
525.425	-284.16
525.632	358.91
525.838	-136.7
526.045	-288.25
526.252	-321.02
526.459	1022.45
526.666	932.34
526.873	-249.34
527.08	-288.25
527.287	322.04
527.494	315.9
527.701	-372.22
527.907	-335.35
528.114	156.16
528.321	14.85
528.528	-165.37
528.735	-282.11
528.941	-136.7
529.148	-32.26
529.355	-206.33
529.562	-286.2
529.768	383.48
529.975	-28.16
530.182	-99.84
530.388	-329.21
530.595	281.08
530.802	-189.95
531.008	-237.05
531.215	-292.35
531.422	446.97
531.628	551.42
531.835	-136.7
532.042	-146.94
532.248	-71.17
532.455	59.9
532.661	-179.71
532.868	-353.79
533.074	-13.82
533.281	264.7
533.487	-208.38
533.694	-325.12
533.9	-165.37
534.107	184.83
534.313	-345.59
534.52	-359.93
534.726	264.7
534.933	436.73
535.139	-333.31
535.345	-390.65
535.552	76.29
535.758	57.86
535.965	-237.05
536.171	-382.46
536.377	174.59
536.584	436.73
536.79	-228.86
536.996	-189.95
537.203	98.81
537.409	127.49
537.615	-267.77
537.821	-118.27
538.028	166.4
538.234	170.49
538.44	-220.67
538.646	-202.24
538.853	252.41
539.059	-28.16
539.265	29.18
539.471	-470.52
539.677	209.4
539.883	-93.69
540.09	-218.62
540.296	66.05
540.502	-1.54
540.708	-134.65
540.914	-81.41
541.12	-222.72
541.326	242.17
541.532	-77.31
541.738	-167.42
541.944	-153.09
542.15	215.55
542.356	-112.13
542.562	-364.03
542.768	-140.8
542.974	600.57
543.18	563.7
543.386	-239.1
543.592	-280.06
543.798	438.78
544.004	299.52
544.21	-292.35
544.415	-138.75
544.621	57.86
544.827	326.14
545.033	-368.12
545.239	-44.54
545.445	-198.14
545.651	139.77
545.856	-245.24
546.062	-255.48
546.268	-58.88
546.474	57.86
546.679	-251.39
546.885	-212.48
547.091	-153.09
547.297	541.18
547.502	-243.2
547.708	-392.7
547.914	-132.61
548.119	143.87
548.325	-351.74
548.531	-269.82
548.736	434.68
548.942	-144.89
549.147	-280.06
549.353	-116.22
549.559	301.56
549.764	184.83
549.97	-232.96
550.175	-300.54
550.381	172.54
550.586	-71.17
550.792	-292.35
550.997	-304.64
551.203	152.06
551.408	133.63
551.614	-454.14
551.819	-286.2
552.025	432.63
552.23	403.96
552.435	-339.45
552.641	-128.51
552.846	-99.84
553.052	340.47
553.257	-187.9
553.462	-228.86
553.668	-173.57
553.873	276.99
554.078	-267.77
554.283	-286.2
554.489	102.91
554.694	-15.87
554.899	-353.79
555.105	-83.45
555.31	213.5
555.515	219.64
555.72	-210.43
555.925	-312.83
556.131	178.69
556.336	-87.55
556.541	-329.21
556.746	-353.79
556.951	332.28
557.156	424.44
557.361	-177.66
557.567	-173.57
557.772	549.37
557.977	188.93
558.182	-278.01
558.387	-239.1
558.592	-62.98
558.797	426.49
559.002	-214.52
559.207	-198.14
559.412	-17.92
559.617	526.84
559.822	-249.34
560.027	-292.35
560.232	53.76
560.437	190.97
560.642	-357.88
560.847	-329.21
561.051	68.09
561.256	64
561.461	-267.77
561.666	-392.7
561.871	55.81
562.076	223.74
562.281	-296.44
562.485	-353.79
562.69	233.98
562.895	221.69
563.1	-267.77
563.305	-310.78
563.509	256.51
563.714	614.9
563.919	-308.73
564.123	-288.25
564.328	-44.54
564.533	268.8
564.737	-161.28
564.942	-288.25
565.147	446.97
565.351	563.7
565.556	-83.45
565.761	-101.89
565.965	100.86
566.17	-146.94
566.374	-226.81
566.579	-441.85
566.784	107.01
566.988	-42.5
567.193	-359.93
567.397	-275.96
567.602	-245.24
567.806	-17.92
568.011	-292.35
568.215	-148.99
568.42	-71.17
568.624	-42.5
568.828	-298.49
569.033	-17.92
569.237	207.36
569.442	131.58
569.646	-341.5
569.85	-251.39
570.055	-54.78
570.259	45.57
570.463	-5.63
570.668	-278.01
570.872	84.48
571.076	-32.26
571.281	-54.78
571.485	-153.09
571.689	168.45
571.893	297.47
572.098	-54.78
572.302	-265.72
572.506	182.78
572.71	51.71
572.914	-226.81
573.119	-218.62
573.323	410.11
573.527	403.96
573.731	-194.05
573.935	-306.68
574.139	109.05
574.343	-194.05
574.547	-263.68
574.751	-196.09
574.955	397.82
575.159	209.4
575.364	-251.39
575.568	-271.87
575.772	-9.73
575.976	369.15
576.18	-329.21
576.383	-333.31
576.587	238.08
576.791	225.79
576.995	-419.32
577.199	-404.99
577.403	317.95
577.607	332.28
577.811	-351.74
578.015	-144.89
578.219	209.4
578.422	334.33
578.626	-218.62
578.83	-132.61
579.034	276.99
579.238	23.04
579.442	-239.1
579.645	127.49
579.849	16.9
580.053	49.66
580.257	-249.34
580.46	-214.52
580.664	221.69
580.868	313.85
581.071	-46.59
581.275	-142.85
581.479	-267.77
581.682	225.79
581.886	-282.11
582.09	-144.89
582.293	205.31
582.497	268.8
582.7	-67.07
582.904	-267.77
583.107	-15.87
583.311	-30.21
583.515	-187.9
583.718	-189.95
583.922	51.71
584.125	438.78
584.329	-218.62
584.532	-120.32
584.735	401.91
584.939	164.35
585.142	-353.79
585.346	-312.83
585.549	119.29
585.753	-79.36
585.956	-165.37
586.159	-79.36
586.363	449.02
586.566	156.16
586.769	-304.64
586.973	-321.02
587.176	168.45
587.379	387.58
587.582	90.62
587.786	0.51
587.989	74.24
588.192	729.59
588.395	-181.76
588.599	80.38
588.802	162.3
589.005	217.6
589.208	-175.61
589.411	-204.28
589.615	309.76
589.818	360.95
590.021	10.75
590.224	-48.64
590.427	276.99
590.63	229.88
590.833	-325.12
591.036	-300.54
591.239	-22.02
591.442	-144.89
591.645	-58.88
591.848	-235
592.051	152.06
592.254	346.62
592.457	-151.04
592.66	-177.66
592.863	64
593.066	260.6
593.269	-261.63
593.472	-26.11
593.675	-157.18
593.878	287.23
594.081	-95.74
594.284	-323.07
594.486	190.97
594.689	51.71
594.892	-112.13
595.095	-171.52
595.298	141.82
595.5	-46.59
595.703	-81.41
595.906	-50.69
596.109	399.87
596.311	352.76
596.514	-388.6
596.717	-148.99
596.92	276.99
597.122	236.03
597.325	-415.23
597.528	-212.48
597.73	446.97
597.933	43.52
598.136	-253.44
598.338	-392.7
598.541	205.31
598.743	358.91
598.946	-163.33
599.148	-142.85
599.351	397.82
599.554	258.56
599.756	-181.76
599.959	-177.66
600.161	350.71
600.363	668.15
600.566	84.48
600.768	-189.95
600.971	571.9
601.173	246.27
601.376	-159.23
601.578	-126.46
601.78	195.07
601.983	702.97
602.185	-253.44
602.388	-26.11
602.59	203.26
602.792	-7.68
602.995	-34.3
603.197	-169.47
603.399	336.38
603.601	193.02
603.804	-157.18
604.006	-267.77
604.208	35.33
604.41	-316.92
604.613	-65.02
604.815	-214.52
605.017	561.66
605.219	-87.55
605.421	133.63
605.623	-157.18
605.826	432.63
606.028	422.39
606.23	-128.51
606.432	-128.51
606.634	446.97
606.836	418.3
607.038	-321.02
607.24	45.57
607.442	68.09
607.644	121.34
607.846	-54.78
608.048	-282.11
608.25	375.29
608.452	-52.74
608.654	-105.98
608.856	-308.73
609.058	23.04
609.26	123.39
609.462	-95.74
609.664	-151.04
609.866	584.18
610.067	383.48
610.269	-13.82
610.471	-173.57
610.673	-40.45
610.875	268.8
611.077	-310.78
611.278	-30.21
611.48	113.15
611.682	475.64
611.884	-73.21
612.085	-177.66
612.287	-140.8
612.489	334.33
612.69	-382.46
612.892	-130.56
613.094	371.19
613.295	82.43
613.497	-239.1
613.699	-132.61
613.9	438.78
614.102	317.95
614.304	-97.79
614.505	-335.35
614.707	88.57
614.908	104.96
615.11	-241.15
615.311	-128.51
615.513	281.08
615.714	289.28
615.916	-341.5
616.117	-103.93
616.319	64
616.52	291.32
616.722	-237.05
616.923	-204.28
617.124	322.04
617.326	231.93
617.527	-75.26
617.729	14.85
617.93	250.36
618.131	231.93
618.333	-89.6
618.534	-89.6
618.735	-79.36
618.937	500.22
619.138	-290.3
619.339	-132.61
619.54	168.45
619.742	41.47
619.943	18.94
620.144	-99.84
620.345	313.85
620.546	360.95
620.748	-175.61
620.949	-75.26
621.15	276.99
621.351	100.86
621.552	-65.02
621.753	-347.64
621.954	-235
622.155	596.47
622.356	-202.24
622.558	-3.58
622.759	154.11
622.96	580.09
623.161	-134.65
623.362	-75.26
623.563	96.77
623.764	186.88
623.965	-58.88
624.166	98.81
624.366	104.96
624.567	238.08
624.768	-390.65
624.969	-167.42
625.17	66.05
625.371	289.28
625.572	-42.5
625.773	-222.72
625.973	459.26
626.174	358.91
626.375	-58.88
626.576	-60.93
626.777	317.95
626.977	692.73
627.178	-155.13
627.379	-7.68
627.58	102.91
627.78	119.29
627.981	-128.51
628.182	-75.26
628.382	432.63
628.583	-214.52
628.784	-187.9
628.984	-40.45
629.185	303.61
629.386	348.67
629.586	-73.21
629.787	-269.82
629.987	416.25
630.188	88.57
630.388	-128.51
630.589	-28.16
630.79	719.35
630.99	158.21
631.191	37.38
631.391	88.57
631.591	340.47
631.792	594.42
631.992	49.66
632.193	-144.89
632.393	553.46
632.594	121.34
632.794	-177.66
632.994	64
633.195	182.78
633.395	203.26
633.595	-134.65
633.796	141.82
633.996	-15.87
634.196	543.22
634.397	-198.14
634.597	-50.69
634.797	6.66
634.997	473.59
635.198	96.77
635.398	-214.52
635.598	188.93
635.798	483.83
635.998	342.52
636.199	-108.03
636.399	43.52
636.599	-105.98
636.799	8.7
636.999	195.07
637.199	326.14
637.399	371.19
637.599	-73.21
637.799	12.8
637.999	31.23
638.199	492.02
638.399	-200.19
638.599	-95.74
638.799	260.6
638.999	692.73
639.199	55.81
639.399	6.66
639.599	530.94
639.799	16.9
639.999	-114.17
640.199	-161.28
640.399	209.4
640.599	360.95
640.799	10.75
640.998	113.15
641.198	494.07
641.398	244.22
641.598	94.72
641.798	-24.06
641.997	1087.98
642.197	207.36
642.397	10.75
642.597	-118.27
642.796	297.47
642.996	514.55
643.196	25.09
643.395	-99.84
643.595	336.38
643.795	-140.8
643.994	-58.88
644.194	82.43
644.394	502.26
644.593	264.7
644.793	-189.95
644.992	72.19
645.192	297.47
645.392	-138.75
645.591	145.92
645.791	-179.71
645.99	287.23
646.19	213.5
646.389	59.9
646.589	39.42
646.788	401.91
646.987	279.04
647.187	205.31
647.386	190.97
647.586	197.12
647.785	485.88
647.984	-58.88
648.184	4.61
648.383	100.86
648.582	248.32
648.782	10.75
648.981	115.2
649.18	53.76
649.38	289.28
649.579	-75.26
649.778	-87.55
649.977	283.13
650.177	326.14
650.376	-22.02
650.575	-87.55
650.774	575.99
650.973	64
651.173	-110.08
651.372	88.57
651.571	203.26
651.77	463.35
651.969	0.51
652.168	72.19
652.367	8.7
652.566	254.46
652.765	-30.21
652.964	334.33
653.163	692.73
653.362	211.45
653.561	-15.87
653.76	-26.11
653.959	121.34
654.158	442.87
654.357	160.25
654.556	72.19
654.755	397.82
654.954	418.3
655.153	-24.06
655.352	162.3
655.551	457.21
655.749	2.56
655.948	86.53
656.147	55.81
656.346	299.52
656.545	168.45
656.743	127.49
656.942	137.73
657.141	264.7
657.34	14.85
657.538	29.18
657.737	-5.63
657.936	133.63
658.135	442.87
658.333	41.47
658.532	123.39
658.731	735.73
658.929	520.7
659.128	297.47
659.326	-5.63
659.525	621.05
659.724	221.69
659.922	-138.75
660.121	-87.55
660.319	455.16
660.518	113.15
660.716	-163.33
660.915	39.42
661.113	635.38
661.312	10.75
661.51	197.12
661.709	-75.26
661.907	403.96
662.105	735.73
662.304	-1.54
662.502	14.85
662.701	678.39
662.899	260.6
663.097	342.52
663.296	-65.02
663.494	526.84
663.692	690.68
663.891	33.28
664.089	-124.41
664.287	420.35
664.485	604.66
664.684	-1.54
664.882	182.78
665.08	211.45
665.278	315.9
665.476	-56.83
665.675	315.9
665.873	717.3
666.071	645.62
666.269	-13.82
666.467	291.32
666.665	330.23
666.863	225.79
667.061	262.65
667.259	14.85
667.457	285.18
667.655	389.63
667.853	-144.89
668.051	156.16
668.249	180.73
668.447	496.12
668.645	-50.69
668.843	223.74
669.041	373.24
669.239	211.45
669.437	94.72
669.635	156.16
669.833	166.4
670.031	399.87
670.229	74.24
670.426	166.4
670.624	332.28
670.822	123.39
671.02	113.15
671.218	84.48
671.415	47.62
671.613	350.71
671.811	205.31
672.009	115.2
672.206	473.59
672.404	352.76
672.602	322.04
672.799	274.94
672.997	383.48
673.195	563.7
673.392	270.84
673.59	-108.03
673.788	481.78
673.985	-22.02
674.183	205.31
674.38	111.1
674.578	508.41
674.775	197.12
674.973	-50.69
675.17	76.29
675.368	711.16
675.565	416.25
675.763	92.67
675.96	25.09
676.158	670.2
676.355	311.8
676.553	27.14
676.75	92.67
676.947	387.58
677.145	283.13
677.342	203.26
677.539	129.53
677.737	334.33
677.934	819.7
678.131	358.91
678.329	154.11
678.526	758.26
678.723	514.55
678.92	111.1
679.118	145.92
679.315	61.95
679.512	690.68
679.709	47.62
679.906	254.46
680.104	614.9
680.301	342.52
680.498	78.33
680.695	-48.64
680.892	250.36
681.089	248.32
681.286	274.94
681.483	39.42
681.68	539.13
681.877	551.42
682.075	117.25
682.272	350.71
682.469	463.35
682.665	330.23
682.862	31.23
683.059	-36.35
683.256	446.97
683.453	436.73
683.65	207.36
683.847	115.2
684.044	434.68
684.241	135.68
684.438	358.91
684.635	-1.54
684.831	834.04
685.028	813.56
685.225	156.16
685.422	342.52
685.619	322.04
685.815	322.04
686.012	195.07
686.209	236.03
686.405	74.24
686.602	555.51
686.799	68.09
686.996	4.61
687.192	188.93
687.389	788.98
687.586	182.78
687.782	219.64
687.979	770.55
688.175	705.01
688.372	276.99
688.568	107.01
688.765	236.03
688.962	801.27
689.158	303.61
689.355	-54.78
689.551	539.13
689.748	215.55
689.944	250.36
690.14	57.86
690.337	629.24
690.533	303.61
690.73	383.48
690.926	270.84
691.123	547.32
691.319	416.25
691.515	27.14
691.712	360.95
691.908	600.57
692.104	543.22
692.301	348.67
692.497	23.04
692.693	662.01
692.889	467.45
693.086	381.43
693.282	-75.26
693.478	420.35
693.674	780.79
693.87	184.83
694.067	35.33
694.263	399.87
694.459	311.8
694.655	383.48
694.851	363
695.047	565.75
695.243	715.25
695.439	350.71
695.635	246.27
695.831	524.79
696.027	510.46
696.224	217.6
696.42	498.17
696.615	797.17
696.811	614.9
697.007	-26.11
697.203	199.16
697.399	592.37
697.595	713.21
697.791	115.2
697.987	346.62
698.183	303.61
698.379	279.04
698.575	244.22
698.77	295.42
698.966	619
699.162	743.92
699.358	330.23
699.554	233.98
699.749	592.37
699.945	653.81
700.141	311.8
700.337	387.58
700.532	389.63
700.728	240.12
700.924	186.88
701.119	92.67
701.315	645.62
701.511	449.02
701.706	295.42
701.902	135.68
702.097	578.04
702.293	612.85
702.489	313.85
702.684	268.8
702.88	489.98
703.075	428.54
703.271	260.6
703.466	90.62
703.662	424.44
703.857	633.33
704.053	186.88
704.248	326.14
704.443	659.96
704.639	674.29
704.834	252.41
705.03	223.74
705.225	690.68
705.42	768.5
705.616	332.28
705.811	170.49
706.006	432.63
706.202	393.72
706.397	268.8
706.592	143.87
706.787	573.94
706.983	498.17
707.178	535.03
707.373	248.32
707.568	707.06
707.763	737.78
707.959	195.07
708.154	268.8
708.349	532.98
708.544	518.65
708.739	475.64
708.934	158.21
709.129	604.66
709.324	782.84
709.519	190.97
709.714	141.82
709.909	739.83
710.104	670.2
710.299	258.56
710.494	334.33
710.689	707.06
710.884	457.21
711.079	342.52
711.274	469.5
711.469	647.67
711.664	608.76
711.859	217.6
712.054	401.91
712.249	711.16
712.443	766.45
712.638	129.53
712.833	281.08
713.028	539.13
713.223	500.22
713.417	555.51
713.612	252.41
713.807	662.01
714.002	1055.22
714.196	522.74
714.391	250.36
714.586	705.01
714.78	508.41
714.975	344.57
715.17	238.08
715.364	416.25
715.559	774.64
715.754	72.19
715.948	199.16
716.143	1001.97
716.337	555.51
716.532	637.43
716.726	240.12
716.921	682.49
717.115	948.72
717.31	164.35
717.504	858.61
717.699	465.4
717.893	713.21
718.088	213.5
718.282	238.08
718.476	627.19
718.671	604.66
718.865	268.8
719.059	367.1
719.254	498.17
719.448	864.75
719.642	1544.68
719.837	217.6
720.031	772.6
720.225	807.41
720.419	401.91
720.614	264.7
720.808	764.4
721.002	504.31
721.196	313.85
721.39	293.37
721.585	895.47
721.779	604.66
721.973	383.48
722.167	154.11
722.361	694.77
722.555	811.51
722.749	346.62
722.943	383.48
723.137	309.76
723.331	612.85
723.525	352.76
723.719	270.84
723.913	698.87
724.107	885.23
724.301	270.84
724.495	428.54
724.689	1061.36
724.883	885.23
725.077	276.99
725.271	346.62
725.465	827.89
725.659	668.15
725.853	494.07
726.046	258.56
726.24	502.26
726.434	868.85
726.628	354.81
726.822	401.91
727.015	907.76
727.209	866.8
727.403	363
727.596	213.5
727.79	858.61
727.984	707.06
728.177	383.48
728.371	444.92
728.565	801.27
728.758	311.8
728.952	313.85
729.146	338.43
729.339	756.21
729.533	535.03
729.726	498.17
729.92	281.08
730.113	903.67
730.307	625.14
730.5	371.19
730.694	240.12
730.887	537.08
731.081	760.31
731.274	258.56
731.468	385.53
731.661	627.19
731.854	449.02
732.048	389.63
732.241	281.08
732.435	520.7
732.628	580.09
732.821	424.44
733.014	242.17
733.208	301.56
733.401	758.26
733.594	401.91
733.788	326.14
733.981	918
734.174	731.64
734.367	393.72
734.56	504.31
734.754	862.71
734.947	608.76
735.14	350.71
735.333	485.88
735.526	860.66
735.719	532.98
735.912	266.75
736.105	281.08
736.298	590.33
736.491	526.84
736.684	299.52
736.877	369.15
737.07	793.08
737.263	983.54
737.456	449.02
737.649	276.99
737.842	498.17
738.035	686.58
738.228	385.53
738.421	563.7
738.614	918
738.807	909.81
739	287.23
739.192	315.9
739.385	848.37
739.578	780.79
739.771	756.21
739.964	311.8
740.156	725.49
740.349	569.85
740.542	596.47
740.735	289.28
740.927	360.95
741.12	444.92
741.313	283.13
741.505	446.97
741.698	715.25
741.891	784.88
742.083	582.14
742.276	440.83
742.468	745.97
742.661	633.33
742.854	522.74
743.046	406.01
743.239	1006.06
743.431	567.8
743.624	510.46
743.816	258.56
744.009	612.85
744.201	825.84
744.393	539.13
744.586	279.04
744.778	846.32
744.971	694.77
745.163	584.18
745.355	532.98
745.548	735.73
745.74	553.46
745.932	518.65
746.125	418.3
746.317	1206.77
746.509	780.79
746.702	506.36
746.894	549.37
747.086	784.88
747.278	907.76
747.471	555.51
747.663	565.75
747.855	791.03
748.047	952.82
748.239	401.91
748.431	467.45
748.623	1079.79
748.815	1044.98
749.008	295.42
749.2	434.68
749.392	899.57
749.584	776.69
749.776	498.17
749.968	559.61
750.16	1055.22
750.352	702.97
750.544	442.87
750.736	451.07
750.928	844.28
751.12	801.27
751.311	485.88
751.503	543.22
751.695	791.03
751.887	682.49
752.079	240.12
752.271	381.43
752.463	1450.47
752.654	858.61
752.846	569.85
753.038	424.44
753.23	590.33
753.421	922.1
753.613	489.98
753.805	748.02
753.997	891.38
754.188	956.91
754.38	473.59
754.572	416.25
754.763	639.48
754.955	868.85
755.146	496.12
755.338	606.71
755.53	819.7
755.721	727.54
755.913	340.47
756.104	399.87
756.296	723.44
756.487	981.49
756.679	502.26
756.87	481.78
757.062	619
757.253	979.44
757.445	526.84
757.636	631.29
757.827	737.78
758.019	1346.03
758.21	344.57
758.401	539.13
758.593	1311.21
758.784	1098.22
758.975	330.23
759.167	346.62
759.358	770.55
759.549	969.2
759.74	494.07
759.932	481.78
760.123	1065.46
760.314	666.1
760.505	662.01
760.696	477.69
760.888	1219.05
761.079	627.19
761.27	539.13
761.461	260.6
761.652	1128.94
761.843	674.29
762.034	582.14
762.225	776.69
762.416	809.46
762.607	821.75
762.798	492.02
762.989	526.84
763.18	1460.71
763.371	719.35
763.562	555.51
763.753	575.99
763.944	965.11
764.135	1022.45
764.326	590.33
764.517	516.6
764.708	836.08
764.899	866.8
765.089	637.43
765.28	324.09
765.471	899.57
765.662	793.08
765.853	625.14
766.043	395.77
766.234	985.58
766.425	1047.02
766.615	586.23
766.806	430.59
766.997	1036.78
767.187	768.5
767.378	451.07
767.569	440.83
767.759	915.95
767.95	956.91
768.141	657.91
768.331	473.59
768.522	821.75
768.712	1014.26
768.903	506.36
769.093	440.83
769.284	1202.67
769.474	782.84
769.665	373.24
769.855	387.58
770.046	817.65
770.236	676.34
770.426	692.73
770.617	535.03
770.807	762.36
770.998	745.97
771.188	745.97
771.378	430.59
771.569	1090.03
771.759	950.77
771.949	424.44
772.139	307.71
772.33	795.12
772.52	1178.09
772.71	526.84
772.9	358.91
773.09	1208.81
773.281	1153.52
773.471	502.26
773.661	489.98
773.851	1018.35
774.041	655.86
774.231	559.61
774.421	717.3
774.611	1147.37
774.802	813.56
774.992	625.14
775.182	457.21
775.372	848.37
775.562	1042.93
775.752	573.94
775.942	694.77
776.131	1069.55
776.321	1057.26
776.511	625.14
776.701	420.35
776.891	1112.56
777.081	590.33
777.271	631.29
777.461	465.4
777.651	901.62
777.84	1106.42
778.03	821.75
778.22	596.47
778.41	1098.22
778.599	631.29
778.789	594.42
778.979	496.12
779.169	877.04
779.358	805.36
779.548	801.27
779.738	444.92
779.927	870.9
780.117	678.39
780.307	637.43
780.496	317.95
780.686	915.95
780.875	1266.16
781.065	530.94
781.254	571.9
781.444	852.47
781.633	831.99
781.823	506.36
782.012	498.17
782.202	731.64
782.391	809.46
782.581	506.36
782.77	698.87
782.96	1092.08
783.149	788.98
783.338	520.7
783.528	399.87
783.717	1071.6
783.906	1174
784.096	694.77
784.285	473.59
784.474	705.01
784.663	641.53
784.853	633.33
785.042	621.05
785.231	752.12
785.42	1063.41
785.61	674.29
785.799	414.2
785.988	805.36
786.177	815.6
786.366	664.05
786.555	752.12
786.744	1067.5
786.933	829.94
787.122	391.67
787.312	498.17
787.501	616.95
787.69	928.24
787.879	612.85
788.068	485.88
788.257	526.84
788.445	743.92
788.634	584.18
788.823	449.02
789.012	1534.44
789.201	1118.7
789.39	696.82
789.579	524.79
789.768	772.6
789.957	891.38
790.145	582.14
790.334	207.36
790.523	690.68
790.712	666.1
790.9	653.81
791.089	449.02
791.278	1047.02
791.467	926.19
791.655	860.66
791.844	1153.52
792.033	727.54
792.221	797.17
792.41	588.28
792.599	463.35
792.787	1040.88
792.976	1020.4
793.164	442.87
793.353	614.9
793.541	942.58
793.73	987.63
793.918	539.13
794.107	592.37
794.295	948.72
794.484	911.86
794.672	596.47
794.861	506.36
795.049	1014.26
795.238	1317.36
795.426	446.97
795.614	655.86
795.803	934.39
795.991	1298.92
796.179	694.77
796.368	551.42
796.556	1155.57
796.744	674.29
796.932	627.19
797.121	487.93
797.309	756.21
797.497	1071.6
797.685	674.29
797.874	518.65
798.062	840.18
798.25	1194.48
798.438	477.69
798.626	530.94
798.814	981.49
799.002	1458.67
799.19	897.52
799.378	678.39
799.566	1116.65
799.755	1239.53
799.943	829.94
800.131	641.53
800.318	901.62
800.506	954.87
800.694	580.09
800.882	657.91
801.07	1192.43
801.258	860.66
801.446	592.37
801.634	688.63
801.822	885.23
802.01	825.84
802.197	623.09
802.385	795.12
802.573	948.72
802.761	698.87
802.949	666.1
803.136	457.21
803.324	1104.37
803.512	834.04
803.699	729.59
803.887	500.22
804.075	1235.44
804.262	877.04
804.45	549.37
804.638	641.53
804.825	629.24
805.013	717.3
805.201	741.88
805.388	434.68
805.576	883.19
805.763	1360.36
805.951	567.8
806.138	858.61
806.326	1321.45
806.513	1006.06
806.701	713.21
806.888	616.95
807.075	997.87
807.263	1368.56
807.45	487.93
807.638	705.01
807.825	1382.89
808.012	1214.96
808.2	864.75
808.387	907.76
808.574	1112.56
808.761	1260.01
808.949	547.32
809.136	727.54
809.323	850.42
809.51	874.99
809.698	1022.45
809.885	870.9
810.072	963.06
810.259	1235.44
810.446	780.79
810.633	631.29
810.82	1253.87
811.008	1262.06
811.195	852.47
811.382	766.45
811.569	903.67
811.756	616.95
811.943	764.4
812.13	713.21
812.317	899.57
812.504	909.81
812.691	848.37
812.878	926.19
813.064	1352.17
813.251	995.82
813.438	678.39
813.625	961.01
813.812	1083.89
813.999	958.96
814.186	844.28
814.372	844.28
814.559	1081.84
814.746	1397.23
814.933	829.94
815.12	983.54
815.306	836.08
815.493	778.74
815.68	813.56
815.866	866.8
816.053	1239.53
816.24	1456.62
816.426	885.23
816.613	647.67
816.799	1231.34
816.986	1391.08
817.173	735.73
817.359	668.15
817.546	1106.42
817.732	653.81
817.919	483.83
818.105	965.11
818.292	950.77
818.478	1239.53
818.665	950.77
818.851	860.66
819.037	1495.53
819.224	1171.95
819.41	676.34
819.597	676.34
819.783	1464.81
819.969	1085.94
820.156	866.8
820.342	674.29
820.528	1853.92
820.714	985.58
820.901	956.91
821.087	797.17
821.273	1378.79
821.459	967.15
821.646	633.33
821.832	625.14
822.018	1034.74
822.204	1008.11
822.39	793.08
822.576	659.96
822.762	1190.38
822.948	1061.36
823.134	985.58
823.32	754.16
823.507	715.25
823.693	1153.52
823.879	1221.1
824.065	813.56
824.25	1135.09
824.436	801.27
824.622	795.12
824.808	725.49
824.994	948.72
825.18	735.73
825.366	739.83
825.552	670.2
825.738	1040.88
825.923	1346.03
826.109	1104.37
826.295	711.16
826.481	924.15
826.667	924.15
826.852	956.91
827.038	696.82
827.224	1266.16
827.409	1573.35
827.595	580.09
827.781	971.25
827.966	1356.27
828.152	1300.97
828.338	776.69
828.523	793.08
828.709	899.57
828.894	1350.12
829.08	782.84
829.266	756.21
829.451	870.9
829.637	1243.63
829.822	899.57
830.008	735.73
830.193	1251.82
830.378	1468.91
830.564	864.75
830.749	688.63
830.935	1188.33
831.12	1212.91
831.305	768.5
831.491	905.71
831.676	946.67
831.861	1206.77
832.047	776.69
832.232	596.47
832.417	1255.92
832.602	1053.17
832.788	815.6
832.973	764.4
833.158	1067.5
833.343	958.96
833.528	911.86
833.714	829.94
833.899	1276.4
834.084	1671.65
834.269	918
834.454	887.28
834.639	1219.05
834.824	1067.5
835.009	1004.02
835.194	1126.89
835.379	1356.27
835.564	1503.72
835.749	893.43
835.934	788.98
836.119	1278.44
836.304	1081.84
836.489	817.65
836.674	1147.37
836.859	942.58
837.044	1407.47
837.228	797.17
837.413	688.63
837.598	1204.72
837.783	1350.12
837.968	893.43
838.152	768.5
838.337	780.79
838.522	1403.37
838.707	1237.49
838.891	989.68
839.076	1270.25
839.261	1333.74
839.445	893.43
839.63	1102.32
839.815	1624.55
839.999	1059.31
840.184	758.26
840.368	825.84
840.553	1337.84
840.737	1346.03
840.922	913.91
841.106	696.82
841.291	821.75
841.475	1114.61
841.66	799.22
841.844	956.91
842.029	1776.1
842.213	791.03
842.397	860.66
842.582	682.49
842.766	1358.32
842.951	1372.65
843.135	836.08
843.319	870.9
843.504	1071.6
843.688	1346.03
843.872	672.25
844.056	772.6
844.241	1303.02
844.425	1044.98
844.609	1114.61
844.793	707.06
844.977	1491.43
845.161	1214.96
845.346	711.16
845.53	752.12
845.714	1092.08
845.898	1389.03
846.082	764.4
846.266	874.99
846.45	1065.46
846.634	1182.19
846.818	750.07
847.002	926.19
847.186	1364.46
847.37	989.68
847.554	766.45
847.738	942.58
847.922	1137.13
848.106	1112.56
848.29	698.87
848.473	897.52
848.657	1356.27
848.841	1030.64
849.025	979.44
849.209	717.3
849.392	1280.49
849.576	1014.26
849.76	616.95
849.944	1112.56
850.127	1501.67
850.311	817.65
850.495	709.11
850.678	655.86
850.862	1350.12
851.046	1438.19
851.229	1096.18
851.413	786.93
851.596	1139.18
851.78	1094.13
851.964	1008.11
852.147	887.28
852.331	1819.11
852.514	1380.84
852.698	965.11
852.881	743.92
853.065	1325.55
853.248	1137.13
853.431	813.56
853.615	936.43
853.798	1665.51
853.982	1174
854.165	1053.17
854.348	877.04
854.532	887.28
854.715	1032.69
854.898	936.43
855.081	809.46
855.265	1516.01
855.448	1520.1
855.631	780.79
855.814	868.85
855.997	1348.08
856.181	1040.88
856.364	991.73
856.547	842.23
856.73	1264.11
856.913	1178.09
857.096	729.59
857.279	807.41
857.462	1012.21
857.645	1307.12
857.828	1042.93
858.011	975.35
858.194	1073.65
858.377	1337.84
858.56	750.07
858.743	907.76
858.926	864.75
859.109	1235.44
859.292	883.19
859.475	768.5
859.658	1374.7
859.841	1190.38
860.023	723.44
860.206	776.69
860.389	1206.77
860.572	1479.15
860.755	844.28
860.937	829.94
861.12	1053.17
861.303	1057.26
861.486	887.28
861.668	817.65
861.851	1309.16
862.034	1292.78
862.216	987.63
862.399	627.19
862.581	1253.87
862.764	1462.76
862.947	936.43
863.129	825.84
863.312	805.36
863.494	1597.93
863.677	1128.94
863.859	619
864.042	1182.19
864.224	1542.63
864.406	942.58
864.589	788.98
864.771	1210.86
864.954	870.9
865.136	831.99
865.318	696.82
865.501	1178.09
865.683	776.69
865.865	897.52
866.048	860.66
866.23	1128.94
866.412	1255.92
866.594	805.36
866.777	870.9
866.959	1300.97
867.141	954.87
867.323	1042.93
867.505	958.96
867.687	1161.71
867.869	1194.48
868.052	846.32
868.234	760.31
868.416	1075.7
868.598	1288.68
868.78	866.8
868.962	791.03
869.144	1333.74
869.326	1292.78
869.508	803.32
869.69	715.25
869.872	1071.6
870.054	1333.74
870.236	707.06
870.417	834.04
870.599	1096.18
870.781	1577.45
870.963	1008.11
871.145	754.16
871.327	899.57
871.508	1382.89
871.69	842.23
871.872	911.86
872.054	1135.09
872.235	1386.99
872.417	940.53
872.599	815.6
872.78	1569.26
872.962	1198.57
873.144	764.4
873.325	893.43
873.507	1462.76
873.689	1348.08
873.87	731.64
874.052	961.01
874.233	1104.37
874.415	1409.51
874.596	942.58
874.778	774.64
874.959	1174
875.141	1395.18
875.322	915.95
875.503	825.84
875.685	1253.87
875.866	862.71
876.048	735.73
876.229	795.12
876.41	1096.18
876.592	1276.4
876.773	731.64
876.954	719.35
877.136	1464.81
877.317	1083.89
877.498	786.93
877.679	952.82
877.86	1251.82
878.042	1194.48
878.223	907.76
878.404	1227.25
878.585	1319.4
878.766	1634.79
878.947	1178.09
879.128	1071.6
879.309	1370.6
879.49	1350.12
879.672	1014.26
879.853	926.19
880.034	1001.97
880.215	1147.37
880.396	1032.69
880.576	897.52
880.757	1081.84
880.938	1538.54
881.119	907.76
881.3	852.47
881.481	1098.22
881.662	2122.21
881.843	862.71
882.023	733.68
882.204	1237.49
882.385	1243.63
882.566	1001.97
882.747	909.81
882.927	1194.48
883.108	1249.77
883.289	975.35
883.469	1167.85
883.65	993.78
883.831	1305.07
884.011	1047.02
884.192	821.75
884.373	1434.09
884.553	1309.16
884.734	1036.78
884.914	1274.35
885.095	1890.79
885.275	1606.12
885.456	1182.19
885.636	850.42
885.817	1221.1
885.997	1272.3
886.178	993.78
886.358	1018.35
886.538	1264.11
886.719	2288.09
886.899	969.2
887.08	1028.59
887.26	1501.67
887.44	956.91
887.621	899.57
887.801	1139.18
887.981	1837.54
888.161	1497.58
888.342	1014.26
888.522	1083.89
888.702	1516.01
888.882	1606.12
889.062	1163.76
889.242	731.64
889.423	1718.76
889.603	1448.43
889.783	1221.1
889.963	1024.5
890.143	1466.86
890.323	1624.55
890.503	1128.94
890.683	1124.85
890.863	1413.61
891.043	1427.95
891.223	1159.66
891.403	1247.72
891.583	1282.54
891.763	1346.03
891.943	1223.15
892.122	1061.36
892.302	1286.64
892.482	1296.88
892.662	1266.16
892.842	1198.57
893.022	1384.94
893.201	1303.02
893.381	1268.2
893.561	1073.65
893.741	1595.88
893.92	1470.95
894.1	1061.36
894.28	1036.78
894.459	1507.82
894.639	1448.43
894.819	1120.75
894.998	1233.39
895.178	1479.15
895.357	1522.15
895.537	1059.31
895.716	995.82
895.896	1329.64
896.075	1685.99
896.255	1094.13
896.434	858.61
896.614	1714.66
896.793	1755.62
896.973	1229.29
897.152	1245.68
897.331	1427.95
897.511	1577.45
897.69	872.95
897.87	1227.25
898.049	1581.54
898.228	1419.75
898.407	1346.03
898.587	1272.3
898.766	1223.15
898.945	1524.2
899.124	1444.33
899.304	1262.06
899.483	1538.54
899.662	1946.08
899.841	1104.37
900.02	1182.19
900.199	1667.56
900.378	1434.09
900.557	1044.98
900.737	973.3
900.916	1468.91
901.095	1622.5
901.274	1415.66
901.453	1069.55
901.632	1157.61
901.811	1268.2
901.989	1214.96
902.168	1118.7
902.347	1565.16
902.526	1354.22
902.705	1186.29
902.884	1221.1
903.063	1753.57
903.242	1675.75
903.42	1108.46
903.599	1227.25
903.778	1526.25
903.957	1747.43
904.135	1145.33
904.314	1219.05
904.493	1468.91
904.672	1464.81
904.85	1167.85
905.029	1010.16
905.207	1495.53
905.386	2138.59
905.565	1055.22
905.743	1104.37
905.922	1260.01
906.1	1585.64
906.279	973.3
906.457	1157.61
906.636	1206.77
906.814	1397.23
906.993	1165.81
907.171	1145.33
907.35	1522.15
907.528	1677.8
907.707	1341.93
907.885	1096.18
908.063	1776.1
908.242	1157.61
908.42	1231.34
908.598	1004.02
908.777	1571.3
908.955	1266.16
909.133	1239.53
909.311	1081.84
909.49	1264.11
909.668	1382.89
909.846	1112.56
910.024	915.95
910.202	1393.13
910.38	1530.34
910.559	950.77
910.737	1030.64
910.915	1399.27
911.093	1487.34
911.271	1184.24
911.449	1350.12
911.627	1491.43
911.805	1821.16
911.983	1073.65
912.161	1126.89
912.339	1491.43
912.517	1737.19
912.695	1290.73
912.872	1110.51
913.05	1141.23
913.228	1399.27
913.406	1036.78
913.584	965.11
913.762	1460.71
913.939	1233.39
914.117	1116.65
914.295	1096.18
914.473	1452.52
914.65	1352.17
914.828	1130.99
915.006	999.92
915.184	1071.6
915.361	1366.51
915.539	1145.33
915.716	1264.11
915.894	1401.32
916.072	1556.97
916.249	1294.83
916.427	1278.44
916.604	1106.42
916.782	1376.75
916.959	883.19
917.137	1169.9
917.314	1343.98
917.492	1505.77
917.669	1202.67
917.847	1241.58
918.024	1436.14
918.201	1137.13
918.379	1139.18
918.556	1077.74
918.733	1524.2
918.911	1296.88
919.088	1204.72
919.265	1018.35
919.442	1364.46
919.62	1309.16
919.797	1049.07
919.974	956.91
920.151	1370.6
920.328	1280.49
920.506	985.58
920.683	1272.3
920.86	1001.97
921.037	1130.99
921.214	1171.95
921.391	1044.98
921.568	1522.15
921.745	1102.32
921.922	1124.85
922.099	864.75
922.276	1597.93
922.453	1356.27
922.63	922.1
922.807	1264.11
922.984	1356.27
923.161	1069.55
923.338	1051.12
923.514	993.78
923.691	1270.25
923.868	1446.38
924.045	926.19
924.222	948.72
924.399	1335.79
924.575	1520.1
924.752	1047.02
924.929	1061.36
925.105	1403.37
925.282	1024.5
925.459	1067.5
925.635	1057.26
925.812	1290.73
925.989	1104.37
926.165	1124.85
926.342	893.43
926.518	1073.65
926.695	1194.48
926.871	881.14
927.048	754.16
927.224	1393.13
927.401	1067.5
927.577	981.49
927.754	899.57
927.93	1401.32
928.107	1429.99
928.283	934.39
928.459	1016.3
928.636	1251.82
928.812	1116.65
928.988	829.94
929.165	881.14
929.341	1182.19
929.517	1065.46
929.693	1255.92
929.87	809.46
930.046	1292.78
930.222	1059.31
930.398	801.27
930.574	1042.93
930.751	1157.61
930.927	981.49
931.103	922.1
931.279	887.28
931.455	985.58
931.631	1153.52
931.807	733.68
931.983	705.01
932.159	903.67
932.335	1051.12
932.511	924.15
932.687	811.51
932.863	1214.96
933.039	1188.33
933.215	821.75
933.391	674.29
933.566	985.58
933.742	1104.37
933.918	815.6
934.094	670.2
934.27	989.68
934.445	1087.98
934.621	872.95
934.797	678.39
934.973	1264.11
935.148	1098.22
935.324	727.54
935.5	561.66
935.675	1202.67
935.851	1038.83
936.027	743.92
936.202	743.92
936.378	1087.98
936.553	922.1
936.729	1075.7
936.904	614.9
937.08	684.53
937.255	739.83
937.431	489.98
937.606	588.28
937.782	709.11
937.957	987.63
938.133	659.96
938.308	580.09
938.483	836.08
938.659	719.35
938.834	545.27
939.009	510.46
939.185	727.54
939.36	637.43
939.535	268.8
939.71	602.61
939.886	1028.59
940.061	823.8
940.236	705.01
940.411	522.74
940.586	920.05
940.761	950.77
940.937	457.21
941.112	383.48
941.287	702.97
941.462	809.46
941.637	412.15
941.812	465.4
941.987	715.25
942.162	664.05
942.337	588.28
942.512	424.44
942.687	950.77
942.862	817.65
943.037	350.71
943.212	197.12
943.386	535.03
943.561	643.57
943.736	635.38
943.911	717.3
944.086	666.1
944.26	709.11
944.435	436.73
944.61	524.79
944.785	922.1
944.959	1128.94
945.134	541.18
945.309	334.33
945.483	475.64
945.658	973.3
945.833	141.82
946.007	227.84
946.182	1018.35
946.357	365.05
946.531	430.59
946.706	332.28
946.88	272.89
947.055	692.73
947.229	360.95
947.404	330.23
947.578	864.75
947.752	539.13
947.927	190.97
948.101	197.12
948.276	610.81
948.45	594.42
948.624	510.46
948.799	252.41
948.973	702.97
949.147	328.19
949.321	440.83
949.496	336.38
949.67	819.7
949.844	635.38
950.018	279.04
950.193	367.1
950.367	1063.41
950.541	608.76
950.715	502.26
950.889	506.36
951.063	467.45
951.237	793.08
951.411	217.6
951.585	221.69
951.759	801.27
951.933	541.18
952.107	276.99
952.281	508.41
952.455	903.67
952.629	774.64
952.803	315.9
952.977	342.52
953.151	752.12
953.325	680.44
953.499	608.76
953.672	231.93
953.846	248.32
954.02	569.85
954.194	272.89
954.368	352.76
954.541	637.43
954.715	492.02
954.889	422.39
955.062	240.12
955.236	555.51
955.41	455.16
955.583	565.75
955.757	240.12
955.93	528.89
956.104	406.01
956.278	326.14
956.451	328.19
956.625	598.52
956.798	1087.98
956.972	619
957.145	297.47
957.319	526.84
957.492	553.46
957.665	446.97
957.839	356.86
958.012	768.5
958.185	559.61
958.359	461.3
958.532	653.81
958.705	784.88
958.879	674.29
959.052	475.64
959.225	119.29
959.398	543.22
959.572	737.78
959.745	293.37
959.918	432.63
960.091	473.59
960.264	655.86
960.438	252.41
960.611	332.28
960.784	723.44
960.957	436.73
961.13	727.54
961.303	236.03
961.476	514.55
961.649	805.36
961.822	244.22
961.995	403.96
962.168	727.54
962.341	596.47
962.514	268.8
962.686	317.95
962.859	598.52
963.032	666.1
963.205	391.67
963.378	176.64
963.551	707.06
963.723	715.25
963.896	406.01
964.069	555.51
964.242	561.66
964.414	793.08
964.587	381.43
964.76	457.21
964.932	705.01
965.105	500.22
965.278	412.15
965.45	309.76
965.623	639.48
965.795	713.21
965.968	369.15
966.14	295.42
966.313	557.56
966.485	608.76
966.658	338.43
966.83	309.76
967.003	825.84
967.175	858.61
967.348	365.05
967.52	461.3
967.692	989.68
967.865	639.48
968.037	371.19
968.209	590.33
968.382	584.18
968.554	768.5
968.726	258.56
968.898	285.18
969.071	645.62
969.243	711.16
969.415	363
969.587	344.57
969.759	1055.22
969.932	778.74
970.104	360.95
970.276	86.53
970.448	559.61
970.62	494.07
970.792	477.69
970.964	477.69
971.136	1030.64
971.308	745.97
971.48	313.85
971.652	330.23
971.824	1024.5
971.996	508.41
972.168	408.06
972.339	412.15
972.511	766.45
972.683	582.14
972.855	592.37
973.027	397.82
973.199	682.49
973.37	672.25
973.542	473.59
973.714	565.75
973.886	512.5
974.057	817.65
974.229	266.75
974.401	268.8
974.572	295.42
974.744	207.36
974.915	90.62
975.087	260.6
975.259	883.19
975.43	543.22
975.602	377.34
975.773	260.6
975.945	313.85
976.116	739.83
976.288	229.88
976.459	586.23
976.63	481.78
976.802	670.2
976.973	223.74
977.145	449.02
977.316	952.82
977.487	907.76
977.659	438.78
977.83	303.61
978.001	989.68
978.172	592.37
978.344	217.6
978.515	317.95
978.686	473.59
978.857	909.81
979.028	270.84
979.2	258.56
979.371	766.45
979.542	600.57
979.713	510.46
979.884	10.75
980.055	451.07
980.226	453.11
980.397	139.77
980.568	178.69
980.739	758.26
980.91	498.17
981.081	385.53
981.252	197.12
981.423	629.24
981.594	770.55
981.765	322.04
981.936	489.98
982.106	522.74
982.277	823.8
982.448	178.69
982.619	492.02
982.79	469.5
982.96	821.75
983.131	494.07
983.302	76.29
983.472	383.48
983.643	647.67
983.814	403.96
983.984	334.33
984.155	424.44
984.326	813.56
984.496	342.52
984.667	276.99
984.837	373.24
985.008	754.16
985.178	475.64
985.349	383.48
985.519	524.79
985.69	317.95
985.86	326.14
986.031	168.45
986.201	565.75
986.371	598.52
986.542	219.64
986.712	139.77
986.882	702.97
987.053	573.94
987.223	301.56
987.393	434.68
987.563	555.51
987.734	608.76
987.904	555.51
988.074	274.94
988.244	510.46
988.414	383.48
988.585	246.27
988.755	371.19
988.925	461.3
989.095	860.66
989.265	170.49
989.435	350.71
989.605	762.36
989.775	688.63
989.945	539.13
990.115	213.5
990.285	528.89
990.455	502.26
990.625	322.04
990.795	244.22
990.965	745.97
991.134	344.57
991.304	182.78
991.474	274.94
991.644	565.75
991.814	852.47
991.984	127.49
992.153	289.28
992.323	391.67
992.493	449.02
992.662	-40.45
992.832	424.44
993.002	481.78
993.171	639.48
993.341	37.38
993.511	311.8
993.68	363
993.85	709.11
994.019	80.38
994.189	154.11
994.358	549.37
994.528	410.11
994.697	14.85
994.867	178.69
995.036	588.28
995.206	371.19
995.375	180.73
995.544	305.66
995.714	489.98
995.883	373.24
996.052	346.62
996.222	-67.07
996.391	983.54
996.56	389.63
996.73	98.81
996.899	-67.07
997.068	784.88
997.237	414.2
997.406	94.72
997.576	68.09
997.745	549.37
997.914	524.79
998.083	23.04
998.252	137.73
998.421	492.02
998.59	320
998.759	154.11
998.928	-22.02
999.097	688.63
999.266	596.47
999.435	270.84
999.604	-15.87
999.773	920.05
999.942	391.67
1000.111	-40.45
1000.28	18.94
1000.448	223.74
1000.617	217.6
1000.786	305.66
1000.955	29.18
1001.124	485.88
1001.292	1018.35
1001.461	31.23
1001.63	41.47
1001.798	713.21
1001.967	739.83
1002.136	33.28
1002.304	43.52
1002.473	451.07
1002.642	465.4
1002.81	170.49
1002.979	100.86
1003.147	596.47
1003.316	864.75
1003.484	137.73
1003.653	115.2
1003.821	733.68
1003.99	367.1
1004.158	260.6
1004.327	190.97
1004.495	473.59
1004.663	170.49
1004.832	238.08
1005	6.66
1005.168	494.07
1005.337	393.72
1005.505	-34.3
1005.673	186.88
1005.842	565.75
1006.01	602.61
1006.178	-36.35
1006.346	59.9
1006.514	506.36
1006.683	702.97
1006.851	84.48
1007.019	-62.98
1007.187	188.93
1007.355	-15.87
1007.523	-77.31
1007.691	-42.5
1007.859	162.3
1008.027	748.02
1008.195	135.68
1008.363	-99.84
1008.531	518.65
1008.699	236.03
1008.867	-71.17
1009.035	164.35
1009.203	702.97
1009.37	406.01
1009.538	31.23
1009.706	504.31
1009.874	369.15
1010.042	317.95
1010.209	-112.13
1010.377	-69.12
1010.545	522.74
1010.713	315.9
1010.88	-56.83
1011.048	25.09
1011.216	305.66
1011.383	580.09
1011.551	76.29
1011.718	-132.61
1011.886	545.27
1012.054	371.19
1012.221	-46.59
1012.389	2.56
1012.556	283.13
1012.724	823.8
1012.891	129.53
1013.058	-142.85
1013.226	483.83
1013.393	489.98
1013.561	-122.37
1013.728	-65.02
1013.895	500.22
1014.063	467.45
1014.23	-138.75
1014.397	4.61
1014.565	649.72
1014.732	229.88
1014.899	-105.98
1015.066	-40.45
1015.233	309.76
1015.401	459.26
1015.568	16.9
1015.735	162.3
1015.902	320
1016.069	420.35
1016.236	-32.26
1016.403	-60.93
1016.57	162.3
1016.737	565.75
1016.904	104.96
1017.071	-46.59
1017.238	242.17
1017.405	633.33
1017.572	-126.46
1017.739	150.01
1017.906	461.3
1018.073	598.52
1018.24	-73.21
1018.407	59.9
1018.573	772.6
1018.74	281.08
1018.907	-24.06
1019.074	-157.18
1019.241	522.74
1019.407	393.72
1019.574	2.56
1019.741	-136.7
1019.907	424.44
1020.074	387.58
1020.241	-239.1
1020.407	-110.08
1020.574	453.11
1020.74	444.92
1020.907	59.9
1021.073	-99.84
1021.24	862.71
1021.406	731.64
1021.573	-89.6
1021.739	25.09
1021.906	518.65
1022.072	311.8
1022.239	-32.26
1022.405	-1.54
1022.571	334.33
1022.738	141.82
1022.904	-75.26
1023.07	-17.92
1023.237	399.87
1023.403	549.37
1023.569	49.66
1023.735	-83.45
1023.902	414.2
1024.068	395.77
1024.234	-101.89
1024.4	-108.03
1024.566	436.73
1024.732	504.31
1024.898	-54.78
1025.065	-200.19
1025.231	387.58
1025.397	270.84
1025.563	-40.45
1025.729	-142.85
1025.895	-56.83
1026.061	143.87
1026.227	-189.95
1026.392	-50.69
1026.558	571.9
1026.724	414.2
1026.89	-95.74
1027.056	-1.54
1027.222	399.87
1027.388	215.55
1027.553	-155.13
1027.719	-108.03
1027.885	600.57
1028.051	410.11
1028.216	-194.05
1028.382	-58.88
1028.548	586.23
1028.713	203.26
1028.879	-136.7
1029.045	23.04
1029.21	567.8
1029.376	573.94
1029.541	-108.03
1029.707	-30.21
1029.873	444.92
1030.038	436.73
1030.204	-124.41
1030.369	-22.02
1030.534	449.02
1030.7	170.49
1030.865	-42.5
1031.031	-77.31
1031.196	451.07
1031.361	418.3
1031.527	-144.89
1031.692	-151.04
1031.857	-65.02
1032.023	489.98
1032.188	-108.03
1032.353	-54.78
1032.518	768.5
1032.684	283.13
1032.849	-224.76
1033.014	-42.5
1033.179	379.39
1033.344	444.92
1033.509	-40.45
1033.674	-130.56
1033.839	479.74
1034.004	465.4
1034.17	-112.13
1034.335	-140.8
1034.5	266.75
1034.664	139.77
1034.829	-169.47
1034.994	-97.79
1035.159	358.91
1035.324	356.86
1035.489	-118.27
1035.654	-165.37
1035.819	614.9
1035.984	442.87
1036.148	-69.12
1036.313	-38.4
1036.478	371.19
1036.643	375.29
1036.807	-79.36
1036.972	-118.27
1037.137	522.74
1037.301	242.17
1037.466	-259.58
1037.631	-91.65
1037.795	444.92
1037.96	367.1
1038.124	0.51
1038.289	-292.35
1038.454	498.17
1038.618	420.35
1038.783	-112.13
1038.947	-52.74
1039.111	274.94
1039.276	160.25
1039.44	-169.47
1039.605	371.19
1039.769	303.61
1039.933	309.76
1040.098	-46.59
1040.262	170.49
1040.426	539.13
1040.591	393.72
1040.755	-138.75
1040.919	-75.26
1041.083	309.76
1041.248	268.8
1041.412	-259.58
1041.576	-157.18
1041.74	215.55
1041.904	485.88
1042.068	-173.57
1042.232	-52.74
1042.397	510.46
1042.561	371.19
1042.725	-321.02
1042.889	49.66
1043.053	387.58
1043.217	391.67
1043.381	0.51
1043.544	-153.09
1043.708	541.18
1043.872	37.38
1044.036	-402.94
1044.2	-300.54
1044.364	565.75
1044.528	604.66
1044.691	3324.37
1044.855	-247.29
1045.019	506.36
1045.183	481.78
1045.346	-32.26
1045.51	-175.61
1045.674	358.91
1045.837	328.19
1046.001	-69.12
1046.165	-58.88
1046.328	823.8
1046.492	389.63
1046.655	51.71
1046.819	-17.92
1046.983	113.15
1047.146	363
1047.31	0.51
1047.473	-294.4
1047.636	260.6
1047.8	45.57
1047.963	-83.45
1048.127	-140.8
1048.29	55.81
