Data from Ink_Intensity_USB4F045381__168__00168.txt Node

Date: Mon Jul 17 11:36:28 EDT 2023
User: mmckonesweet
Spectrometer: USB4F04538
Trigger mode: 4
Integration Time (sec): 9.000000E-1
Scans to average: 1
Electric dark correction enabled: true
Nonlinearity correction enabled: false
Boxcar width: 0
XAxis mode: Wavelengths
Number of Pixels in Spectrum: 3648
>>>>>Begin Spectral Data<<<<<
345.52	-1038.49
345.736	-1038.49
345.952	-1038.49
346.168	-1034.39
346.384	-1048.73
346.6	-172.2
346.816	-231.59
347.032	-188.58
347.248	331.6
347.464	-284.84
347.68	-131.24
347.896	81.75
348.112	403.28
348.328	-47.27
348.544	-59.56
348.76	-10.41
348.975	309.07
349.191	-256.17
349.407	-215.21
349.623	22.36
349.839	-190.63
350.055	-155.82
350.27	32.6
350.486	118.61
350.702	331.6
350.918	188.24
351.133	-176.3
351.349	87.89
351.565	352.08
351.781	-266.41
351.996	20.31
352.212	202.58
352.428	-180.39
352.644	-301.22
352.859	-295.08
353.075	253.78
353.291	112.47
353.506	-155.82
353.722	-182.44
353.938	-125.1
354.153	446.29
354.369	75.6
354.584	-223.4
354.8	214.87
355.016	-366.76
355.231	-225.45
355.447	-145.58
355.662	85.84
355.878	796.49
356.093	-340.13
356.309	-88.23
356.524	-262.31
356.74	157.52
356.955	-149.67
357.171	-2.22
357.386	202.58
357.602	-211.11
357.817	-41.13
358.033	-247.97
358.248	333.65
358.464	83.8
358.679	-121
358.895	-340.13
359.11	-88.23
359.325	264.02
359.541	-10.41
359.756	-41.13
359.972	-317.61
360.187	153.43
360.402	-221.35
360.618	-182.44
360.833	991.05
361.048	59.22
361.264	-239.78
361.479	-75.95
361.694	-20.65
361.909	180.05
362.125	-329.89
362.34	-133.29
362.555	229.2
362.77	98.13
362.986	-348.33
363.201	-204.97
363.416	112.47
363.631	46.93
363.847	-202.92
364.062	-209.06
364.277	184.15
364.492	42.84
364.707	-239.78
364.922	-420
365.138	274.26
365.353	239.44
365.568	-313.51
365.783	-116.9
365.998	32.6
366.213	593.74
366.428	-252.07
366.643	71.51
366.858	278.35
367.073	221.01
367.288	-153.77
367.503	-190.63
367.718	135
367.933	194.39
368.148	-303.27
368.363	-188.58
368.578	-77.99
368.793	386.9
369.008	-200.87
369.223	-264.36
369.438	182.1
369.653	372.56
369.868	-254.12
370.083	-256.17
370.298	71.51
370.513	255.83
370.728	-34.99
370.943	-264.36
371.157	-170.15
371.372	380.75
371.587	-336.04
371.802	-374.95
372.017	-32.94
372.232	442.19
372.446	-80.04
372.661	-280.74
372.876	245.59
373.091	69.46
373.306	-84.14
373.52	-243.88
373.735	-164.01
373.95	423.76
374.165	-211.11
374.379	-123.05
374.594	-157.86
374.809	96.08
375.023	10.07
375.238	-198.82
375.453	186.19
375.667	-303.27
375.882	-190.63
376.097	-293.03
376.311	75.6
376.526	-108.71
376.741	-190.63
376.955	55.12
377.17	403.28
377.384	546.64
377.599	-26.79
377.813	-417.96
378.028	477.01
378.242	153.43
378.457	-121
378.672	-436.39
378.886	18.26
379.101	-80.04
379.315	-381.09
379.53	-221.35
379.744	116.56
379.958	89.94
380.173	-149.67
380.387	-299.17
380.602	161.62
380.816	-69.8
381.031	-207.02
381.245	-172.2
381.459	227.15
381.674	2684.72
381.888	-309.41
382.103	20.31
382.317	-227.5
382.531	429.9
382.746	-114.86
382.96	-239.78
383.174	-161.96
383.388	413.52
383.603	-0.17
383.817	-362.66
384.031	171.86
384.246	483.15
384.46	-71.85
384.674	278.35
384.888	-47.27
385.103	98.13
385.317	-344.23
385.531	-161.96
385.745	302.93
385.959	235.35
386.174	-250.02
386.388	-327.85
386.602	32.6
386.816	-260.26
387.03	-168.1
387.244	-151.72
387.458	-12.46
387.672	284.5
387.887	-325.8
388.101	-352.42
388.315	333.65
388.529	120.66
388.743	-112.81
388.957	-235.69
389.171	251.73
389.385	-182.44
389.599	-188.58
389.813	71.51
390.027	216.91
390.241	587.6
390.455	-153.77
390.669	-159.91
390.883	-186.54
391.097	378.7
391.311	-22.7
391.525	-190.63
391.738	184.15
391.952	208.72
392.166	-86.19
392.38	-286.89
392.594	132.95
392.808	247.63
393.022	-172.2
393.236	-284.84
393.449	165.71
393.663	104.28
393.877	-288.93
394.091	-161.96
394.305	-69.8
394.518	-192.68
394.732	-297.13
394.946	-174.25
395.16	399.18
395.373	71.51
395.587	-311.46
395.801	-215.21
396.015	229.2
396.228	155.47
396.442	-381.09
396.656	-454.82
396.869	251.73
397.083	417.61
397.297	-108.71
397.51	-188.58
397.724	317.26
397.938	83.8
398.151	-426.15
398.365	-358.57
398.578	126.8
398.792	425.81
399.005	-22.7
399.219	-141.48
399.433	104.28
399.646	147.28
399.86	-24.75
400.073	5.97
400.287	208.72
400.5	-28.84
400.714	-37.03
400.927	-108.71
401.141	315.22
401.354	1021.77
401.567	157.52
401.781	-223.4
401.994	233.3
402.208	536.4
402.421	-129.19
402.635	-139.43
402.848	-65.71
403.061	253.78
403.275	-110.76
403.488	-305.32
403.701	401.23
403.915	214.87
404.128	-18.6
404.341	-264.36
404.555	157.52
404.768	57.17
404.981	38.74
405.195	-262.31
405.408	466.77
405.621	198.48
405.834	-71.85
406.048	-305.32
406.261	345.94
406.474	427.85
406.687	-190.63
406.9	-43.18
407.114	87.89
407.327	186.19
407.54	-372.9
407.753	-352.42
407.966	-125.1
408.179	237.39
408.392	-268.45
408.605	-338.09
408.819	116.56
409.032	120.66
409.245	-268.45
409.458	12.12
409.671	206.67
409.884	229.2
410.097	-338.09
410.31	-32.94
410.523	139.09
410.736	-71.85
410.949	-153.77
411.162	-213.16
411.375	266.07
411.588	233.3
411.801	14.17
412.014	-247.97
412.227	14.17
412.44	-96.43
412.653	-180.39
412.865	-121
413.078	210.77
413.291	202.58
413.504	-161.96
413.717	-235.69
413.93	212.82
414.143	-112.81
414.356	-223.4
414.568	-393.38
414.781	231.25
414.994	48.98
415.207	-92.33
415.42	-164.01
415.632	243.54
415.845	374.61
416.058	-264.36
416.271	-331.94
416.483	75.6
416.696	395.09
416.909	-247.97
417.121	-276.65
417.334	100.18
417.547	440.14
417.759	-329.89
417.972	-274.6
418.185	-47.27
418.397	198.48
418.61	-239.78
418.823	-231.59
419.035	409.42
419.248	-67.75
419.46	-147.62
419.673	-100.52
419.885	85.84
420.098	26.45
420.311	-192.68
420.523	-370.85
420.736	139.09
420.948	48.98
421.161	-235.69
421.373	-377
421.586	69.46
421.798	-80.04
422.01	-383.14
422.223	-112.81
422.435	-141.48
422.648	149.33
422.86	-141.48
423.073	-262.31
423.285	235.35
423.497	-297.13
423.71	-247.97
423.922	-186.54
424.134	130.9
424.347	382.8
424.559	-59.56
424.771	34.64
424.984	-0.17
425.196	75.6
425.408	-452.77
425.621	-372.9
425.833	165.71
426.045	333.65
426.257	-333.99
426.47	-262.31
426.682	147.28
426.894	116.56
427.106	-219.3
427.318	-202.92
427.531	-145.58
427.743	221.01
427.955	-215.21
428.167	200.53
428.379	46.93
428.591	-73.9
428.804	-116.9
429.016	-266.41
429.228	-100.52
429.44	40.79
429.652	-8.36
429.864	-352.42
430.076	-63.66
430.288	-82.09
430.5	-202.92
430.712	-204.97
430.924	206.67
431.136	69.46
431.348	-348.33
431.56	-264.36
431.772	24.4
431.984	-159.91
432.196	-313.51
432.408	-239.78
432.62	-63.66
432.832	137.04
433.044	51.03
433.256	-108.71
433.468	227.15
433.679	-325.8
433.891	-360.61
434.103	-24.75
434.315	337.74
434.527	194.39
434.739	-204.97
434.95	-268.45
435.162	171.86
435.374	-39.08
435.586	-198.82
435.798	-270.5
436.009	-266.41
436.221	-18.6
436.433	-290.98
436.645	-221.35
436.856	-118.95
437.068	194.39
437.28	-311.46
437.491	67.41
437.703	128.85
437.915	79.7
438.126	-198.82
438.338	34.64
438.55	-26.79
438.761	227.15
438.973	-200.87
439.184	-184.49
439.396	12.12
439.608	245.59
439.819	-311.46
440.031	-100.52
440.242	143.19
440.454	202.58
440.665	-207.02
440.877	-155.82
441.088	112.47
441.3	-67.75
441.511	-448.68
441.723	-207.02
441.934	108.37
442.146	12.12
442.357	-82.09
442.569	10.07
442.78	79.7
442.991	450.38
443.203	59.22
443.414	-381.09
443.626	360.27
443.837	-166.06
444.048	-305.32
444.26	-405.67
444.471	24.4
444.682	120.66
444.894	-440.48
445.105	-377
445.316	223.06
445.528	157.52
445.739	-137.38
445.95	-190.63
446.161	-4.27
446.373	182.1
446.584	-168.1
446.795	-307.37
447.006	141.14
447.217	372.56
447.429	-362.66
447.64	-350.37
447.851	347.98
448.062	96.08
448.273	-411.81
448.484	-247.97
448.695	83.8
448.907	-37.03
449.118	-96.43
449.329	-34.99
449.54	-207.02
449.751	-190.63
449.962	-196.78
450.173	-229.54
450.384	261.97
450.595	364.37
450.806	-237.74
451.017	-178.34
451.228	372.56
451.439	194.39
451.65	-323.75
451.861	-473.25
452.072	-229.54
452.283	-80.04
452.494	-10.41
452.705	-247.97
452.915	309.07
453.126	96.08
453.337	-288.93
453.548	-231.59
453.759	278.35
453.97	454.48
454.181	20.31
454.391	-264.36
454.602	26.45
454.813	227.15
455.024	-264.36
455.235	-284.84
455.445	32.6
455.656	112.47
455.867	-98.47
456.078	-223.4
456.288	-118.95
456.499	18.26
456.71	-198.82
456.921	30.55
457.131	96.08
457.342	73.56
457.553	-174.25
457.763	-241.83
457.974	126.8
458.184	196.43
458.395	-299.17
458.606	-336.04
458.816	286.54
459.027	440.14
459.237	-116.9
459.448	-383.14
459.659	329.55
459.869	563.02
460.08	-409.76
460.29	-125.1
460.501	485.2
460.711	-116.9
460.922	-442.53
461.132	-305.32
461.343	767.82
461.553	-368.81
461.764	-293.03
461.974	-329.89
462.184	225.11
462.395	34.64
462.605	-190.63
462.816	-352.42
463.026	16.21
463.236	409.42
463.447	-264.36
463.657	-309.41
463.867	182.1
464.078	-26.79
464.288	-180.39
464.498	-284.84
464.709	-43.18
464.919	-51.37
465.129	-188.58
465.339	-288.93
465.55	63.32
465.76	79.7
465.97	-276.65
466.18	-305.32
466.391	169.81
466.601	51.03
466.811	-231.59
467.021	-377
467.231	81.75
467.441	237.39
467.651	-229.54
467.862	-549.03
468.072	30.55
468.282	280.4
468.492	-301.22
468.702	-186.54
468.912	-41.13
469.122	565.07
469.332	87.89
469.542	-340.13
469.752	202.58
469.962	36.69
470.172	-293.03
470.382	-317.61
470.592	190.29
470.802	216.91
471.012	-133.29
471.222	-284.84
471.432	227.15
471.642	149.33
471.852	-176.3
472.062	-329.89
472.272	-41.13
472.482	-266.41
472.691	-440.48
472.901	-401.57
473.111	-28.84
473.321	474.96
473.531	-311.46
473.741	-153.77
473.95	118.61
474.16	155.47
474.37	-182.44
474.58	-374.95
474.79	409.42
474.999	184.15
475.209	-395.43
475.419	-295.08
475.628	-125.1
475.838	319.31
476.048	-264.36
476.258	-446.63
476.467	319.31
476.677	-137.38
476.886	-84.14
477.096	-164.01
477.306	-168.1
477.515	325.46
477.725	-125.1
477.935	-182.44
478.144	339.79
478.354	-198.82
478.563	-223.4
478.773	-360.61
478.982	190.29
479.192	294.74
479.401	-157.86
479.611	-254.12
479.82	-258.21
480.03	75.6
480.239	-278.69
480.449	-450.72
480.658	380.75
480.868	-108.71
481.077	-164.01
481.287	-221.35
481.496	40.79
481.705	321.36
481.915	-53.42
482.124	-53.42
482.333	69.46
482.543	325.46
482.752	-227.5
482.961	-219.3
483.171	143.19
483.38	-39.08
483.589	-188.58
483.799	-288.93
484.008	26.45
484.217	229.2
484.426	-219.3
484.636	-438.44
484.845	8.02
485.054	-323.75
485.263	102.23
485.472	-211.11
485.682	401.23
485.891	122.71
486.1	-391.33
486.309	-256.17
486.518	210.77
486.727	372.56
486.936	-356.52
487.146	-16.55
487.355	335.7
487.564	-266.41
487.773	-297.13
487.982	-272.55
488.191	-129.19
488.4	36.69
488.609	-239.78
488.818	-276.65
489.027	595.79
489.236	335.7
489.445	-250.02
489.654	-350.37
489.863	212.82
490.072	118.61
490.281	73.56
490.49	-190.63
490.698	284.5
490.907	356.18
491.116	-254.12
491.325	-415.91
491.534	343.89
491.743	46.93
491.952	-114.86
492.16	-247.97
492.369	96.08
492.578	302.93
492.787	-196.78
492.996	-420
493.204	-100.52
493.413	497.49
493.622	-526.5
493.831	-467.11
494.039	382.8
494.248	-174.25
494.457	-338.09
494.665	-395.43
494.874	196.43
495.083	452.43
495.291	-264.36
495.5	-284.84
495.709	180.05
495.917	14.17
496.126	-71.85
496.335	-323.75
496.543	-43.18
496.752	71.51
496.96	-59.56
497.169	-401.57
497.377	104.28
497.586	296.78
497.794	-139.43
498.003	-475.3
498.211	-94.38
498.42	352.08
498.628	-213.16
498.837	-413.86
499.045	163.67
499.254	87.89
499.462	-401.57
499.671	-391.33
499.879	425.81
500.087	194.39
500.296	-268.45
500.504	-260.26
500.713	16.21
500.921	540.49
501.129	-237.74
501.338	-184.49
501.546	22.36
501.754	59.22
501.962	-219.3
502.171	-270.5
502.379	77.65
502.587	372.56
502.795	-190.63
503.004	-276.65
503.212	36.69
503.42	206.67
503.628	-272.55
503.837	-186.54
504.045	180.05
504.253	489.29
504.461	-268.45
504.669	-497.83
504.877	196.43
505.085	339.79
505.294	-499.88
505.502	-135.34
505.71	96.08
505.918	159.57
506.126	-278.69
506.334	-293.03
506.542	-22.7
506.75	30.55
506.958	-133.29
507.166	-221.35
507.374	-112.81
507.582	483.15
507.79	-180.39
507.998	-352.42
508.206	98.13
508.414	112.47
508.622	-383.14
508.83	-194.73
509.037	362.32
509.245	-51.37
509.453	-358.57
509.661	-321.7
509.869	165.71
510.077	-86.19
510.285	-157.86
510.492	-489.64
510.7	534.35
510.908	-100.52
511.116	-243.88
511.324	-305.32
511.531	-98.47
511.739	104.28
511.947	-176.3
512.155	-51.37
512.362	161.62
512.57	-264.36
512.778	-374.95
512.985	-434.34
513.193	274.26
513.401	421.71
513.608	-219.3
513.816	-264.36
514.024	137.04
514.231	304.98
514.439	-301.22
514.646	-305.32
514.854	137.04
515.061	309.07
515.269	-288.93
515.477	-350.37
515.684	-153.77
515.892	253.78
516.099	-358.57
516.307	-428.2
516.514	247.63
516.722	464.72
516.929	-348.33
517.136	-366.76
517.344	337.74
517.551	100.18
517.759	-297.13
517.966	-280.74
518.173	-164.01
518.381	1.88
518.588	-260.26
518.796	-362.66
519.003	257.87
519.21	-39.08
519.418	-301.22
519.625	65.36
519.832	-41.13
520.039	51.03
520.247	-489.64
520.454	-301.22
520.661	112.47
520.868	55.12
521.076	-284.84
521.283	-260.26
521.49	634.7
521.697	96.08
521.904	-233.64
522.112	-284.84
522.319	186.19
522.526	91.99
522.733	-407.72
522.94	-329.89
523.147	-20.65
523.354	171.86
523.561	-415.91
523.768	-153.77
523.975	227.15
524.183	59.22
524.39	-247.97
524.597	-381.09
524.804	-22.7
525.011	-239.78
525.218	-305.32
525.425	-364.71
525.632	356.18
525.838	-168.1
526.045	-377
526.252	-319.65
526.459	1091.4
526.666	888.65
526.873	-350.37
527.08	-293.03
527.287	380.75
527.494	225.11
527.701	-358.57
527.907	-346.28
528.114	167.76
528.321	-28.84
528.528	-295.08
528.735	-315.56
528.941	-200.87
529.148	-133.29
529.355	-108.71
529.562	-354.47
529.768	327.5
529.975	-20.65
530.182	-178.34
530.388	-348.33
530.595	253.78
530.802	-241.83
531.008	-71.85
531.215	-307.37
531.422	468.81
531.628	712.52
531.835	-184.49
532.042	-207.02
532.248	-129.19
532.455	67.41
532.661	-190.63
532.868	-301.22
533.074	55.12
533.281	249.68
533.487	-319.65
533.694	-362.66
533.9	-190.63
534.107	126.8
534.313	-288.93
534.52	-438.44
534.726	225.11
534.933	479.05
535.139	-403.62
535.345	-417.96
535.552	108.37
535.758	-12.46
535.965	-200.87
536.171	-301.22
536.377	196.43
536.584	352.08
536.79	-280.74
536.996	-166.06
537.203	48.98
537.409	126.8
537.615	-241.83
537.821	-141.48
538.028	155.47
538.234	235.35
538.44	-258.21
538.646	-243.88
538.853	192.34
539.059	-10.41
539.265	124.76
539.471	-514.21
539.677	223.06
539.883	-67.75
540.09	-303.27
540.296	91.99
540.502	-2.22
540.708	-73.9
540.914	-172.2
541.12	-356.52
541.326	51.03
541.532	28.5
541.738	-182.44
541.944	-243.88
542.15	167.76
542.356	-14.51
542.562	-342.18
542.768	-301.22
542.974	624.46
543.18	452.43
543.386	-235.69
543.592	-391.33
543.798	337.74
544.004	302.93
544.21	-333.99
544.415	-176.3
544.621	40.79
544.827	276.31
545.033	-387.24
545.239	-18.6
545.445	-137.38
545.651	18.26
545.856	-305.32
546.062	-276.65
546.268	-59.56
546.474	10.07
546.679	-278.69
546.885	-317.61
547.091	-164.01
547.297	565.07
547.502	-129.19
547.708	-354.47
547.914	-104.62
548.119	165.71
548.325	-338.09
548.531	-358.57
548.736	354.13
548.942	-149.67
549.147	-254.12
549.353	-28.84
549.559	300.88
549.764	51.03
549.97	-280.74
550.175	-329.89
550.381	132.95
550.586	-121
550.792	-190.63
550.997	-196.78
551.203	108.37
551.408	190.29
551.614	-377
551.819	-319.65
552.025	427.85
552.23	413.52
552.435	-366.76
552.641	-92.33
552.846	-157.86
553.052	425.81
553.257	-196.78
553.462	-272.55
553.668	-186.54
553.873	235.35
554.078	-387.24
554.283	-299.17
554.489	116.56
554.694	-0.17
554.899	-389.28
555.105	-204.97
555.31	124.76
555.515	243.54
555.72	-215.21
555.925	-385.19
556.131	139.09
556.336	-114.86
556.541	-284.84
556.746	-333.99
556.951	397.14
557.156	407.38
557.361	-188.58
557.567	-188.58
557.772	505.68
557.977	194.39
558.182	-231.59
558.387	-305.32
558.592	-137.38
558.797	356.18
559.002	-133.29
559.207	-174.25
559.412	36.69
559.617	468.81
559.822	-366.76
560.027	-395.43
560.232	128.85
560.437	212.82
560.642	-372.9
560.847	-321.7
561.051	18.26
561.256	114.52
561.461	-280.74
561.666	-430.24
561.871	77.65
562.076	122.71
562.281	-159.91
562.485	-329.89
562.69	245.59
562.895	223.06
563.1	-260.26
563.305	-364.71
563.509	350.03
563.714	622.41
563.919	-336.04
564.123	-254.12
564.328	-26.79
564.533	372.56
564.737	-231.59
564.942	-290.98
565.147	393.04
565.351	474.96
565.556	-145.58
565.761	-207.02
565.965	106.32
566.17	-221.35
566.374	-258.21
566.579	-346.28
566.784	10.07
566.988	59.22
567.193	-440.48
567.397	-327.85
567.602	-188.58
567.806	91.99
568.011	-272.55
568.215	-215.21
568.42	-43.18
568.624	-32.94
568.828	-213.16
569.033	-200.87
569.237	190.29
569.442	198.48
569.646	-379.04
569.85	-200.87
570.055	34.64
570.259	149.33
570.463	-30.89
570.668	-221.35
570.872	-20.65
571.076	-53.42
571.281	-149.67
571.485	-100.52
571.689	40.79
571.893	239.44
572.098	-22.7
572.302	-280.74
572.506	130.9
572.71	51.03
572.914	-207.02
573.119	-215.21
573.323	415.57
573.527	235.35
573.731	-262.31
573.935	-301.22
574.139	75.6
574.343	-178.34
574.547	-221.35
574.751	-215.21
574.955	440.14
575.159	270.16
575.364	-307.37
575.568	-282.79
575.772	46.93
575.976	329.55
576.18	-399.52
576.383	-415.91
576.587	354.13
576.791	223.06
576.995	-411.81
577.199	-483.49
577.403	251.73
577.607	331.6
577.811	-374.95
578.015	-133.29
578.219	108.37
578.422	298.83
578.626	-200.87
578.83	-123.05
579.034	233.3
579.238	143.19
579.442	-260.26
579.645	128.85
579.849	-0.17
580.053	75.6
580.257	-270.5
580.46	-231.59
580.664	319.31
580.868	208.72
581.071	-8.36
581.275	-198.82
581.479	-278.69
581.682	206.67
581.886	-278.69
582.09	-57.51
582.293	196.43
582.497	286.54
582.7	-26.79
582.904	-297.13
583.107	30.55
583.311	32.6
583.515	-135.34
583.718	-161.96
583.922	216.91
584.125	477.01
584.329	-311.46
584.532	18.26
584.735	448.33
584.939	206.67
585.142	-428.2
585.346	-325.8
585.549	128.85
585.753	-2.22
585.956	-190.63
586.159	-45.23
586.363	446.29
586.566	202.58
586.769	-217.26
586.973	-338.09
587.176	309.07
587.379	345.94
587.582	71.51
587.786	91.99
587.989	178
588.192	735.05
588.395	-151.72
588.599	178
588.802	206.67
589.005	315.22
589.208	-129.19
589.411	-274.6
589.615	266.07
589.818	472.91
590.021	57.17
590.224	-141.48
590.427	366.42
590.63	198.48
590.833	-407.72
591.036	-295.08
591.239	28.5
591.442	-6.31
591.645	55.12
591.848	-239.78
592.051	157.52
592.254	313.17
592.457	-137.38
592.66	-139.43
592.863	-22.7
593.066	210.77
593.269	-94.38
593.472	-92.33
593.675	-118.95
593.878	280.4
594.081	-43.18
594.284	-301.22
594.486	218.96
594.689	143.19
594.892	-100.52
595.095	-104.62
595.298	180.05
595.5	-22.7
595.703	-129.19
595.906	-75.95
596.109	470.86
596.311	239.44
596.514	-450.72
596.717	-137.38
596.92	360.27
597.122	124.76
597.325	-379.04
597.528	-256.17
597.73	354.13
597.933	169.81
598.136	-245.93
598.338	-428.2
598.541	198.48
598.743	366.42
598.946	-176.3
599.148	-149.67
599.351	399.18
599.554	284.5
599.756	-32.94
599.959	-211.11
600.161	382.8
600.363	622.41
600.566	79.7
600.768	-262.31
600.971	452.43
601.173	284.5
601.376	-245.93
601.578	-149.67
601.78	284.5
601.983	626.51
602.185	-276.65
602.388	-12.46
602.59	214.87
602.792	63.32
602.995	81.75
603.197	-157.86
603.399	300.88
603.601	253.78
603.804	-133.29
604.006	-161.96
604.208	122.71
604.41	-377
604.613	36.69
604.815	-252.07
605.017	610.12
605.219	12.12
605.421	227.15
605.623	-194.73
605.826	479.05
606.028	546.64
606.23	-112.81
606.432	-157.86
606.634	491.34
606.836	431.95
607.038	-305.32
607.24	42.84
607.442	145.24
607.644	231.25
607.846	-26.79
608.048	-207.02
608.25	384.85
608.452	1.88
608.654	-67.75
608.856	-325.8
609.058	48.98
609.26	249.68
609.462	1.88
609.664	-65.71
609.866	651.08
610.067	341.84
610.269	12.12
610.471	-106.67
610.673	-57.51
610.875	282.45
611.077	-278.69
611.278	-16.55
611.48	165.71
611.682	624.46
611.884	-47.27
612.085	-14.51
612.287	-43.18
612.489	227.15
612.69	-252.07
612.892	-18.6
613.094	434
613.295	233.3
613.497	-194.73
613.699	-123.05
613.9	548.68
614.102	341.84
614.304	-47.27
614.505	-288.93
614.707	98.13
614.908	169.81
615.11	-252.07
615.311	-104.62
615.513	341.84
615.714	376.66
615.916	-282.79
616.117	-26.79
616.319	130.9
616.52	431.95
616.722	-92.33
616.923	-73.9
617.124	427.85
617.326	307.02
617.527	20.31
617.729	128.85
617.93	309.07
618.131	333.65
618.333	-84.14
618.534	-67.75
618.735	16.21
618.937	655.18
619.138	-247.97
619.339	-235.69
619.54	216.91
619.742	106.32
619.943	10.07
620.144	-73.9
620.345	345.94
620.546	425.81
620.748	-135.34
620.949	-116.9
621.15	249.68
621.351	235.35
621.552	-139.43
621.753	-237.74
621.954	-59.56
622.155	714.57
622.356	-141.48
622.558	104.28
622.759	231.25
622.96	567.12
623.161	-59.56
623.362	-26.79
623.563	251.73
623.764	253.78
623.965	-121
624.166	51.03
624.366	96.08
624.567	292.69
624.768	-389.28
624.969	-182.44
625.17	79.7
625.371	382.8
625.572	104.28
625.773	-182.44
625.973	448.33
626.174	362.32
626.375	3.93
626.576	-41.13
626.777	374.61
626.977	702.28
627.178	-90.28
627.379	-0.17
627.58	200.53
627.78	202.58
627.981	-47.27
628.182	57.17
628.382	464.72
628.583	-100.52
628.784	-190.63
628.984	157.52
629.185	370.51
629.386	321.36
629.586	-6.31
629.787	-121
629.987	327.5
630.188	251.73
630.388	-55.47
630.589	102.23
630.79	767.82
630.99	225.11
631.191	73.56
631.391	-24.75
631.591	477.01
631.792	620.36
631.992	120.66
632.193	42.84
632.393	540.49
632.594	235.35
632.794	-12.46
632.994	87.89
633.195	178
633.395	261.97
633.595	-34.99
633.796	198.48
633.996	71.51
634.196	538.45
634.397	-116.9
634.597	3.93
634.797	141.14
634.997	638.8
635.198	212.82
635.398	-139.43
635.598	335.7
635.798	513.87
635.998	350.03
636.199	-82.09
636.399	257.87
636.599	73.56
636.799	30.55
636.999	210.77
637.199	329.55
637.399	546.64
637.599	36.69
637.799	77.65
637.999	229.2
638.199	577.36
638.399	-41.13
638.599	-32.94
638.799	337.74
638.999	735.05
639.199	83.8
639.399	75.6
639.599	608.08
639.799	96.08
639.999	-59.56
640.199	-184.49
640.399	247.63
640.599	395.09
640.799	32.6
640.998	141.14
641.198	579.4
641.398	358.22
641.598	102.23
641.798	30.55
641.997	1341.25
642.197	264.02
642.397	128.85
642.597	-24.75
642.796	390.99
642.996	603.98
643.196	178
643.395	-112.81
643.595	393.04
643.795	-121
643.994	1.88
644.194	79.7
644.394	505.68
644.593	311.12
644.793	-112.81
644.992	221.01
645.192	454.48
645.392	-141.48
645.591	278.35
645.791	-10.41
645.99	384.85
646.19	231.25
646.389	151.38
646.589	149.33
646.788	472.91
646.987	374.61
647.187	282.45
647.386	296.78
647.586	319.31
647.785	481.1
647.984	63.32
648.184	132.95
648.383	282.45
648.582	239.44
648.782	51.03
648.981	212.82
649.18	143.19
649.38	374.61
649.579	32.6
649.778	-73.9
649.977	415.57
650.177	333.65
650.376	44.88
650.575	14.17
650.774	685.9
650.973	188.24
651.173	-88.23
651.372	122.71
651.571	358.22
651.77	563.02
651.969	151.38
652.168	182.1
652.367	44.88
652.566	300.88
652.765	98.13
652.964	411.47
653.163	757.58
653.362	243.54
653.561	5.97
653.76	159.57
653.959	241.49
654.158	466.77
654.357	315.22
654.556	153.43
654.755	530.25
654.954	542.54
655.153	159.57
655.352	98.13
655.551	673.61
655.749	198.48
655.948	126.8
656.147	198.48
656.346	393.04
656.545	313.17
656.743	161.62
656.942	130.9
657.141	388.94
657.34	161.62
657.538	204.63
657.737	116.56
657.936	294.74
658.135	606.03
658.333	55.12
658.532	221.01
658.731	790.35
658.929	636.75
659.128	399.18
659.326	53.08
659.525	681.8
659.724	429.9
659.922	-65.71
660.121	106.32
660.319	431.95
660.518	218.96
660.716	-4.27
660.915	200.53
661.113	649.04
661.312	61.27
661.51	245.59
661.709	96.08
661.907	538.45
662.105	780.11
662.304	73.56
662.502	141.14
662.701	769.87
662.899	317.26
663.097	423.76
663.296	-20.65
663.494	646.99
663.692	776.01
663.891	104.28
664.089	83.8
664.287	434
664.485	810.82
664.684	-16.55
664.882	280.4
665.08	497.49
665.278	458.57
665.476	-32.94
665.675	448.33
665.873	849.74
666.071	696.14
666.269	110.42
666.467	339.79
666.665	515.92
666.863	296.78
667.061	378.7
667.259	108.37
667.457	395.09
667.655	603.98
667.853	67.41
668.051	276.31
668.249	304.98
668.447	595.79
668.645	30.55
668.843	436.05
669.041	608.08
669.239	276.31
669.437	335.7
669.635	261.97
669.833	403.28
670.031	622.41
670.229	327.5
670.426	343.89
670.624	374.61
670.822	300.88
671.02	171.86
671.218	345.94
671.415	161.62
671.613	456.53
671.811	311.12
672.009	212.82
672.206	685.9
672.404	548.68
672.602	438.09
672.799	390.99
672.997	567.12
673.195	685.9
673.392	440.14
673.59	118.61
673.788	692.04
673.985	-14.51
674.183	280.4
674.38	272.21
674.578	597.84
674.775	296.78
674.973	153.43
675.17	28.5
675.368	802.63
675.565	546.64
675.763	130.9
675.96	94.04
676.158	730.95
676.355	444.24
676.553	169.81
676.75	288.59
676.947	466.77
677.145	309.07
677.342	407.38
677.539	362.32
677.737	474.96
677.934	982.85
678.131	429.9
678.329	233.3
678.526	939.85
678.723	603.98
678.92	343.89
679.118	214.87
679.315	259.92
679.512	892.74
679.709	266.07
679.906	315.22
680.104	702.28
680.301	513.87
680.498	204.63
680.695	130.9
680.892	341.84
681.089	317.26
681.286	382.8
681.483	153.43
681.68	636.75
681.877	636.75
682.075	239.44
682.272	530.25
682.469	634.7
682.665	436.05
682.862	79.7
683.059	151.38
683.256	567.12
683.453	491.34
683.65	370.51
683.847	356.18
684.044	487.25
684.241	212.82
684.438	343.89
684.635	167.76
684.831	948.04
685.028	1029.96
685.225	307.02
685.422	399.18
685.619	497.49
685.815	554.83
686.012	425.81
686.209	393.04
686.405	261.97
686.602	728.91
686.799	155.47
686.996	182.1
687.192	235.35
687.389	956.23
687.586	225.11
687.782	309.07
687.979	941.89
688.175	796.49
688.372	374.61
688.568	325.46
688.765	395.09
688.962	900.94
689.158	380.75
689.355	178
689.551	767.82
689.748	386.9
689.944	456.53
690.14	96.08
690.337	730.95
690.533	372.56
690.73	522.06
690.926	403.28
691.123	687.95
691.319	532.3
691.515	178
691.712	489.29
691.908	700.23
692.104	620.36
692.301	470.86
692.497	202.58
692.693	679.75
692.889	790.35
693.086	474.96
693.282	171.86
693.478	622.41
693.674	966.47
693.87	425.81
694.067	173.91
694.263	610.12
694.459	515.92
694.655	468.81
694.851	489.29
695.047	694.09
695.243	673.61
695.439	464.72
695.635	247.63
695.831	610.12
696.027	608.08
696.224	382.8
696.42	751.43
696.615	960.33
696.811	653.13
697.007	221.01
697.203	311.12
697.399	657.23
697.595	989
697.791	300.88
697.987	497.49
698.183	360.27
698.379	366.42
698.575	364.37
698.77	399.18
698.966	776.01
699.162	882.5
699.358	456.53
699.554	335.7
699.749	710.47
699.945	761.67
700.141	608.08
700.337	534.35
700.532	501.58
700.728	472.91
700.924	333.65
701.119	319.31
701.315	751.43
701.511	530.25
701.706	481.1
701.902	309.07
702.097	630.6
702.293	802.63
702.489	532.3
702.684	450.38
702.88	477.01
703.075	579.4
703.271	456.53
703.466	321.36
703.662	634.7
703.857	810.82
704.053	313.17
704.248	431.95
704.443	841.54
704.639	755.53
704.834	456.53
705.03	434
705.225	792.39
705.42	872.26
705.616	520.01
705.811	382.8
706.006	636.75
706.202	603.98
706.397	632.65
706.592	307.02
706.787	661.32
706.983	665.42
707.178	716.62
707.373	491.34
707.568	773.96
707.763	907.08
707.959	452.43
708.154	397.14
708.349	679.75
708.544	825.16
708.739	683.85
708.934	317.26
709.129	804.68
709.324	925.51
709.519	464.72
709.714	339.79
709.909	972.61
710.104	763.72
710.299	468.81
710.494	581.45
710.689	870.22
710.884	679.75
711.079	548.68
711.274	704.33
711.469	798.54
711.664	722.76
711.859	438.09
712.054	563.02
712.249	780.11
712.443	1007.43
712.638	268.11
712.833	399.18
713.028	661.32
713.223	649.04
713.417	714.57
713.612	472.91
713.807	755.53
714.002	1328.96
714.196	655.18
714.391	450.38
714.586	894.79
714.78	659.28
714.975	491.34
715.17	456.53
715.364	718.67
715.559	876.36
715.754	239.44
715.948	472.91
716.143	1181.51
716.337	767.82
716.532	722.76
716.726	479.05
716.921	927.56
717.115	1177.41
717.31	372.56
717.504	1032.01
717.699	710.47
717.893	931.66
718.088	446.29
718.282	393.04
718.476	716.62
718.671	884.55
718.865	522.06
719.059	513.87
719.254	739.15
719.448	1128.26
719.642	1883.96
719.837	300.88
720.031	859.98
720.225	945.99
720.419	546.64
720.614	499.53
720.808	939.85
721.002	614.22
721.196	388.94
721.39	511.82
721.585	1034.05
721.779	898.89
721.973	587.6
722.167	319.31
722.361	755.53
722.555	1040.2
722.749	485.2
722.943	593.74
723.137	540.49
723.331	892.74
723.525	571.21
723.719	477.01
723.913	952.13
724.107	1068.87
724.301	370.51
724.495	614.22
724.689	1251.14
724.883	1068.87
725.077	540.49
725.271	503.63
725.465	1025.86
725.659	759.63
725.853	608.08
726.046	425.81
726.24	683.85
726.434	1040.2
726.628	558.92
726.822	528.21
727.015	1079.11
727.209	1128.26
727.403	540.49
727.596	395.09
727.79	1046.34
727.984	933.7
728.177	520.01
728.371	601.93
728.565	993.09
728.758	571.21
728.952	444.24
729.146	601.93
729.339	1120.07
729.533	773.96
729.726	536.4
729.92	515.92
730.113	1218.37
730.307	882.5
730.5	622.41
730.694	595.79
730.887	724.81
731.081	825.16
731.274	390.99
731.468	583.5
731.661	767.82
731.854	726.86
732.048	565.07
732.241	436.05
732.435	628.56
732.628	821.06
732.821	704.33
733.014	532.3
733.208	595.79
733.401	980.81
733.594	538.45
733.788	575.31
733.981	1140.55
734.174	915.27
734.367	509.77
734.56	706.38
734.754	1032.01
734.947	737.1
735.14	536.4
735.333	665.42
735.526	1021.77
735.719	638.8
735.912	583.5
736.105	517.97
736.298	835.4
736.491	796.49
736.684	585.55
736.877	565.07
737.07	841.54
737.263	1115.97
737.456	714.57
737.649	487.25
737.842	855.88
738.035	907.08
738.228	745.29
738.421	808.78
738.614	1118.02
738.807	1077.06
739	436.05
739.192	483.15
739.385	911.18
739.578	943.94
739.771	993.09
739.964	530.25
740.156	915.27
740.349	927.56
740.542	823.11
740.735	567.12
740.927	685.9
741.12	735.05
741.313	563.02
741.505	653.13
741.698	849.74
741.891	966.47
742.083	739.15
742.276	687.95
742.468	929.61
742.661	825.16
742.854	685.9
743.046	620.36
743.239	1201.99
743.431	806.73
743.624	704.33
743.816	517.97
744.009	763.72
744.201	972.61
744.393	816.97
744.586	538.45
744.778	1103.68
744.971	921.42
745.163	759.63
745.355	739.15
745.548	816.97
745.74	900.94
745.932	771.91
746.125	714.57
746.317	1531.71
746.509	882.5
746.702	640.84
746.894	763.72
747.086	1050.44
747.278	1154.88
747.471	825.16
747.663	692.04
747.855	960.33
748.047	1349.44
748.239	595.79
748.431	597.84
748.623	1310.53
748.815	1279.81
749.008	577.36
749.2	626.51
749.392	1103.68
749.584	1107.78
749.776	669.52
749.968	769.87
750.16	1431.36
750.352	870.22
750.544	765.77
750.736	749.39
750.928	1132.36
751.12	884.55
751.311	677.71
751.503	866.12
751.695	989
751.887	896.84
752.079	503.63
752.271	718.67
752.463	1701.69
752.654	1072.96
752.846	780.11
753.038	730.95
753.23	767.82
753.421	1238.85
753.613	769.87
753.805	894.79
753.997	1222.47
754.188	1273.67
754.38	632.65
754.572	675.66
754.763	966.47
754.955	1058.63
755.146	853.83
755.338	771.91
755.53	1095.49
755.721	1038.15
755.913	735.05
756.104	569.16
756.296	921.42
756.487	1167.17
756.679	776.01
756.87	669.52
757.062	821.06
757.253	1146.69
757.445	749.39
757.636	907.08
757.827	950.09
758.019	1582.91
758.21	608.08
758.401	767.82
758.593	1462.08
758.784	1277.76
758.975	642.89
759.167	630.6
759.358	1009.48
759.549	1201.99
759.74	708.43
759.932	638.8
760.123	1288
760.314	882.5
760.505	872.26
760.696	751.43
760.888	1464.13
761.079	911.18
761.27	581.45
761.461	661.32
761.652	1460.03
761.843	941.89
762.034	788.3
762.225	1101.64
762.416	919.37
762.607	1099.59
762.798	669.52
762.989	692.04
763.18	1724.22
763.371	845.64
763.562	714.57
763.753	689.99
763.944	1292.1
764.135	1236.8
764.326	866.12
764.517	735.05
764.708	1068.87
764.899	1111.88
765.089	757.58
765.28	597.84
765.471	1167.17
765.662	1169.22
765.853	845.64
766.043	558.92
766.234	1173.32
766.425	1345.34
766.615	792.39
766.806	589.64
766.997	1365.82
767.187	1095.49
767.378	716.62
767.569	624.46
767.759	1199.94
767.95	972.61
768.141	956.23
768.331	687.95
768.522	1034.05
768.712	1187.65
768.903	683.85
769.093	724.81
769.284	1410.88
769.474	1167.17
769.665	517.97
769.855	612.17
770.046	1142.6
770.236	966.47
770.426	905.03
770.617	710.47
770.807	1146.69
770.998	982.85
771.188	931.66
771.378	730.95
771.569	1210.18
771.759	1228.61
771.949	735.05
772.139	493.39
772.33	1097.54
772.52	1410.88
772.71	694.09
772.9	692.04
773.09	1326.91
773.281	1390.4
773.471	661.32
773.661	769.87
773.851	1390.4
774.041	1060.68
774.231	653.13
774.421	927.56
774.611	1417.02
774.802	1079.11
774.992	833.35
775.182	751.43
775.372	1034.05
775.562	1331.01
775.752	847.69
775.942	796.49
776.131	1353.54
776.321	1316.67
776.511	753.48
776.701	679.75
776.891	1384.26
777.081	802.63
777.271	868.17
777.461	685.9
777.651	1419.07
777.84	1345.34
778.03	868.17
778.22	800.59
778.41	1421.12
778.599	976.71
778.789	886.6
778.979	714.57
779.169	1167.17
779.358	1021.77
779.548	1103.68
779.738	644.94
779.927	1075.01
780.117	835.4
780.307	841.54
780.496	497.49
780.686	1195.84
780.875	1578.81
781.065	773.96
781.254	753.48
781.444	1128.26
781.633	1099.59
781.823	798.54
782.012	874.31
782.202	1095.49
782.391	1029.96
782.581	683.85
782.77	1003.33
782.96	1343.3
783.149	1099.59
783.338	812.87
783.528	677.71
783.717	1296.19
783.906	1316.67
784.096	948.04
784.285	624.46
784.474	1027.91
784.663	960.33
784.853	763.72
785.042	829.26
785.231	964.42
785.42	1392.45
785.61	1017.67
785.799	694.09
785.988	1005.38
786.177	966.47
786.366	837.45
786.555	1034.05
786.744	1398.59
786.933	974.66
787.122	696.14
787.312	687.95
787.501	900.94
787.69	1167.17
787.879	821.06
788.068	761.67
788.257	900.94
788.445	989
788.634	776.01
788.823	745.29
789.012	1662.78
789.201	1419.07
789.39	1052.49
789.579	710.47
789.768	1120.07
789.957	1099.59
790.145	755.53
790.334	671.56
790.523	1038.15
790.712	1081.16
790.9	868.17
791.089	587.6
791.278	1320.77
791.467	1124.16
791.655	1122.12
791.844	1288
792.033	937.8
792.221	964.42
792.41	833.35
792.599	706.38
792.787	1161.03
792.976	1111.88
793.164	786.25
793.353	792.39
793.541	1230.66
793.73	1265.47
793.918	991.05
794.107	759.63
794.295	1169.22
794.484	1021.77
794.672	902.98
794.861	808.78
795.049	1236.8
795.238	1468.22
795.426	718.67
795.614	833.35
795.803	1152.84
795.991	1582.91
796.179	837.45
796.368	900.94
796.556	1390.4
796.744	866.12
796.932	788.3
797.121	747.34
797.309	1122.12
797.497	1333.06
797.685	810.82
797.874	888.65
798.062	1079.11
798.25	1419.07
798.438	743.24
798.626	810.82
798.814	1228.61
799.002	1759.03
799.19	1173.32
799.378	964.42
799.566	1425.22
799.755	1480.51
799.943	1046.34
800.131	821.06
800.318	1228.61
800.506	1124.16
800.694	847.69
800.882	1003.33
801.07	1496.89
801.258	1271.62
801.446	902.98
801.634	1050.44
801.822	1167.17
802.01	1189.7
802.197	831.3
802.385	1027.91
802.573	1255.23
802.761	1034.05
802.949	882.5
803.136	808.78
803.324	1374.02
803.512	1197.89
803.699	960.33
803.887	644.94
804.075	1488.7
804.262	1066.82
804.45	710.47
804.638	1060.68
804.825	933.7
805.013	1093.44
805.201	878.41
805.388	816.97
805.576	1285.95
805.763	1554.24
805.951	919.37
806.138	1083.2
806.326	1707.84
806.513	1290.05
806.701	999.24
806.888	905.03
807.075	1234.75
807.263	1652.54
807.45	767.82
807.638	1109.83
807.825	1638.2
808.012	1447.74
808.2	1109.83
808.387	1232.71
808.574	1337.15
808.761	1564.48
808.949	931.66
809.136	1015.62
809.323	1242.95
809.51	1120.07
809.698	1187.65
809.885	1136.45
810.072	1331.01
810.259	1472.32
810.446	966.47
810.633	907.08
810.82	1531.71
811.008	1670.97
811.195	1124.16
811.382	1099.59
811.569	1298.24
811.756	1085.25
811.943	1099.59
812.13	925.51
812.317	1046.34
812.504	1294.15
812.691	1124.16
812.878	1113.92
813.064	1564.48
813.251	1214.27
813.438	884.55
813.625	1136.45
813.812	1242.95
813.999	1234.75
814.186	1019.72
814.372	962.37
814.559	1376.06
814.746	1644.35
814.933	1072.96
815.12	1193.8
815.306	1210.18
815.493	1050.44
815.68	1072.96
815.866	989
816.053	1595.2
816.24	1808.19
816.426	1144.64
816.613	835.4
816.799	1419.07
816.986	1609.53
817.173	1050.44
817.359	974.66
817.546	1466.17
817.732	1046.34
817.919	870.22
818.105	1122.12
818.292	1267.52
818.478	1488.7
818.665	1158.98
818.851	1007.43
819.037	1963.83
819.224	1406.78
819.41	1036.1
819.597	991.05
819.783	1752.89
819.969	1365.82
820.156	1083.2
820.342	915.27
820.528	2133.81
820.714	1232.71
820.901	1351.49
821.087	1107.78
821.273	1728.31
821.459	1181.51
821.646	964.42
821.832	1034.05
822.018	1353.54
822.204	1353.54
822.39	1079.11
822.576	1003.33
822.762	1546.05
822.948	1460.03
823.134	1228.61
823.32	1107.78
823.507	1083.2
823.693	1347.39
823.879	1408.83
824.065	986.95
824.25	1371.97
824.436	1070.92
824.622	1152.84
824.808	1044.29
824.994	1130.31
825.18	1066.82
825.366	915.27
825.552	1048.39
825.738	1259.33
825.923	1539.9
826.109	1376.06
826.295	1046.34
826.481	1214.27
826.667	1244.99
826.852	1269.57
827.038	1013.57
827.224	1654.59
827.409	1810.23
827.595	909.13
827.781	1326.91
827.966	1634.11
828.152	1541.95
828.338	1152.84
828.523	921.42
828.709	1234.75
828.894	1591.1
829.08	1115.97
829.266	1034.05
829.451	1115.97
829.637	1609.53
829.822	1296.19
830.008	1046.34
830.193	1564.48
830.378	1689.4
830.564	1107.78
830.749	919.37
830.935	1443.65
831.12	1539.9
831.305	1034.05
831.491	1226.56
831.676	1175.36
831.861	1480.51
832.047	1134.4
832.232	984.9
832.417	1587.01
832.602	1421.12
832.788	1062.73
832.973	991.05
833.158	1353.54
833.343	1421.12
833.528	1171.27
833.714	1201.99
833.899	1486.65
834.084	1791.8
834.269	1294.15
834.454	1087.3
834.639	1519.42
834.824	1421.12
835.009	1148.74
835.194	1173.32
835.379	1607.48
835.564	1785.66
835.749	1273.67
835.934	989
836.119	1492.8
836.304	1408.83
836.489	1095.49
836.674	1288
836.859	1140.55
837.044	1759.03
837.228	1130.31
837.413	1072.96
837.598	1410.88
837.783	1593.15
837.968	1234.75
838.152	978.76
838.337	923.46
838.522	1636.16
838.707	1537.85
838.891	1206.08
839.076	1552.19
839.261	1642.3
839.445	1081.16
839.63	1230.66
839.815	1781.56
839.999	1382.21
840.184	1103.68
840.368	1060.68
840.553	1658.68
840.737	1503.04
840.922	1087.3
841.106	1050.44
841.291	1046.34
841.475	1386.3
841.66	1042.25
841.844	1130.31
842.029	2096.95
842.213	972.61
842.397	1021.77
842.582	974.66
842.766	1568.57
842.951	1591.1
843.135	1269.57
843.319	1193.8
843.504	1472.32
843.688	1595.2
843.872	845.64
844.056	1140.55
844.241	1521.47
844.425	1355.58
844.609	1296.19
844.793	917.32
844.977	1656.64
845.161	1468.22
845.346	962.37
845.53	1081.16
845.714	1326.91
845.898	1787.71
846.082	989
846.266	1075.01
846.45	1396.54
846.634	1447.74
846.818	1132.36
847.002	1230.66
847.186	1668.92
847.37	1183.56
847.554	1025.86
847.738	1161.03
847.922	1500.99
848.106	1466.17
848.29	1029.96
848.473	1230.66
848.657	1570.62
848.841	1353.54
849.025	1185.6
849.209	941.89
849.392	1511.23
849.576	1259.33
849.76	935.75
849.944	1169.22
850.127	1851.19
850.311	1068.87
850.495	1017.67
850.678	958.28
850.862	1756.99
851.046	1750.84
851.229	1312.58
851.413	1066.82
851.596	1435.46
851.78	1326.91
851.964	1263.43
852.147	1021.77
852.331	2154.29
852.514	1687.36
852.698	1206.08
852.881	974.66
853.065	1603.39
853.248	1359.68
853.431	1285.95
853.615	1251.14
853.798	2012.98
853.982	1498.94
854.165	1308.48
854.348	1154.88
854.532	1261.38
854.715	1331.01
854.898	1177.41
855.081	1142.6
855.265	1730.36
855.448	1777.47
855.631	1103.68
855.814	1103.68
855.997	1675.07
856.181	1451.84
856.364	1236.8
856.547	974.66
856.73	1441.6
856.913	1564.48
857.096	993.09
857.279	1177.41
857.462	1273.67
857.645	1619.77
857.828	1144.64
858.011	1161.03
858.194	1281.86
858.377	1642.3
858.56	925.51
858.743	1163.08
858.926	1265.47
859.109	1451.84
859.292	1095.49
859.475	923.46
859.658	1769.27
859.841	1472.32
860.023	997.19
860.206	1136.45
860.389	1513.28
860.572	1677.12
860.755	1177.41
860.937	1105.73
861.12	1404.74
861.303	1333.06
861.486	1154.88
861.668	1027.91
861.851	1630.01
862.034	1505.09
862.216	1304.39
862.399	1005.38
862.581	1449.79
862.764	1771.32
862.947	1105.73
863.129	1072.96
863.312	1095.49
863.494	1695.55
863.677	1472.32
863.859	980.81
864.042	1611.58
864.224	1718.08
864.406	1181.51
864.589	986.95
864.771	1462.08
864.954	1163.08
865.136	1099.59
865.318	868.17
865.501	1562.43
865.683	1085.25
865.865	1134.4
866.048	1048.39
866.23	1417.02
866.412	1445.7
866.594	958.28
866.777	1234.75
866.959	1685.31
867.141	1216.32
867.323	1398.59
867.505	1298.24
867.687	1382.21
867.869	1476.41
868.052	1212.23
868.234	974.66
868.416	1253.19
868.598	1535.81
868.78	1062.73
868.962	1060.68
869.144	1656.64
869.326	1603.39
869.508	1017.67
869.69	857.93
869.872	1187.65
870.054	1642.3
870.236	950.09
870.417	1169.22
870.599	1439.55
870.781	1775.42
870.963	1308.48
871.145	1027.91
871.327	1232.71
871.508	1529.66
871.69	1070.92
871.872	1070.92
872.054	1324.87
872.235	1447.74
872.417	1032.01
872.599	1032.01
872.78	1799.99
872.962	1439.55
873.144	931.66
873.325	1103.68
873.507	1722.17
873.689	1496.89
873.87	997.19
874.052	1322.82
874.233	1318.72
874.415	1722.17
874.596	1197.89
874.778	1062.73
874.959	1341.25
875.141	1644.35
875.322	1128.26
875.503	1091.4
875.685	1537.85
875.866	1048.39
876.048	1032.01
876.229	948.04
876.41	1361.73
876.592	1447.74
876.773	1062.73
876.954	950.09
877.136	1730.36
877.317	1251.14
877.498	876.36
877.679	1230.66
877.86	1541.95
878.042	1312.58
878.223	1173.32
878.404	1464.13
878.585	1482.56
878.766	1836.86
878.947	1468.22
879.128	1300.29
879.309	1718.08
879.49	1750.84
879.672	1308.48
879.853	1310.53
880.034	1267.52
880.215	1339.2
880.396	1359.68
880.576	1294.15
880.757	1222.47
880.938	1947.45
881.119	1105.73
881.3	1279.81
881.481	1363.78
881.662	2330.42
881.843	1128.26
882.023	1095.49
882.204	1564.48
882.385	1462.08
882.566	1208.13
882.747	1193.8
882.927	1376.06
883.108	1511.23
883.289	1185.6
883.469	1470.27
883.65	1369.92
883.831	1599.29
884.011	1451.84
884.192	1312.58
884.373	1668.92
884.553	1644.35
884.734	1511.23
884.914	1488.7
885.095	2176.82
885.275	2012.98
885.456	1537.85
885.636	1251.14
885.817	1582.91
885.997	1539.9
886.178	1369.92
886.358	1339.2
886.538	1584.96
886.719	2623.28
886.899	1353.54
887.08	1331.01
887.26	1879.86
887.44	1386.3
887.621	1238.85
887.801	1451.84
887.981	2103.09
888.161	1886.01
888.342	1412.93
888.522	1339.2
888.702	1808.19
888.882	1898.3
889.062	1490.75
889.242	1113.92
889.423	1886.01
889.603	1820.47
889.783	1365.82
889.963	1283.91
890.143	1806.14
890.323	1824.57
890.503	1314.63
890.683	1464.13
890.863	1554.24
891.043	1587.01
891.223	1503.04
891.403	1660.73
891.583	1636.16
891.763	1703.74
891.943	1474.37
892.122	1414.98
892.302	1673.02
892.482	1550.14
892.662	1668.92
892.842	1447.74
893.022	1654.59
893.201	1627.96
893.381	1525.57
893.561	1423.17
893.741	1900.34
893.92	1777.47
894.1	1464.13
894.28	1505.09
894.459	1941.3
894.639	1744.7
894.819	1427.26
894.998	1484.61
895.178	1810.23
895.357	1939.26
895.537	1417.02
895.716	1216.32
895.896	1652.54
896.075	2082.61
896.255	1572.67
896.434	1251.14
896.614	2012.98
896.793	2096.95
896.973	1527.61
897.152	1556.29
897.331	1730.36
897.511	1765.18
897.69	1218.37
897.87	1599.29
898.049	2021.17
898.228	1668.92
898.407	1670.97
898.587	1582.91
898.766	1507.13
898.945	1910.58
899.124	1662.78
899.304	1509.18
899.483	1894.2
899.662	2168.63
899.841	1369.92
900.02	1537.85
900.199	1926.97
900.378	1775.42
900.557	1335.1
900.737	1257.28
900.916	1736.51
901.095	1918.78
901.274	1806.14
901.453	1365.82
901.632	1486.65
901.811	1546.05
901.989	1394.5
902.168	1427.26
902.347	2053.94
902.526	1505.09
902.705	1378.11
902.884	1566.53
903.063	2060.09
903.242	2111.29
903.42	1337.15
903.599	1509.18
903.778	1963.83
903.957	2123.57
904.135	1652.54
904.314	1490.75
904.493	1832.76
904.672	1931.06
904.85	1494.85
905.029	1482.56
905.207	1802.04
905.386	2469.68
905.565	1324.87
905.743	1435.46
905.922	1589.05
906.1	2000.69
906.279	1318.72
906.457	1310.53
906.636	1515.33
906.814	1640.25
906.993	1468.22
907.171	1339.2
907.35	1894.2
907.528	1922.87
907.707	1615.68
907.885	1374.02
908.063	2000.69
908.242	1466.17
908.42	1423.17
908.598	1263.43
908.777	1859.38
908.955	1576.77
909.133	1511.23
909.311	1279.81
909.49	1644.35
909.668	1701.69
909.846	1496.89
910.024	1312.58
910.202	1707.84
910.38	1797.95
910.559	1181.51
910.737	1361.73
910.915	1611.58
911.093	1691.45
911.271	1550.14
911.449	1644.35
911.627	1816.38
911.805	2232.12
911.983	1433.41
912.161	1343.3
912.339	1754.94
912.517	1972.02
912.695	1541.95
912.872	1476.41
913.05	1455.94
913.228	1761.08
913.406	1386.3
913.584	1304.39
913.762	1914.68
913.939	1584.96
914.117	1316.67
914.295	1341.25
914.473	1732.41
914.65	1644.35
914.828	1288
915.006	1249.09
915.184	1388.35
915.361	1722.17
915.539	1478.46
915.716	1562.43
915.894	1746.75
916.072	1750.84
916.249	1505.09
916.427	1496.89
916.604	1378.11
916.782	1740.6
916.959	1222.47
917.137	1345.34
917.314	1597.24
917.492	1664.83
917.669	1468.22
917.847	1480.51
918.024	1554.24
918.201	1419.07
918.379	1419.07
918.556	1412.93
918.733	1718.08
918.911	1562.43
919.088	1546.05
919.265	1251.14
919.442	1642.3
919.62	1451.84
919.797	1193.8
919.974	1201.99
920.151	1560.38
920.328	1558.33
920.506	1261.38
920.683	1533.76
920.86	1281.86
921.037	1410.88
921.214	1386.3
921.391	1201.99
921.568	1812.28
921.745	1371.97
921.922	1255.23
922.099	1251.14
922.276	1797.95
922.453	1570.62
922.63	1232.71
922.807	1668.92
922.984	1537.85
923.161	1310.53
923.338	1251.14
923.514	1120.07
923.691	1492.8
923.868	1632.06
924.045	1232.71
924.222	1171.27
924.399	1603.39
924.575	1658.68
924.752	1320.77
924.929	1357.63
925.105	1613.63
925.282	1218.37
925.459	1218.37
925.635	1269.57
925.812	1412.93
925.989	1328.96
926.165	1251.14
926.342	1093.44
926.518	1222.47
926.695	1521.47
926.871	1197.89
927.048	1122.12
927.224	1544
927.401	1384.26
927.577	1259.33
927.754	1070.92
927.93	1779.51
928.107	1681.21
928.283	1054.53
928.459	1304.39
928.636	1537.85
928.812	1339.2
928.988	1089.35
929.165	993.09
929.341	1431.36
929.517	1351.49
929.693	1431.36
929.87	876.36
930.046	1478.46
930.222	1351.49
930.398	931.66
930.574	1253.19
930.751	1441.6
930.927	1281.86
931.103	1152.84
931.279	1222.47
931.455	1181.51
931.631	1333.06
931.807	855.88
931.983	1021.77
932.159	923.46
932.335	1400.64
932.511	1152.84
932.687	972.61
932.863	1400.64
933.039	1294.15
933.215	968.52
933.391	829.26
933.566	1201.99
933.742	1304.39
933.918	1005.38
934.094	948.04
934.27	1251.14
934.445	1218.37
934.621	1062.73
934.797	890.7
934.973	1474.37
935.148	1279.81
935.324	882.5
935.5	755.53
935.675	1300.29
935.851	1165.12
936.027	986.95
936.202	943.94
936.378	1189.7
936.553	1044.29
936.729	1302.34
936.904	794.44
937.08	796.49
937.255	933.7
937.431	679.75
937.606	708.43
937.782	874.31
937.957	1079.11
938.133	786.25
938.308	694.09
938.483	919.37
938.659	778.06
938.834	825.16
939.009	603.98
939.185	802.63
939.36	655.18
939.535	431.95
939.71	833.35
939.886	1138.5
940.061	1013.57
940.236	855.88
940.411	657.23
940.586	939.85
940.761	1036.1
940.937	622.41
941.112	493.39
941.287	833.35
941.462	855.88
941.637	448.33
941.812	628.56
941.987	857.93
942.162	747.34
942.337	665.42
942.512	608.08
942.687	1136.45
942.862	1062.73
943.037	415.57
943.212	255.83
943.386	677.71
943.561	857.93
943.736	634.7
943.911	714.57
944.086	829.26
944.26	794.44
944.435	599.88
944.61	620.36
944.785	1011.53
944.959	1210.18
945.134	556.88
945.309	468.81
945.483	599.88
945.658	989
945.833	253.78
946.007	370.51
946.182	1152.84
946.357	517.97
946.531	411.47
946.706	448.33
946.88	419.66
947.055	782.15
947.229	515.92
947.404	390.99
947.578	972.61
947.752	677.71
947.927	350.03
948.101	380.75
948.276	702.28
948.45	780.11
948.624	665.42
948.799	413.52
948.973	819.02
949.147	456.53
949.321	503.63
949.496	485.2
949.67	970.57
949.844	640.84
950.018	456.53
950.193	468.81
950.367	1232.71
950.541	649.04
950.715	608.08
950.889	673.61
951.063	546.64
951.237	952.13
951.411	333.65
951.585	227.15
951.759	757.58
951.933	694.09
952.107	468.81
952.281	640.84
952.455	1021.77
952.629	884.55
952.803	321.36
952.977	366.42
953.151	890.7
953.325	825.16
953.499	571.21
953.672	388.94
953.846	517.97
954.02	612.17
954.194	403.28
954.368	427.85
954.541	816.97
954.715	460.62
954.889	526.16
955.062	415.57
955.236	632.65
955.41	640.84
955.583	526.16
955.757	276.31
955.93	634.7
956.104	497.49
956.278	417.61
956.451	472.91
956.625	763.72
956.798	1152.84
956.972	712.52
957.145	423.76
957.319	669.52
957.492	657.23
957.665	522.06
957.839	382.8
958.012	853.83
958.185	626.51
958.359	470.86
958.532	642.89
958.705	825.16
958.879	743.24
959.052	593.74
959.225	247.63
959.398	720.71
959.572	728.91
959.745	370.51
959.918	440.14
960.091	692.04
960.264	821.06
960.438	436.05
960.611	325.46
960.784	878.41
960.957	581.45
961.13	821.06
961.303	497.49
961.476	751.43
961.649	948.04
961.822	354.13
961.995	575.31
962.168	796.49
962.341	800.59
962.514	501.58
962.686	468.81
962.859	739.15
963.032	794.44
963.205	401.23
963.378	296.78
963.551	812.87
963.723	704.33
963.896	513.87
964.069	620.36
964.242	716.62
964.414	794.44
964.587	466.77
964.76	552.78
964.932	733
965.105	687.95
965.278	554.83
965.45	431.95
965.623	653.13
965.795	911.18
965.968	442.19
966.14	456.53
966.313	628.56
966.485	743.24
966.658	454.48
966.83	393.04
967.003	909.13
967.175	878.41
967.348	452.43
967.52	489.29
967.692	1052.49
967.865	718.67
968.037	513.87
968.209	804.68
968.382	730.95
968.554	786.25
968.726	548.68
968.898	311.12
969.071	816.97
969.243	829.26
969.415	427.85
969.587	612.17
969.759	1079.11
969.932	909.13
970.104	487.25
970.276	221.01
970.448	517.97
970.62	560.97
970.792	589.64
970.964	458.57
971.136	1120.07
971.308	802.63
971.48	464.72
971.652	358.22
971.824	1013.57
971.996	517.97
972.168	505.68
972.339	485.2
972.511	872.26
972.683	575.31
972.855	659.28
973.027	485.2
973.199	634.7
973.37	898.89
973.542	589.64
973.714	546.64
973.886	767.82
974.057	915.27
974.229	411.47
974.401	360.27
974.572	388.94
974.744	300.88
974.915	341.84
975.087	417.61
975.259	1046.34
975.43	538.45
975.602	417.61
975.773	311.12
975.945	495.44
976.116	898.89
976.288	341.84
976.459	608.08
976.63	567.12
976.802	708.43
976.973	341.84
977.145	653.13
977.316	1128.26
977.487	677.71
977.659	581.45
977.83	448.33
978.001	1005.38
978.172	753.48
978.344	302.93
978.515	407.38
978.686	497.49
978.857	1025.86
979.028	448.33
979.2	339.79
979.371	886.6
979.542	675.66
979.713	599.88
979.884	55.12
980.055	442.19
980.226	526.16
980.397	307.02
980.568	315.22
980.739	962.37
980.91	632.65
981.081	497.49
981.252	335.7
981.423	769.87
981.594	829.26
981.765	319.31
981.936	567.12
982.106	659.28
982.277	821.06
982.448	378.7
982.619	571.21
982.79	544.59
982.96	841.54
983.131	493.39
983.302	175.95
983.472	542.54
983.643	679.75
983.814	464.72
983.984	366.42
984.155	597.84
984.326	872.26
984.496	509.77
984.667	427.85
984.837	405.33
985.008	894.79
985.178	546.64
985.349	446.29
985.519	669.52
985.69	460.62
985.86	403.28
986.031	368.46
986.201	694.09
986.371	710.47
986.542	286.54
986.712	132.95
986.882	761.67
987.053	646.99
987.223	261.97
987.393	452.43
987.563	632.65
987.734	718.67
987.904	628.56
988.074	319.31
988.244	726.86
988.414	417.61
988.585	169.81
988.755	456.53
988.925	599.88
989.095	931.66
989.265	337.74
989.435	472.91
989.605	665.42
989.775	792.39
989.945	661.32
990.115	247.63
990.285	618.32
990.455	651.08
990.625	520.01
990.795	288.59
990.965	1013.57
991.134	356.18
991.304	259.92
991.474	304.98
991.644	620.36
991.814	804.68
991.984	241.49
992.153	304.98
992.323	534.35
992.493	511.82
992.662	135
992.832	440.14
993.002	589.64
993.171	659.28
993.341	87.89
993.511	460.62
993.68	489.29
993.85	753.48
994.019	132.95
994.189	227.15
994.358	644.94
994.528	341.84
994.697	46.93
994.867	188.24
995.036	763.72
995.206	431.95
995.375	229.2
995.544	448.33
995.714	712.52
995.883	450.38
996.052	464.72
996.222	8.02
996.391	1007.43
996.56	634.7
996.73	194.39
996.899	32.6
997.068	931.66
997.237	550.73
997.406	161.62
997.576	173.91
997.745	517.97
997.914	560.97
998.083	61.27
998.252	135
998.421	538.45
998.59	319.31
998.759	147.28
998.928	18.26
999.097	800.59
999.266	554.83
999.435	409.42
999.604	5.97
999.773	1060.68
999.942	503.63
1000.111	36.69
1000.28	28.5
1000.448	253.78
1000.617	180.05
1000.786	298.83
1000.955	55.12
1001.124	593.74
1001.292	1087.3
1001.461	69.46
1001.63	77.65
1001.798	808.78
1001.967	751.43
1002.136	104.28
1002.304	67.41
1002.473	597.84
1002.642	573.26
1002.81	178
1002.979	175.95
1003.147	665.42
1003.316	1070.92
1003.484	116.56
1003.653	122.71
1003.821	808.78
1003.99	436.05
1004.158	251.73
1004.327	251.73
1004.495	464.72
1004.663	354.13
1004.832	196.43
1005	1.88
1005.168	606.03
1005.337	507.73
1005.505	32.6
1005.673	360.27
1005.842	653.13
1006.01	565.07
1006.178	46.93
1006.346	124.76
1006.514	560.97
1006.683	825.16
1006.851	145.24
1007.019	-22.7
1007.187	298.83
1007.355	22.36
1007.523	-34.99
1007.691	-6.31
1007.859	91.99
1008.027	743.24
1008.195	46.93
1008.363	-32.94
1008.531	603.98
1008.699	194.39
1008.867	-125.1
1009.035	20.31
1009.203	769.87
1009.37	425.81
1009.538	96.08
1009.706	546.64
1009.874	534.35
1010.042	513.87
1010.209	-43.18
1010.377	22.36
1010.545	587.6
1010.713	466.77
1010.88	-8.36
1011.048	135
1011.216	343.89
1011.383	716.62
1011.551	-39.08
1011.718	12.12
1011.886	563.02
1012.054	401.23
1012.221	69.46
1012.389	12.12
1012.556	411.47
1012.724	819.02
1012.891	83.8
1013.058	-30.89
1013.226	454.48
1013.393	612.17
1013.561	-2.22
1013.728	-43.18
1013.895	579.4
1014.063	507.73
1014.23	16.21
1014.397	48.98
1014.565	649.04
1014.732	362.32
1014.899	30.55
1015.066	28.5
1015.233	522.06
1015.401	513.87
1015.568	137.04
1015.735	198.48
1015.902	403.28
1016.069	434
1016.236	157.52
1016.403	1.88
1016.57	128.85
1016.737	583.5
1016.904	63.32
1017.071	-20.65
1017.238	276.31
1017.405	589.64
1017.572	16.21
1017.739	264.02
1017.906	503.63
1018.073	657.23
1018.24	-104.62
1018.407	67.41
1018.573	571.21
1018.74	450.38
1018.907	149.33
1019.074	-131.24
1019.241	628.56
1019.407	354.13
1019.574	16.21
1019.741	-86.19
1019.907	491.34
1020.074	546.64
1020.241	-204.97
1020.407	-4.27
1020.574	442.19
1020.74	509.77
1020.907	42.84
1021.073	-75.95
1021.24	857.93
1021.406	730.95
1021.573	-71.85
1021.739	10.07
1021.906	524.11
1022.072	243.54
1022.239	-16.55
1022.405	16.21
1022.571	399.18
1022.738	167.76
1022.904	-10.41
1023.07	40.79
1023.237	313.17
1023.403	651.08
1023.569	-6.31
1023.735	59.22
1023.902	376.66
1024.068	337.74
1024.234	-2.22
1024.4	-75.95
1024.566	386.9
1024.732	448.33
1024.898	-24.75
1025.065	-239.78
1025.231	405.33
1025.397	227.15
1025.563	-32.94
1025.729	-161.96
1025.895	-135.34
1026.061	130.9
1026.227	-194.73
1026.392	-2.22
1026.558	610.12
1026.724	350.03
1026.89	-100.52
1027.056	63.32
1027.222	431.95
1027.388	180.05
1027.553	-34.99
1027.719	-73.9
1027.885	739.15
1028.051	495.44
1028.216	-213.16
1028.382	-8.36
1028.548	554.83
1028.713	204.63
1028.879	-143.53
1029.045	173.91
1029.21	630.6
1029.376	622.41
1029.541	38.74
1029.707	1.88
1029.873	450.38
1030.038	526.16
1030.204	-22.7
1030.369	-43.18
1030.534	456.53
1030.7	286.54
1030.865	-30.89
1031.031	-108.71
1031.196	431.95
1031.361	358.22
1031.527	-34.99
1031.692	-168.1
1031.857	-18.6
1032.023	526.16
1032.188	-139.43
1032.353	10.07
1032.518	642.89
1032.684	350.03
1032.849	-227.5
1033.014	-69.8
1033.179	464.72
1033.344	440.14
1033.509	-8.36
1033.674	-110.76
1033.839	468.81
1034.004	503.63
1034.17	-34.99
1034.335	-202.92
1034.5	243.54
1034.664	147.28
1034.829	-112.81
1034.994	-67.75
1035.159	374.61
1035.324	368.46
1035.489	-57.51
1035.654	-121
1035.819	640.84
1035.984	399.18
1036.148	24.4
1036.313	-34.99
1036.478	532.3
1036.643	358.22
1036.807	-43.18
1036.972	-166.06
1037.137	589.64
1037.301	329.55
1037.466	-225.45
1037.631	10.07
1037.795	511.82
1037.96	333.65
1038.124	171.86
1038.289	-133.29
1038.454	505.68
1038.618	483.15
1038.783	-0.17
1038.947	38.74
1039.111	335.7
1039.276	163.67
1039.44	-114.86
1039.605	382.8
1039.769	282.45
1039.933	284.5
1040.098	40.79
1040.262	149.33
1040.426	505.68
1040.591	524.11
1040.755	-170.15
1040.919	-127.14
1041.083	378.7
1041.248	229.2
1041.412	-260.26
1041.576	-178.34
1041.74	329.55
1041.904	415.57
1042.068	-170.15
1042.232	-18.6
1042.397	448.33
1042.561	386.9
1042.725	-331.94
1042.889	63.32
1043.053	505.68
1043.217	407.38
1043.381	-2.22
1043.544	-266.41
1043.708	573.26
1043.872	46.93
1044.036	-303.27
1044.2	-282.79
1044.364	630.6
1044.528	671.56
1044.691	3376.93
1044.855	-198.82
1045.019	538.45
1045.183	415.57
1045.346	-88.23
1045.51	-114.86
1045.674	390.99
1045.837	405.33
1046.001	-125.1
1046.165	-131.24
1046.328	841.54
1046.492	448.33
1046.655	141.14
1046.819	22.36
1046.983	67.41
1047.146	345.94
1047.31	-0.17
1047.473	-297.13
1047.636	304.98
1047.8	89.94
1047.963	-18.6
1048.127	-174.25
1048.29	124.76
