Data from Ink_Intensity_USB4F045381__63__00063.txt Node

Date: Mon Jul 17 10:33:22 EDT 2023
User: mmckonesweet
Spectrometer: USB4F04538
Trigger mode: 4
Integration Time (sec): 9.000000E-1
Scans to average: 1
Electric dark correction enabled: true
Nonlinearity correction enabled: false
Boxcar width: 0
XAxis mode: Wavelengths
Number of Pixels in Spectrum: 3648
>>>>>Begin Spectral Data<<<<<
345.52	-1016.13
345.736	-1016.13
345.952	-1016.13
346.168	-923.98
346.384	-983.37
346.6	-188.75
346.816	-235.86
347.032	-84.31
347.248	286.37
347.464	-233.81
347.68	-164.18
347.896	79.53
348.112	337.57
348.328	-90.45
348.544	-47.44
348.76	91.82
348.975	249.51
349.191	-239.95
349.407	-207.19
349.623	22.19
349.839	26.28
350.055	-139.6
350.27	9.9
350.486	91.82
350.702	423.59
350.918	167.59
351.133	-176.47
351.349	120.49
351.565	429.73
351.781	-217.43
351.996	-0.34
352.212	276.13
352.428	-92.5
352.644	-215.38
352.859	-194.9
353.075	267.94
353.291	169.64
353.506	-178.51
353.722	-274.77
353.938	-90.45
354.153	495.27
354.369	81.58
354.584	-270.67
354.8	358.05
355.016	-190.8
355.231	-272.72
355.447	-72.02
355.662	136.87
355.878	837.28
356.093	-334.16
356.309	-8.53
356.524	-244.05
356.74	317.09
356.955	-149.84
357.171	-45.4
357.386	145.06
357.602	-221.52
357.817	-88.4
358.033	-164.18
358.248	325.29
358.464	73.39
358.679	-88.4
358.895	-325.97
359.11	42.67
359.325	321.19
359.541	247.46
359.756	42.67
359.972	-319.82
360.187	214.7
360.402	-227.67
360.618	-158.03
360.833	997.02
361.048	163.5
361.264	-221.52
361.479	-49.49
361.694	20.14
361.909	188.07
362.125	-256.34
362.34	-96.6
362.555	284.33
362.77	77.48
362.986	-364.88
363.201	-160.08
363.416	294.57
363.631	-4.44
363.847	-172.37
364.062	-176.47
364.277	183.98
364.492	200.36
364.707	-172.37
364.922	-352.59
365.138	255.65
365.353	353.96
365.568	-282.96
365.783	-115.03
365.998	186.02
366.213	560.8
366.428	-174.42
366.643	79.53
366.858	298.66
367.073	224.94
367.288	-145.75
367.503	-272.72
367.718	126.63
367.933	366.25
368.148	-258.39
368.363	-67.92
368.578	-22.87
368.793	433.83
369.008	-254.29
369.223	-266.58
369.438	157.35
369.653	302.76
369.868	-225.62
370.083	-219.47
370.298	87.72
370.513	396.96
370.728	75.43
370.943	-162.13
371.157	-145.75
371.372	571.04
371.587	-223.57
371.802	-252.24
372.017	136.87
372.232	493.22
372.446	-33.11
372.661	-274.77
372.876	226.98
373.091	100.01
373.306	-16.73
373.52	-174.42
373.735	-182.61
373.95	403.11
374.165	-104.79
374.379	-147.8
374.594	-112.98
374.809	87.72
375.023	44.71
375.238	-176.47
375.453	204.46
375.667	-217.43
375.882	-84.31
376.097	-215.38
376.311	24.23
376.526	81.58
376.741	-231.76
376.955	208.55
377.17	589.47
377.384	495.27
377.599	-49.49
377.813	-211.28
378.028	591.52
378.242	155.3
378.457	-51.54
378.672	-352.59
378.886	71.34
379.101	-0.34
379.315	-278.87
379.53	-137.56
379.744	198.31
379.958	239.27
380.173	-198.99
380.387	-223.57
380.602	122.54
380.816	-47.44
381.031	-194.9
381.245	-121.17
381.459	313
381.674	2602.63
381.888	-248.15
382.103	122.54
382.317	-121.17
382.531	503.46
382.746	-63.83
382.96	-276.82
383.174	-76.12
383.388	399.01
383.603	128.68
383.817	-242
384.031	198.31
384.246	446.12
384.46	11.95
384.674	257.7
384.888	52.91
385.103	110.25
385.317	-280.91
385.531	-45.4
385.745	253.61
385.959	351.91
386.174	-235.86
386.388	-285.01
386.602	-33.11
386.816	-59.73
387.03	-45.4
387.244	-131.41
387.458	16.04
387.672	374.44
387.887	-248.15
388.101	-248.15
388.315	327.33
388.529	91.82
388.743	-117.08
388.957	-303.44
389.171	306.85
389.385	-149.84
389.599	-231.76
389.813	116.39
390.027	198.31
390.241	616.1
390.455	-88.4
390.669	-102.74
390.883	-149.84
391.097	329.38
391.311	106.15
391.525	-266.58
391.738	224.94
391.952	196.26
392.166	-72.02
392.38	-213.33
392.594	278.18
392.808	296.61
393.022	-133.46
393.236	-190.8
393.449	235.18
393.663	151.21
393.877	-219.47
394.091	9.9
394.305	-14.68
394.518	-147.8
394.732	-285.01
394.946	-121.17
395.16	421.54
395.373	138.92
395.587	-166.23
395.801	-309.58
396.015	313
396.228	173.74
396.442	-280.91
396.656	-399.7
396.869	366.25
397.083	370.34
397.297	-61.78
397.51	-129.36
397.724	386.72
397.938	169.64
398.151	-268.63
398.365	-297.3
398.578	208.55
398.792	399.01
399.005	-35.16
399.219	-127.32
399.433	167.59
399.646	239.27
399.86	54.95
400.073	46.76
400.287	237.22
400.5	-51.54
400.714	26.28
400.927	-166.23
401.141	235.18
401.354	994.97
401.567	159.4
401.781	-246.1
401.994	257.7
402.208	552.61
402.421	-182.61
402.635	-61.78
402.848	71.34
403.061	298.66
403.275	-49.49
403.488	-211.28
403.701	493.22
403.915	267.94
404.128	9.9
404.341	-153.94
404.555	222.89
404.768	5.8
404.981	-72.02
405.195	-92.5
405.408	517.79
405.621	259.75
405.834	-31.06
406.048	-198.99
406.261	396.96
406.474	437.92
406.687	-215.38
406.9	-61.78
407.114	100.01
407.327	50.86
407.54	-262.48
407.753	-350.54
407.966	-100.69
408.179	198.31
408.392	-180.56
408.605	-258.39
408.819	167.59
409.032	118.44
409.245	-149.84
409.458	5.8
409.671	214.7
409.884	294.57
410.097	-293.2
410.31	83.63
410.523	171.69
410.736	13.99
410.949	-76.12
411.162	-133.46
411.375	485.03
411.588	226.98
411.801	18.09
412.014	-155.99
412.227	18.09
412.44	-37.2
412.653	-180.56
412.865	67.24
413.078	220.84
413.291	122.54
413.504	-88.4
413.717	-184.66
413.93	247.46
414.143	-100.69
414.356	-180.56
414.568	-293.2
414.781	290.47
414.994	102.06
415.207	-106.84
415.42	-43.35
415.632	292.52
415.845	542.37
416.058	-307.54
416.271	-297.3
416.483	116.39
416.696	493.22
416.909	-141.65
417.121	-258.39
417.334	169.64
417.547	554.66
417.759	-174.42
417.972	-198.99
418.185	16.04
418.397	231.08
418.61	-192.85
418.823	-196.95
419.035	401.06
419.248	-51.54
419.46	-80.21
419.673	-125.27
419.885	173.74
420.098	5.8
420.311	-190.8
420.523	-379.22
420.736	200.36
420.948	44.71
421.161	-137.56
421.373	-340.3
421.586	181.93
421.798	-131.41
422.01	-295.25
422.223	-72.02
422.435	-76.12
422.648	237.22
422.86	-192.85
423.073	-145.75
423.285	341.67
423.497	-108.88
423.71	-153.94
423.922	-180.56
424.134	126.63
424.347	368.29
424.559	46.76
424.771	128.68
424.984	-24.92
425.196	145.06
425.408	-299.34
425.621	-248.15
425.833	196.26
426.045	458.4
426.257	-229.71
426.47	-182.61
426.682	233.13
426.894	224.94
427.106	-174.42
427.318	-104.79
427.531	-84.31
427.743	284.33
427.955	-207.19
428.167	310.95
428.379	204.46
428.591	-12.63
428.804	-166.23
429.016	-221.52
429.228	9.9
429.44	235.18
429.652	32.43
429.864	-313.68
430.076	-39.25
430.288	11.95
430.5	-110.93
430.712	-92.5
430.924	257.7
431.136	132.78
431.348	-307.54
431.56	-203.09
431.772	100.01
431.984	-2.39
432.196	-295.25
432.408	-201.04
432.62	-80.21
432.832	181.93
433.044	28.33
433.256	-43.35
433.468	231.08
433.679	-215.38
433.891	-264.53
434.103	-18.77
434.315	319.14
434.527	220.84
434.739	-139.6
434.95	-104.79
435.162	261.8
435.374	-139.6
435.586	-268.63
435.798	-203.09
436.009	-242
436.221	-6.49
436.433	-235.86
436.645	-59.73
436.856	-145.75
437.068	292.52
437.28	-244.05
437.491	54.95
437.703	173.74
437.915	54.95
438.126	-139.6
438.338	38.57
438.55	7.85
438.761	190.12
438.973	-174.42
439.184	-119.12
439.396	69.29
439.608	235.18
439.819	-285.01
440.031	-125.27
440.242	206.5
440.454	239.27
440.665	-182.61
440.877	-92.5
441.088	147.11
441.3	50.86
441.511	-350.54
441.723	-186.71
441.934	181.93
442.146	7.85
442.357	-65.88
442.569	46.76
442.78	24.23
442.991	515.75
443.203	145.06
443.414	-260.43
443.626	329.38
443.837	-133.46
444.048	-276.82
444.26	-276.82
444.471	95.91
444.682	245.41
444.894	-344.4
445.105	-305.49
445.316	331.43
445.528	73.39
445.739	-51.54
445.95	-137.56
446.161	32.43
446.373	372.39
446.584	-174.42
446.795	-254.29
447.006	188.07
447.217	419.49
447.429	-340.3
447.64	-323.92
447.851	339.62
448.062	65.19
448.273	-360.78
448.484	-274.77
448.695	124.58
448.907	-37.2
449.118	-100.69
449.329	30.38
449.54	-119.12
449.751	-139.6
449.962	-137.56
450.173	-155.99
450.384	319.14
450.595	341.67
450.806	-115.03
451.017	-153.94
451.228	323.24
451.439	306.85
451.65	-196.95
451.861	-397.65
452.072	-139.6
452.283	-4.44
452.494	-22.87
452.705	-235.86
452.915	411.3
453.126	108.2
453.337	-104.79
453.548	-211.28
453.759	288.42
453.97	493.22
454.181	-31.06
454.391	-135.51
454.602	120.49
454.813	196.26
455.024	-106.84
455.235	-215.38
455.445	89.77
455.656	93.87
455.867	-39.25
456.078	-133.46
456.288	-31.06
456.499	153.26
456.71	-219.47
456.921	34.47
457.131	224.94
457.342	87.72
457.553	-131.41
457.763	-229.71
457.974	181.93
458.184	257.7
458.395	-305.49
458.606	-338.26
458.816	265.89
459.027	517.79
459.237	-31.06
459.448	-375.12
459.659	272.04
459.869	571.04
460.08	-311.63
460.29	-82.26
460.501	439.97
460.711	-47.44
460.922	-309.58
461.132	-170.32
461.343	677.54
461.553	-272.72
461.764	-223.57
461.974	-262.48
462.184	192.17
462.395	145.06
462.605	-227.67
462.816	-254.29
463.026	128.68
463.236	288.42
463.447	-260.43
463.657	-256.34
463.867	288.42
464.078	-51.54
464.288	-164.18
464.498	-186.71
464.709	-26.96
464.919	-10.58
465.129	-190.8
465.339	-246.1
465.55	171.69
465.76	278.18
465.97	-194.9
466.18	-194.9
466.391	206.5
466.601	171.69
466.811	-137.56
467.021	-295.25
467.231	89.77
467.441	349.86
467.651	-131.41
467.862	-440.65
468.072	-35.16
468.282	333.48
468.492	-242
468.702	-229.71
468.912	-20.82
469.122	636.58
469.332	91.82
469.542	-276.82
469.752	161.45
469.962	136.87
470.172	-252.24
470.382	-270.67
470.592	204.46
470.802	302.76
471.012	-51.54
471.222	-250.19
471.432	294.57
471.642	286.37
471.852	-96.6
472.062	-285.01
472.272	-94.55
472.482	-186.71
472.691	-305.49
472.901	-346.45
473.111	93.87
473.321	513.7
473.531	-321.87
473.741	-137.56
473.95	206.5
474.16	165.54
474.37	-102.74
474.58	-350.54
474.79	444.07
474.999	243.37
475.209	-260.43
475.419	-293.2
475.628	-108.88
475.838	403.11
476.048	-100.69
476.258	-321.87
476.467	267.94
476.677	-55.64
476.886	-67.92
477.096	-213.33
477.306	-96.6
477.515	349.86
477.725	-92.5
477.935	-72.02
478.144	423.59
478.354	-155.99
478.563	-207.19
478.773	-248.15
478.982	171.69
479.192	284.33
479.401	-131.41
479.611	-334.16
479.82	-133.46
480.03	71.34
480.239	-266.58
480.449	-319.82
480.658	456.36
480.868	-72.02
481.077	-170.32
481.287	-203.09
481.496	269.99
481.705	407.2
481.915	69.29
482.124	34.47
482.333	57
482.543	378.53
482.752	-117.08
482.961	-219.47
483.171	229.03
483.38	20.14
483.589	-170.32
483.799	-227.67
484.008	61.1
484.217	251.56
484.426	-190.8
484.636	-287.06
484.845	77.48
485.054	-293.2
485.263	65.19
485.472	-192.85
485.682	468.64
485.891	106.15
486.1	-274.77
486.309	-207.19
486.518	163.5
486.727	419.49
486.936	-211.28
487.146	-67.92
487.355	341.67
487.564	-180.56
487.773	-295.25
487.982	-258.39
488.191	-35.16
488.4	16.04
488.609	-190.8
488.818	-207.19
489.027	528.03
489.236	409.25
489.445	-246.1
489.654	-239.95
489.863	274.09
490.072	108.2
490.281	77.48
490.49	-180.56
490.698	362.15
490.907	394.92
491.116	-272.72
491.325	-411.98
491.534	366.25
491.743	77.48
491.952	-129.36
492.16	-211.28
492.369	175.78
492.578	269.99
492.787	-131.41
492.996	-309.58
493.204	-53.59
493.413	452.26
493.622	-350.54
493.831	-377.17
494.039	317.09
494.248	-262.48
494.457	-285.01
494.665	-375.12
494.874	110.25
495.083	407.2
495.291	-209.23
495.5	-334.16
495.709	202.41
495.917	106.15
496.126	-172.37
496.335	-266.58
496.543	-26.96
496.752	132.78
496.96	11.95
497.169	-336.21
497.377	65.19
497.586	288.42
497.794	-137.56
498.003	-409.94
498.211	-14.68
498.42	368.29
498.628	-153.94
498.837	-285.01
499.045	175.78
499.254	57
499.462	-235.86
499.671	-239.95
499.879	517.79
500.087	280.23
500.296	-186.71
500.504	-207.19
500.713	83.63
500.921	554.66
501.129	-211.28
501.338	-133.46
501.546	120.49
501.754	93.87
501.962	-272.72
502.171	-334.16
502.379	100.01
502.587	501.41
502.795	-176.47
503.004	-166.23
503.212	73.39
503.42	345.77
503.628	-194.9
503.837	-59.73
504.045	206.5
504.253	458.4
504.461	-262.48
504.669	-430.41
504.877	210.6
505.085	409.25
505.294	-321.87
505.502	-100.69
505.71	26.28
505.918	306.85
506.126	-244.05
506.334	-221.52
506.542	-16.73
506.75	97.96
506.958	-115.03
507.166	-213.33
507.374	-78.16
507.582	470.69
507.79	-119.12
507.998	-325.97
508.206	267.94
508.414	140.97
508.622	-297.3
508.83	-242
509.037	437.92
509.245	-63.83
509.453	-354.64
509.661	-285.01
509.869	186.02
510.077	-80.21
510.285	-172.37
510.492	-555.34
510.7	538.27
510.908	-26.96
511.116	-176.47
511.324	-244.05
511.531	-24.92
511.739	108.2
511.947	50.86
512.155	50.86
512.362	30.38
512.57	-170.32
512.778	-364.88
512.985	-436.56
513.193	267.94
513.401	374.44
513.608	-174.42
513.816	-285.01
514.024	200.36
514.231	358.05
514.439	-209.23
514.646	-215.38
514.854	194.22
515.061	374.44
515.269	-205.14
515.477	-174.42
515.684	-100.69
515.892	345.77
516.099	-358.74
516.307	-332.11
516.514	288.42
516.722	464.55
516.929	-174.42
517.136	-299.34
517.344	358.05
517.551	151.21
517.759	-274.77
517.966	-192.85
518.173	-16.73
518.381	-22.87
518.588	-229.71
518.796	-295.25
519.003	226.98
519.21	-39.25
519.418	-225.62
519.625	65.19
519.832	-16.73
520.039	85.67
520.247	-354.64
520.454	-237.91
520.661	286.37
520.868	122.54
521.076	-246.1
521.283	-207.19
521.49	595.62
521.697	122.54
521.904	-254.29
522.112	-166.23
522.319	241.32
522.526	145.06
522.733	-291.15
522.94	-368.98
523.147	22.19
523.354	218.79
523.561	-432.46
523.768	-162.13
523.975	259.75
524.183	104.11
524.39	-219.47
524.597	-393.55
524.804	-2.39
525.011	-76.12
525.218	-272.72
525.425	-319.82
525.632	382.63
525.838	-92.5
526.045	-346.45
526.252	-325.97
526.459	1013.4
526.666	796.32
526.873	-278.87
527.08	-215.38
527.287	439.97
527.494	224.94
527.701	-440.65
527.907	-379.22
528.114	124.58
528.321	65.19
528.528	-323.92
528.735	-274.77
528.941	-80.21
529.148	-41.3
529.355	-141.65
529.562	-336.21
529.768	382.63
529.975	5.8
530.182	-235.86
530.388	-325.97
530.595	255.65
530.802	-186.71
531.008	-180.56
531.215	-274.77
531.422	689.82
531.628	695.97
531.835	-162.13
532.042	-151.89
532.248	-94.55
532.455	102.06
532.661	-104.79
532.868	-344.4
533.074	112.3
533.281	204.46
533.487	-143.7
533.694	-266.58
533.9	-196.95
534.107	147.11
534.313	-373.07
534.52	-377.17
534.726	261.8
534.933	507.55
535.139	-354.64
535.345	-399.7
535.552	147.11
535.758	126.63
535.965	-219.47
536.171	-242
536.377	188.07
536.584	403.11
536.79	-272.72
536.996	-213.33
537.203	120.49
537.409	222.89
537.615	-248.15
537.821	-123.22
538.028	288.42
538.234	224.94
538.44	-235.86
538.646	-184.66
538.853	145.06
539.059	-33.11
539.265	85.67
539.471	-434.51
539.677	267.94
539.883	-31.06
540.09	-266.58
540.296	97.96
540.502	-119.12
540.708	-57.68
540.914	-90.45
541.12	-145.75
541.326	116.39
541.532	11.95
541.738	-102.74
541.944	-207.19
542.15	276.13
542.356	-24.92
542.562	-276.82
542.768	-260.43
542.974	605.86
543.18	464.55
543.386	-231.76
543.592	-444.75
543.798	403.11
544.004	276.13
544.21	-258.39
544.415	-149.84
544.621	44.71
544.827	292.52
545.033	-332.11
545.239	5.8
545.445	-47.44
545.651	102.06
545.856	-278.87
546.062	-207.19
546.268	-24.92
546.474	112.3
546.679	-244.05
546.885	-168.27
547.091	-0.34
547.297	480.93
547.502	-186.71
547.708	-307.54
547.914	-102.74
548.119	149.16
548.325	-291.15
548.531	-256.34
548.736	384.68
548.942	-61.78
549.147	-201.04
549.353	-16.73
549.559	370.34
549.764	138.92
549.97	-186.71
550.175	-254.29
550.381	192.17
550.586	-65.88
550.792	-188.75
550.997	-274.77
551.203	145.06
551.408	208.55
551.614	-342.35
551.819	-323.92
552.025	413.35
552.23	464.55
552.435	-340.3
552.641	-51.54
552.846	-151.89
553.052	343.72
553.257	-133.46
553.462	-242
553.668	-149.84
553.873	315.05
554.078	-282.96
554.283	-237.91
554.489	104.11
554.694	3.75
554.899	-360.78
555.105	-153.94
555.31	194.22
555.515	280.23
555.72	-227.67
555.925	-387.41
556.131	198.31
556.336	-133.46
556.541	-231.76
556.746	-403.79
556.951	399.01
557.156	403.11
557.361	-186.71
557.567	-203.09
557.772	505.51
557.977	165.54
558.182	-213.33
558.387	-295.25
558.592	-33.11
558.797	327.33
559.002	-141.65
559.207	-196.95
559.412	-61.78
559.617	407.2
559.822	-264.53
560.027	-295.25
560.232	110.25
560.437	183.98
560.642	-373.07
560.847	-323.92
561.051	118.44
561.256	132.78
561.461	-244.05
561.666	-348.5
561.871	79.53
562.076	245.41
562.281	-149.84
562.485	-299.34
562.69	202.41
562.895	274.09
563.1	-213.33
563.305	-287.06
563.509	321.19
563.714	579.23
563.919	-303.44
564.123	-225.62
564.328	40.62
564.533	345.77
564.737	-170.32
564.942	-282.96
565.147	429.73
565.351	505.51
565.556	-125.27
565.761	-155.99
565.965	63.15
566.17	-96.6
566.374	-246.1
566.579	-368.98
566.784	140.97
566.988	5.8
567.193	-362.83
567.397	-319.82
567.602	-295.25
567.806	-80.21
568.011	-268.63
568.215	-244.05
568.42	34.47
568.624	-78.16
568.828	-246.1
569.033	-88.4
569.237	272.04
569.442	169.64
569.646	-317.78
569.85	-190.8
570.055	38.57
570.259	73.39
570.463	-31.06
570.668	-178.51
570.872	-8.53
571.076	22.19
571.281	-117.08
571.485	-158.03
571.689	42.67
571.893	284.33
572.098	-168.27
572.302	-213.33
572.506	126.63
572.71	95.91
572.914	-219.47
573.119	-188.75
573.323	349.86
573.527	382.63
573.731	-221.52
573.935	-285.01
574.139	114.34
574.343	-133.46
574.547	-194.9
574.751	-223.57
574.955	427.68
575.159	292.52
575.364	-235.86
575.568	-321.87
575.772	130.73
575.976	382.63
576.18	-297.3
576.383	-379.22
576.587	296.61
576.791	163.5
576.995	-344.4
577.199	-457.04
577.403	317.09
577.607	337.57
577.811	-323.92
578.015	-84.31
578.219	173.74
578.422	335.53
578.626	-190.8
578.83	1.71
579.034	374.44
579.238	95.91
579.442	-262.48
579.645	169.64
579.849	67.24
580.053	79.53
580.257	-147.8
580.46	-162.13
580.664	202.41
580.868	155.3
581.071	-14.68
581.275	-96.6
581.479	-258.39
581.682	106.15
581.886	-272.72
582.09	-215.38
582.293	249.51
582.497	196.26
582.7	-55.64
582.904	-239.95
583.107	124.58
583.311	-14.68
583.515	-223.57
583.718	-182.61
583.922	188.07
584.125	394.92
584.329	-293.2
584.532	-125.27
584.735	362.15
584.939	226.98
585.142	-379.22
585.346	-231.76
585.549	212.65
585.753	-80.21
585.956	-170.32
586.159	-151.89
586.363	460.45
586.566	186.02
586.769	-293.2
586.973	-282.96
587.176	136.87
587.379	370.34
587.582	93.87
587.786	7.85
587.989	34.47
588.192	646.82
588.395	-170.32
588.599	91.82
588.802	134.82
589.005	224.94
589.208	-151.89
589.411	-203.09
589.615	296.61
589.818	399.01
590.021	-92.5
590.224	-203.09
590.427	337.57
590.63	251.56
590.833	-358.74
591.036	-336.21
591.239	-14.68
591.442	-33.11
591.645	81.58
591.848	-278.87
592.051	124.58
592.254	251.56
592.457	-158.03
592.66	-117.08
592.863	-47.44
593.066	196.26
593.269	-203.09
593.472	-123.22
593.675	-164.18
593.878	263.85
594.081	-147.8
594.284	-203.09
594.486	173.74
594.689	136.87
594.892	-26.96
595.095	-84.31
595.298	145.06
595.5	-10.58
595.703	-155.99
595.906	-123.22
596.109	419.49
596.311	431.78
596.514	-463.18
596.717	-10.58
596.92	343.72
597.122	255.65
597.325	-469.33
597.528	-207.19
597.73	306.85
597.933	67.24
598.136	-203.09
598.338	-377.17
598.541	165.54
598.743	353.96
598.946	-211.28
599.148	-125.27
599.351	392.87
599.554	407.2
599.756	-92.5
599.959	-162.13
600.161	409.25
600.363	630.43
600.566	28.33
600.768	-242
600.971	466.6
601.173	269.99
601.376	-198.99
601.578	-194.9
601.78	183.98
601.983	636.58
602.185	-158.03
602.388	-2.39
602.59	147.11
602.792	-2.39
602.995	-24.92
603.197	-211.28
603.399	298.66
603.601	229.03
603.804	-170.32
604.006	-235.86
604.208	20.14
604.41	-330.06
604.613	-65.88
604.815	-229.71
605.017	624.29
605.219	5.8
605.421	235.18
605.623	-168.27
605.826	294.57
606.028	409.25
606.23	-213.33
606.432	-176.47
606.634	419.49
606.836	423.59
607.038	-325.97
607.24	71.34
607.442	120.49
607.644	102.06
607.846	-49.49
608.048	-239.95
608.25	480.93
608.452	-72.02
608.654	-203.09
608.856	-364.88
609.058	5.8
609.26	177.83
609.462	-67.92
609.664	-244.05
609.866	624.29
610.067	335.53
610.269	-33.11
610.471	-131.41
610.673	11.95
610.875	233.13
611.077	-323.92
611.278	-69.97
611.48	116.39
611.682	525.99
611.884	-100.69
612.085	-160.08
612.287	-135.51
612.489	286.37
612.69	-354.64
612.892	-155.99
613.094	323.24
613.295	267.94
613.497	-209.23
613.699	-80.21
613.9	505.51
614.102	257.7
614.304	-158.03
614.505	-270.67
614.707	91.82
614.908	-6.49
615.11	-377.17
615.311	-201.04
615.513	292.52
615.714	286.37
615.916	-276.82
616.117	-137.56
616.319	91.82
616.52	282.28
616.722	-211.28
616.923	-203.09
617.124	329.38
617.326	247.46
617.527	-106.84
617.729	13.99
617.93	235.18
618.131	317.09
618.333	-164.18
618.534	-115.03
618.735	-115.03
618.937	497.32
619.138	-256.34
619.339	-190.8
619.54	290.47
619.742	22.19
619.943	1.71
620.144	-80.21
620.345	280.23
620.546	403.11
620.748	-225.62
620.949	-219.47
621.15	122.54
621.351	145.06
621.552	-190.8
621.753	-317.78
621.954	-260.43
622.155	558.75
622.356	-229.71
622.558	-104.79
622.759	87.72
622.96	513.7
623.161	-121.17
623.362	-121.17
623.563	118.44
623.764	134.82
623.965	-117.08
624.166	102.06
624.366	77.48
624.567	212.65
624.768	-405.84
624.969	-207.19
625.17	38.57
625.371	415.4
625.572	-84.31
625.773	-262.48
625.973	415.4
626.174	239.27
626.375	-108.88
626.576	-72.02
626.777	333.48
626.977	624.29
627.178	-145.75
627.379	-158.03
627.58	73.39
627.78	181.93
627.981	-115.03
628.182	-96.6
628.382	364.2
628.583	-223.57
628.784	-207.19
628.984	34.47
629.185	321.19
629.386	255.65
629.586	-168.27
629.787	-235.86
629.987	282.28
630.188	67.24
630.388	-110.93
630.589	-61.78
630.79	714.4
630.99	30.38
631.191	-35.16
631.391	34.47
631.591	319.14
631.792	546.47
631.992	38.57
632.193	-186.71
632.393	612
632.594	145.06
632.794	-209.23
632.994	-18.77
633.195	183.98
633.395	181.93
633.595	-217.43
633.796	71.34
633.996	9.9
634.196	392.87
634.397	-301.39
634.597	-20.82
634.797	-22.87
634.997	530.08
635.198	89.77
635.398	-248.15
635.598	143.02
635.798	417.44
635.998	226.98
636.199	-184.66
636.399	18.09
636.599	-104.79
636.799	-127.32
636.999	214.7
637.199	280.23
637.399	380.58
637.599	-170.32
637.799	50.86
637.999	-43.35
638.199	575.14
638.399	-272.72
638.599	-198.99
638.799	280.23
638.999	560.8
639.199	-2.39
639.399	-37.2
639.599	476.84
639.799	-88.4
639.999	-158.03
640.199	-248.15
640.399	202.41
640.599	327.33
640.799	-115.03
640.998	124.58
641.198	497.32
641.398	265.89
641.598	-76.12
641.798	-92.5
641.997	978.59
642.197	140.97
642.397	73.39
642.597	-84.31
642.796	298.66
642.996	401.06
643.196	50.86
643.395	-198.99
643.595	304.81
643.795	-223.57
643.994	-149.84
644.194	-112.98
644.394	368.29
644.593	280.23
644.793	-248.15
644.992	-55.64
645.192	255.65
645.392	-291.15
645.591	42.67
645.791	-24.92
645.99	329.38
646.19	95.91
646.389	-59.73
646.589	-100.69
646.788	323.24
646.987	343.72
647.187	171.69
647.386	93.87
647.586	81.58
647.785	452.26
647.984	-41.3
648.184	-98.64
648.383	50.86
648.582	24.23
648.782	-84.31
648.981	97.96
649.18	-49.49
649.38	194.22
649.579	-67.92
649.778	-158.03
649.977	351.91
650.177	235.18
650.376	-90.45
650.575	-137.56
650.774	513.7
650.973	-43.35
651.173	-219.47
651.372	-72.02
651.571	269.99
651.77	341.67
651.969	-51.54
652.168	-2.39
652.367	-78.16
652.566	259.75
652.765	-153.94
652.964	149.16
653.163	681.63
653.362	126.63
653.561	-76.12
653.76	-106.84
653.959	79.53
654.158	313
654.357	143.02
654.556	-37.2
654.755	319.14
654.954	284.33
655.153	-35.16
655.352	26.28
655.551	456.36
655.749	40.62
655.948	32.43
656.147	-26.96
656.346	222.89
656.545	143.02
656.743	-74.07
656.942	11.95
657.141	153.26
657.34	-55.64
657.538	-37.2
657.737	-41.3
657.936	83.63
658.135	257.7
658.333	-88.4
658.532	71.34
658.731	571.04
658.929	476.84
659.128	282.28
659.326	-227.67
659.525	462.5
659.724	214.7
659.922	-293.2
660.121	-186.71
660.319	200.36
660.518	7.85
660.716	-176.47
660.915	-100.69
661.113	413.35
661.312	-67.92
661.51	-49.49
661.709	-155.99
661.907	288.42
662.105	523.94
662.304	-92.5
662.502	-94.55
662.701	427.68
662.899	106.15
663.097	282.28
663.296	-268.63
663.494	431.78
663.692	603.81
663.891	-135.51
664.089	-168.27
664.287	321.19
664.485	530.08
664.684	-121.17
664.882	18.09
665.08	157.35
665.278	157.35
665.476	-160.08
665.675	222.89
665.873	695.97
666.071	433.83
666.269	-176.47
666.467	257.7
666.665	261.8
666.863	167.59
667.061	63.15
667.259	-39.25
667.457	212.65
667.655	276.13
667.853	-289.1
668.051	48.81
668.249	18.09
668.447	272.04
668.645	-121.17
668.843	143.02
669.041	335.53
669.239	50.86
669.437	112.3
669.635	69.29
669.833	75.43
670.031	401.06
670.229	71.34
670.426	-0.34
670.624	91.82
670.822	54.95
671.02	-57.68
671.218	-18.77
671.415	-86.36
671.613	186.02
671.811	110.25
672.009	-2.39
672.206	364.2
672.404	198.31
672.602	210.6
672.799	24.23
672.997	278.18
673.195	427.68
673.392	116.39
673.59	-192.85
673.788	370.34
673.985	-295.25
674.183	54.95
674.38	-51.54
674.578	362.15
674.775	-84.31
674.973	-123.22
675.17	-141.65
675.368	495.27
675.565	288.42
675.763	-67.92
675.96	-39.25
676.158	405.16
676.355	159.4
676.553	-31.06
676.75	-39.25
676.947	161.45
677.145	140.97
677.342	73.39
677.539	65.19
677.737	269.99
677.934	695.97
678.131	52.91
678.329	-14.68
678.526	573.09
678.723	351.91
678.92	89.77
679.118	16.04
679.315	-78.16
679.512	485.03
679.709	-49.49
679.906	57
680.104	437.92
680.301	130.73
680.498	-59.73
680.695	-45.4
680.892	20.14
681.089	26.28
681.286	118.44
681.483	-115.03
681.68	343.72
681.877	394.92
682.075	-35.16
682.272	167.59
682.469	294.57
682.665	97.96
682.862	-112.98
683.059	-213.33
683.256	251.56
683.453	196.26
683.65	155.3
683.847	-102.74
684.044	126.63
684.241	-0.34
684.438	120.49
684.635	-158.03
684.831	616.1
685.028	706.21
685.225	-67.92
685.422	237.22
685.619	81.58
685.815	235.18
686.012	-37.2
686.209	-0.34
686.405	-55.64
686.602	429.73
686.799	-196.95
686.996	-119.12
687.192	-18.77
687.389	634.53
687.586	-18.77
687.782	-24.92
687.979	589.47
688.175	472.74
688.372	110.25
688.568	-72.02
688.765	38.57
688.962	523.94
689.158	157.35
689.355	-227.67
689.551	351.91
689.748	122.54
689.944	85.67
690.14	-121.17
690.337	392.87
690.533	79.53
690.73	177.83
690.926	54.95
691.123	306.85
691.319	108.2
691.515	-174.42
691.712	226.98
691.908	372.39
692.104	325.29
692.301	198.31
692.497	-119.12
692.693	419.49
692.889	399.01
693.086	120.49
693.282	-155.99
693.478	120.49
693.674	693.92
693.87	71.34
694.067	-102.74
694.263	345.77
694.459	220.84
694.655	218.79
694.851	69.29
695.047	370.34
695.243	384.68
695.439	116.39
695.635	-39.25
695.831	403.11
696.027	226.98
696.224	-35.16
696.42	323.24
696.615	589.47
696.811	382.63
697.007	-123.22
697.203	13.99
697.399	229.03
697.595	540.32
697.791	-67.92
697.987	132.78
698.183	-135.51
698.379	36.52
698.575	52.91
698.77	-37.2
698.966	409.25
699.162	464.55
699.358	104.11
699.554	30.38
699.749	364.2
699.945	431.78
700.141	93.87
700.337	136.87
700.532	112.3
700.728	1.71
700.924	-84.31
701.119	-84.31
701.315	444.07
701.511	106.15
701.706	46.76
701.902	-168.27
702.097	214.7
702.293	407.2
702.489	54.95
702.684	-59.73
702.88	136.87
703.075	93.87
703.271	-4.44
703.466	-76.12
703.662	161.45
703.857	335.53
704.053	54.95
704.248	-29.01
704.443	390.82
704.639	282.28
704.834	40.62
705.03	-108.88
705.225	370.34
705.42	435.88
705.616	198.31
705.811	1.71
706.006	192.17
706.202	138.92
706.397	91.82
706.592	-59.73
706.787	214.7
706.983	300.71
707.178	325.29
707.373	134.82
707.568	360.1
707.763	540.32
707.959	-53.59
708.154	-14.68
708.349	276.13
708.544	411.3
708.739	218.79
708.934	-80.21
709.129	413.35
709.324	530.08
709.519	-20.82
709.714	-86.36
709.909	485.03
710.104	425.64
710.299	75.43
710.494	44.71
710.689	399.01
710.884	259.75
711.079	212.65
711.274	319.14
711.469	308.9
711.664	325.29
711.859	24.23
712.054	132.78
712.249	439.97
712.443	478.88
712.638	-51.54
712.833	-139.6
713.028	255.65
713.223	192.17
713.417	339.62
713.612	-82.26
713.807	452.26
714.002	777.89
714.196	226.98
714.391	89.77
714.586	439.97
714.78	165.54
714.975	32.43
715.17	-18.77
715.364	83.63
715.559	521.89
715.754	-190.8
715.948	-41.3
716.143	736.93
716.337	276.13
716.532	263.85
716.726	-74.07
716.921	448.16
717.115	718.5
717.31	-180.56
717.504	509.6
717.699	100.01
717.893	415.4
718.088	-49.49
718.282	-125.27
718.476	313
718.671	331.43
718.865	-37.2
719.059	67.24
719.254	294.57
719.448	632.48
719.642	1244.82
719.837	-129.36
720.031	437.92
720.225	628.39
720.419	169.64
720.614	-24.92
720.808	513.7
721.002	298.66
721.196	32.43
721.39	44.71
721.585	640.67
721.779	356.01
721.973	52.91
722.167	-110.93
722.361	337.57
722.555	497.32
722.749	67.24
722.943	-2.39
723.137	46.76
723.331	456.36
723.525	9.9
723.719	-14.68
723.913	480.93
724.107	579.23
724.301	-20.82
724.495	116.39
724.689	718.5
724.883	612
725.077	20.14
725.271	-8.53
725.465	534.18
725.659	261.8
725.853	149.16
726.046	-131.41
726.24	169.64
726.434	480.93
726.628	48.81
726.822	7.85
727.015	478.88
727.209	507.55
727.403	140.97
727.596	-168.27
727.79	423.59
727.984	433.83
728.177	-18.77
728.371	130.73
728.565	587.43
728.758	22.19
728.952	-115.03
729.146	-59.73
729.339	548.51
729.533	208.55
729.726	-0.34
729.92	-55.64
730.113	538.27
730.307	261.8
730.5	-104.79
730.694	30.38
730.887	224.94
731.081	384.68
731.274	-112.98
731.468	89.77
731.661	222.89
731.854	132.78
732.048	85.67
732.241	-59.73
732.435	151.21
732.628	284.33
732.821	61.1
733.014	13.99
733.208	-14.68
733.401	411.3
733.594	69.29
733.788	-35.16
733.981	648.86
734.174	300.71
734.367	-55.64
734.56	153.26
734.754	464.55
734.947	284.33
735.14	-26.96
735.333	9.9
735.526	444.07
735.719	71.34
735.912	-55.64
736.105	-41.3
736.298	245.41
736.491	288.42
736.684	-0.34
736.877	28.33
737.07	364.2
737.263	624.29
737.456	9.9
737.649	-47.44
737.842	214.7
738.035	255.65
738.228	59.05
738.421	198.31
738.614	542.37
738.807	405.16
739	-96.6
739.192	-74.07
739.385	341.67
739.578	429.73
739.771	302.76
739.964	-0.34
740.156	358.05
740.349	235.18
740.542	192.17
740.735	-51.54
740.927	77.48
741.12	-22.87
741.313	-18.77
741.505	87.72
741.698	333.48
741.891	417.44
742.083	222.89
742.276	65.19
742.468	218.79
742.661	269.99
742.854	67.24
743.046	-18.77
743.239	732.83
743.431	313
743.624	22.19
743.816	-162.13
744.009	218.79
744.201	349.86
744.393	239.27
744.586	-92.5
744.778	558.75
744.971	212.65
745.163	136.87
745.355	163.5
745.548	249.51
745.74	63.15
745.932	165.54
746.125	40.62
746.317	841.37
746.509	372.39
746.702	7.85
746.894	171.69
747.086	339.62
747.278	525.99
747.471	118.44
747.663	106.15
747.855	333.48
748.047	655.01
748.239	-43.35
748.431	-55.64
748.623	626.34
748.815	683.68
749.008	-49.49
749.2	-59.73
749.392	396.96
749.584	462.5
749.776	114.34
749.968	143.02
750.16	786.08
750.352	253.61
750.544	120.49
750.736	-6.49
750.928	448.16
751.12	245.41
751.311	61.1
751.503	65.19
751.695	405.16
751.887	386.72
752.079	-166.23
752.271	-59.73
752.463	1058.46
752.654	515.75
752.846	126.63
753.038	44.71
753.23	210.6
753.421	425.64
753.613	34.47
753.805	222.89
753.997	462.5
754.188	480.93
754.38	26.28
754.572	54.95
754.763	317.09
754.955	335.53
755.146	57
755.338	140.97
755.53	411.3
755.721	251.56
755.913	-104.79
756.104	-57.68
756.296	196.26
756.487	456.36
756.679	-43.35
756.87	69.29
757.062	186.02
757.253	439.97
757.445	87.72
757.636	206.5
757.827	177.83
758.019	837.28
758.21	-16.73
758.401	95.91
758.593	808.61
758.784	568.99
758.975	-80.21
759.167	-53.59
759.358	304.81
759.549	497.32
759.74	24.23
759.932	52.91
760.123	562.85
760.314	116.39
760.505	145.06
760.696	61.1
760.888	646.82
761.079	140.97
761.27	-4.44
761.461	-112.98
761.652	626.34
761.843	251.56
762.034	153.26
762.225	331.43
762.416	222.89
762.607	263.85
762.798	87.72
762.989	48.81
763.18	1089.18
763.371	269.99
763.562	-2.39
763.753	83.63
763.944	530.08
764.135	573.09
764.326	132.78
764.517	104.11
764.708	302.76
764.899	417.44
765.089	5.8
765.28	-84.31
765.471	345.77
765.662	472.74
765.853	77.48
766.043	-98.64
766.234	558.75
766.425	532.13
766.615	110.25
766.806	-86.36
766.997	579.23
767.187	366.25
767.378	-20.82
767.569	-72.02
767.759	335.53
767.95	263.85
768.141	169.64
768.331	-37.2
768.522	188.07
768.712	423.59
768.903	-69.97
769.093	-72.02
769.284	718.5
769.474	296.61
769.665	-203.09
769.855	-180.56
770.046	372.39
770.236	196.26
770.426	226.98
770.617	-88.4
770.807	392.87
770.998	235.18
771.188	212.65
771.378	-43.35
771.569	489.12
771.759	380.58
771.949	-108.88
772.139	-166.23
772.33	360.1
772.52	550.56
772.71	-90.45
772.9	-98.64
773.09	634.53
773.281	614.05
773.471	-24.92
773.661	36.52
773.851	546.47
774.041	169.64
774.231	-117.08
774.421	179.88
774.611	605.86
774.802	239.27
774.992	32.43
775.182	-22.87
775.372	267.94
775.562	554.66
775.752	-26.96
775.942	50.86
776.131	616.1
776.321	423.59
776.511	16.04
776.701	-147.8
776.891	550.56
777.081	40.62
777.271	93.87
777.461	-53.59
777.651	425.64
777.84	554.66
778.03	175.78
778.22	145.06
778.41	587.43
778.599	100.01
778.789	100.01
778.979	-80.21
779.169	378.53
779.358	372.39
779.548	280.23
779.738	-129.36
779.927	313
780.117	54.95
780.307	145.06
780.496	-188.75
780.686	407.2
780.875	812.7
781.065	-18.77
781.254	87.72
781.444	329.38
781.633	370.34
781.823	-96.6
782.012	-49.49
782.202	251.56
782.391	210.6
782.581	-59.73
782.77	116.39
782.96	515.75
783.149	249.51
783.338	50.86
783.528	-162.13
783.717	521.89
783.906	552.61
784.096	118.44
784.285	-72.02
784.474	87.72
784.663	87.72
784.853	63.15
785.042	50.86
785.231	194.22
785.42	573.09
785.61	173.74
785.799	-84.31
785.988	200.36
786.177	237.22
786.366	42.67
786.555	179.88
786.744	517.79
786.933	272.04
787.122	-37.2
787.312	-110.93
787.501	138.92
787.69	376.48
787.879	75.43
788.068	-59.73
788.257	26.28
788.445	134.82
788.634	65.19
788.823	-102.74
789.012	874.14
789.201	589.47
789.39	83.63
789.579	-26.96
789.768	214.7
789.957	304.81
790.145	-55.64
790.334	-297.3
790.523	169.64
790.712	235.18
790.9	46.76
791.089	-125.27
791.278	495.27
791.467	349.86
791.655	218.79
791.844	425.64
792.033	175.78
792.221	231.08
792.41	-31.06
792.599	-123.22
792.787	327.33
792.976	489.12
793.164	-151.89
793.353	-16.73
793.541	525.99
793.73	442.02
793.918	54.95
794.107	67.24
794.295	294.57
794.484	278.18
794.672	40.62
794.861	-10.58
795.049	343.72
795.238	732.83
795.426	-225.62
795.614	67.24
795.803	317.09
795.991	616.1
796.179	22.19
796.368	-31.06
796.556	661.15
796.744	38.57
796.932	1.71
797.121	-112.98
797.309	308.9
797.497	415.4
797.685	100.01
797.874	-18.77
798.062	245.41
798.25	648.86
798.438	-43.35
798.626	5.8
798.814	386.72
799.002	792.22
799.19	177.83
799.378	108.2
799.566	585.38
799.755	634.53
799.943	145.06
800.131	-57.68
800.318	222.89
800.506	386.72
800.694	20.14
800.882	214.7
801.07	661.15
801.258	226.98
801.446	-10.58
801.634	-10.58
801.822	362.15
802.01	186.02
802.197	1.71
802.385	118.44
802.573	310.95
802.761	59.05
802.949	57
803.136	-115.03
803.324	532.13
803.512	300.71
803.699	136.87
803.887	-207.19
804.075	566.95
804.262	173.74
804.45	-86.36
804.638	120.49
804.825	106.15
805.013	177.83
805.201	26.28
805.388	-139.6
805.576	175.78
805.763	622.24
805.951	18.09
806.138	157.35
806.326	736.93
806.513	433.83
806.701	67.24
806.888	-41.3
807.075	323.24
807.263	695.97
807.45	-174.42
807.638	161.45
807.825	716.45
808.012	446.12
808.2	91.82
808.387	134.82
808.574	413.35
808.761	663.2
808.949	-106.84
809.136	110.25
809.323	151.21
809.51	198.31
809.698	356.01
809.885	153.26
810.072	300.71
810.259	456.36
810.446	128.68
810.633	-72.02
810.82	624.29
811.008	700.06
811.195	140.97
811.382	9.9
811.569	222.89
811.756	13.99
811.943	63.15
812.13	26.28
812.317	181.93
812.504	161.45
812.691	134.82
812.878	132.78
813.064	593.57
813.251	349.86
813.438	-61.78
813.625	149.16
813.812	241.32
813.999	38.57
814.186	46.76
814.372	134.82
814.559	263.85
814.746	542.37
814.933	57
815.12	245.41
815.306	75.43
815.493	75.43
815.68	3.75
815.866	24.23
816.053	560.8
816.24	767.65
816.426	44.71
816.613	-55.64
816.799	480.93
816.986	487.08
817.173	-43.35
817.359	30.38
817.546	306.85
817.732	-24.92
817.919	-219.47
818.105	183.98
818.292	206.5
818.478	319.14
818.665	206.5
818.851	-16.73
819.037	816.8
819.224	167.59
819.41	-57.68
819.597	36.52
819.783	738.98
819.969	394.92
820.156	26.28
820.342	-78.16
820.528	1007.26
820.714	274.09
820.901	267.94
821.087	22.19
821.273	669.34
821.459	186.02
821.646	-90.45
821.832	-115.03
822.018	306.85
822.204	403.11
822.39	32.43
822.576	-117.08
822.762	487.08
822.948	349.86
823.134	190.12
823.32	95.91
823.507	46.76
823.693	310.95
823.879	435.88
824.065	-8.53
824.25	392.87
824.436	104.11
824.622	44.71
824.808	-63.83
824.994	126.63
825.18	73.39
825.366	-29.01
825.552	-0.34
825.738	145.06
825.923	521.89
826.109	317.09
826.295	-67.92
826.481	167.59
826.667	218.79
826.852	194.22
827.038	-16.73
827.224	568.99
827.409	710.3
827.595	-168.27
827.781	286.37
827.966	583.33
828.152	501.41
828.338	75.43
828.523	-106.84
828.709	243.37
828.894	626.34
829.08	54.95
829.266	-29.01
829.451	173.74
829.637	515.75
829.822	177.83
830.008	-43.35
830.193	489.12
830.378	554.66
830.564	65.19
830.749	-76.12
830.935	360.1
831.12	505.51
831.305	7.85
831.491	169.64
831.676	-20.82
831.861	513.7
832.047	75.43
832.232	-6.49
832.417	523.94
832.602	282.28
832.788	26.28
832.973	-22.87
833.158	177.83
833.343	323.24
833.528	140.97
833.714	173.74
833.899	448.16
834.084	687.78
834.269	284.33
834.454	75.43
834.639	466.6
834.824	317.09
835.009	67.24
835.194	214.7
835.379	464.55
835.564	644.77
835.749	126.63
835.934	-29.01
836.119	499.36
836.304	280.23
836.489	-22.87
836.674	284.33
836.859	159.4
837.044	530.08
837.228	69.29
837.413	-10.58
837.598	388.77
837.783	599.71
837.968	5.8
838.152	-160.08
838.337	-76.12
838.522	605.86
838.707	431.78
838.891	315.05
839.076	349.86
839.261	478.88
839.445	42.67
839.63	143.02
839.815	800.41
839.999	259.75
840.184	54.95
840.368	57
840.553	609.95
840.737	517.79
840.922	32.43
841.106	-35.16
841.291	87.72
841.475	353.96
841.66	9.9
841.844	75.43
842.029	1005.21
842.213	20.14
842.397	104.11
842.582	-135.51
842.766	554.66
842.951	591.52
843.135	75.43
843.319	-8.53
843.504	310.95
843.688	568.99
843.872	-102.74
844.056	-110.93
844.241	439.97
844.425	325.29
844.609	288.42
844.793	-188.75
844.977	507.55
845.161	419.49
845.346	-104.79
845.53	32.43
845.714	204.46
845.898	665.25
846.082	-104.79
846.266	22.19
846.45	313
846.634	403.11
846.818	24.23
847.002	128.68
847.186	419.49
847.37	18.09
847.554	-92.5
847.738	157.35
847.922	353.96
848.106	358.05
848.29	-43.35
848.473	-65.88
848.657	511.65
848.841	255.65
849.025	34.47
849.209	-190.8
849.392	448.16
849.576	132.78
849.76	-158.03
849.944	161.45
850.127	667.3
850.311	71.34
850.495	-106.84
850.678	-90.45
850.862	632.48
851.046	738.98
851.229	259.75
851.413	-80.21
851.596	241.32
851.78	218.79
851.964	186.02
852.147	155.3
852.331	1042.07
852.514	628.39
852.698	128.68
852.881	-104.79
853.065	585.38
853.248	315.05
853.431	190.12
853.615	188.07
853.798	837.28
853.982	382.63
854.165	247.46
854.348	42.67
854.532	30.38
854.715	202.41
854.898	147.11
855.081	200.36
855.265	638.62
855.448	751.26
855.631	-59.73
855.814	26.28
855.997	595.62
856.181	245.41
856.364	116.39
856.547	-121.17
856.73	411.3
856.913	366.25
857.096	-31.06
857.279	138.92
857.462	253.61
857.645	456.36
857.828	218.79
858.011	161.45
858.194	194.22
858.377	470.69
858.56	-18.77
858.743	120.49
858.926	63.15
859.109	396.96
859.292	13.99
859.475	-145.75
859.658	612
859.841	423.59
860.023	-117.08
860.206	-18.77
860.389	337.57
860.572	718.5
860.755	130.73
860.937	102.06
861.12	269.99
861.303	233.13
861.486	114.34
861.668	-39.25
861.851	583.33
862.034	304.81
862.216	151.21
862.399	-112.98
862.581	442.02
862.764	724.64
862.947	87.72
863.129	38.57
863.312	63.15
863.494	698.02
863.677	390.82
863.859	-125.27
864.042	517.79
864.224	704.16
864.406	177.83
864.589	-125.27
864.771	384.68
864.954	87.72
865.136	-59.73
865.318	-112.98
865.501	431.78
865.683	-121.17
865.865	22.19
866.048	30.38
866.23	337.57
866.412	339.62
866.594	-47.44
866.777	153.26
866.959	464.55
867.141	179.88
867.323	315.05
867.505	253.61
867.687	313
867.869	265.89
868.052	169.64
868.234	-88.4
868.416	337.57
868.598	448.16
868.78	18.09
868.962	-125.27
869.144	612
869.326	525.99
869.508	-67.92
869.69	-4.44
869.872	102.06
870.054	458.4
870.236	5.8
870.417	-10.58
870.599	267.94
870.781	757.41
870.963	155.3
871.145	-29.01
871.327	161.45
871.508	519.84
871.69	30.38
871.872	87.72
872.054	259.75
872.235	372.39
872.417	136.87
872.599	9.9
872.78	599.71
872.962	405.16
873.144	-0.34
873.325	100.01
873.507	626.34
873.689	298.66
873.87	-92.5
874.052	165.54
874.233	325.29
874.415	528.03
874.596	104.11
874.778	-41.3
874.959	294.57
875.141	462.5
875.322	145.06
875.503	1.71
875.685	386.72
875.866	-117.08
876.048	-133.46
876.229	-123.22
876.41	292.52
876.592	392.87
876.773	-16.73
876.954	-94.55
877.136	661.15
877.317	143.02
877.498	-137.56
877.679	85.67
877.86	517.79
878.042	302.76
878.223	-18.77
878.404	204.46
878.585	493.22
878.766	747.17
878.947	347.81
879.128	255.65
879.309	450.21
879.49	534.18
879.672	104.11
879.853	190.12
880.034	116.39
880.215	165.54
880.396	155.3
880.576	87.72
880.757	124.58
880.938	568.99
881.119	-108.88
881.3	44.71
881.481	132.78
881.662	1132.19
881.843	-74.07
882.023	-94.55
882.204	485.03
882.385	317.09
882.566	42.67
882.747	-82.26
882.927	284.33
883.108	341.67
883.289	-8.53
883.469	257.7
883.65	110.25
883.831	392.87
884.011	269.99
884.192	13.99
884.373	480.93
884.553	356.01
884.734	138.92
884.914	259.75
885.095	927.39
885.275	661.15
885.456	331.43
885.636	-121.17
885.817	253.61
885.997	308.9
886.178	-2.39
886.358	65.19
886.538	343.72
886.719	1259.16
886.899	-55.64
887.08	97.96
887.26	599.71
887.44	100.01
887.621	-82.26
887.801	118.44
887.981	824.99
888.161	493.22
888.342	134.82
888.522	34.47
888.702	513.7
888.882	591.52
889.062	147.11
889.242	-194.9
889.423	583.33
889.603	470.69
889.783	163.5
889.963	38.57
890.143	503.46
890.323	573.09
890.503	81.58
890.683	63.15
890.863	337.57
891.043	444.07
891.223	190.12
891.403	263.85
891.583	349.86
891.763	347.81
891.943	194.22
892.122	32.43
892.302	321.19
892.482	370.34
892.662	231.08
892.842	67.24
893.022	370.34
893.201	132.78
893.381	186.02
893.561	-35.16
893.741	513.7
893.92	437.92
894.1	75.43
894.28	126.63
894.459	536.23
894.639	417.44
894.819	50.86
894.998	155.3
895.178	302.76
895.357	448.16
895.537	89.77
895.716	-51.54
895.896	284.33
896.075	624.29
896.255	69.29
896.434	-63.83
896.614	513.7
896.793	712.35
896.973	226.98
897.152	100.01
897.331	464.55
897.511	579.23
897.69	-112.98
897.87	208.55
898.049	562.85
898.228	376.48
898.407	214.7
898.587	204.46
898.766	106.15
898.945	636.58
899.124	417.44
899.304	126.63
899.483	431.78
899.662	831.13
899.841	38.57
900.02	67.24
900.199	607.91
900.378	378.53
900.557	18.09
900.737	-6.49
900.916	525.99
901.095	593.57
901.274	341.67
901.453	-45.4
901.632	286.37
901.811	226.98
901.989	130.73
902.168	-96.6
902.347	478.88
902.526	216.74
902.705	63.15
902.884	122.54
903.063	620.19
903.242	681.63
903.42	-63.83
903.599	157.35
903.778	632.48
903.957	628.39
904.135	198.31
904.314	218.79
904.493	435.88
904.672	472.74
904.85	202.41
905.029	57
905.207	456.36
905.386	1005.21
905.565	22.19
905.743	79.53
905.922	186.02
906.1	575.14
906.279	5.8
906.457	1.71
906.636	229.03
906.814	325.29
906.993	91.82
907.171	7.85
907.35	595.62
907.528	485.03
907.707	192.17
907.885	-8.53
908.063	777.89
908.242	130.73
908.42	81.58
908.598	-88.4
908.777	566.95
908.955	259.75
909.133	153.26
909.311	-0.34
909.49	226.98
909.668	327.33
909.846	120.49
910.024	-53.59
910.202	286.37
910.38	386.72
910.559	-92.5
910.737	30.38
910.915	358.05
911.093	429.73
911.271	3.75
911.449	253.61
911.627	374.44
911.805	853.66
911.983	118.44
912.161	52.91
912.339	335.53
912.517	579.23
912.695	118.44
912.872	243.37
913.05	214.7
913.228	599.71
913.406	165.54
913.584	83.63
913.762	519.84
913.939	284.33
914.117	36.52
914.295	-49.49
914.473	462.5
914.65	415.4
914.828	214.7
915.006	73.39
915.184	79.53
915.361	335.53
915.539	214.7
915.716	265.89
915.894	425.64
916.072	552.61
916.249	325.29
916.427	186.02
916.604	34.47
916.782	458.4
916.959	30.38
917.137	69.29
917.314	401.06
917.492	476.84
917.669	157.35
917.847	218.79
918.024	460.45
918.201	175.78
918.379	181.93
918.556	136.87
918.733	493.22
918.911	351.91
919.088	284.33
919.265	71.34
919.442	360.1
919.62	308.9
919.797	9.9
919.974	-4.44
920.151	325.29
920.328	325.29
920.506	108.2
920.683	253.61
920.86	183.98
921.037	104.11
921.214	173.74
921.391	85.67
921.568	589.47
921.745	169.64
921.922	138.92
922.099	9.9
922.276	575.14
922.453	450.21
922.63	-18.77
922.807	388.77
922.984	392.87
923.161	222.89
923.338	100.01
923.514	83.63
923.691	317.09
923.868	476.84
924.045	116.39
924.222	-33.11
924.399	403.11
924.575	579.23
924.752	104.11
924.929	190.12
925.105	497.32
925.282	200.36
925.459	122.54
925.635	97.96
925.812	249.51
925.989	212.65
926.165	118.44
926.342	-90.45
926.518	206.5
926.695	259.75
926.871	77.48
927.048	-51.54
927.224	464.55
927.401	229.03
927.577	110.25
927.754	-117.08
927.93	622.24
928.107	476.84
928.283	-55.64
928.459	194.22
928.636	468.64
928.812	255.65
928.988	52.91
929.165	-45.4
929.341	288.42
929.517	403.11
929.693	458.4
929.87	-84.31
930.046	427.68
930.222	183.98
930.398	24.23
930.574	186.02
930.751	323.24
930.927	231.08
931.103	24.23
931.279	132.78
931.455	136.87
931.631	313
931.807	-162.13
931.983	-88.4
932.159	42.67
932.335	421.54
932.511	226.98
932.687	91.82
932.863	413.35
933.039	335.53
933.215	-31.06
933.391	-51.54
933.566	130.73
933.742	329.38
933.918	54.95
934.094	-139.6
934.27	267.94
934.445	353.96
934.621	114.34
934.797	5.8
934.973	478.88
935.148	368.29
935.324	-24.92
935.5	-174.42
935.675	501.41
935.851	403.11
936.027	91.82
936.202	153.26
936.378	417.44
936.553	286.37
936.729	470.69
936.904	-33.11
937.08	-6.49
937.255	110.25
937.431	-37.2
937.606	36.52
937.782	245.41
937.957	255.65
938.133	147.11
938.308	-51.54
938.483	263.85
938.659	83.63
938.834	231.08
939.009	-22.87
939.185	208.55
939.36	28.33
939.535	-313.68
939.71	165.54
939.886	446.12
940.061	380.58
940.236	134.82
940.411	34.47
940.586	343.72
940.761	468.64
940.937	75.43
941.112	-59.73
941.287	302.76
941.462	294.57
941.637	-162.13
941.812	3.75
941.987	327.33
942.162	173.74
942.337	132.78
942.512	-2.39
942.687	452.26
942.862	474.79
943.037	-149.84
943.212	-328.02
943.386	194.22
943.561	302.76
943.736	237.22
943.911	313
944.086	413.35
944.26	296.61
944.435	-26.96
944.61	75.43
944.785	487.08
944.959	562.85
945.134	-6.49
945.309	-108.88
945.483	91.82
945.658	435.88
945.833	-282.96
946.007	-133.46
946.182	648.86
946.357	-76.12
946.531	-100.69
946.706	-86.36
946.88	-153.94
947.055	284.33
947.229	-110.93
947.404	-100.69
947.578	421.54
947.752	155.3
947.927	-117.08
948.101	-139.6
948.276	212.65
948.45	214.7
948.624	171.69
948.799	-10.58
948.973	224.94
949.147	-39.25
949.321	52.91
949.496	-43.35
949.67	390.82
949.844	104.11
950.018	-16.73
950.193	-29.01
950.367	755.36
950.541	69.29
950.715	48.81
950.889	30.38
951.063	-2.39
951.237	339.62
951.411	-319.82
951.585	-203.09
951.759	288.42
951.933	161.45
952.107	-92.5
952.281	63.15
952.455	521.89
952.629	394.92
952.803	-26.96
952.977	-133.46
953.151	362.15
953.325	306.85
953.499	38.57
953.672	-225.62
953.846	-16.73
954.02	97.96
954.194	-182.61
954.368	-63.83
954.541	263.85
954.715	-22.87
954.889	-39.25
955.062	-158.03
955.236	145.06
955.41	112.3
955.583	167.59
955.757	-262.48
955.93	5.8
956.104	-61.78
956.278	-80.21
956.451	-131.41
956.625	179.88
956.798	530.08
956.972	145.06
957.145	-158.03
957.319	116.39
957.492	155.3
957.665	104.11
957.839	-180.56
958.012	226.98
958.185	-24.92
958.359	-35.16
958.532	212.65
958.705	300.71
958.879	265.89
959.052	-29.01
959.225	-319.82
959.398	149.16
959.572	265.89
959.745	-63.83
959.918	7.85
960.091	87.72
960.264	294.57
960.438	-121.17
960.611	-141.65
960.784	329.38
960.957	-6.49
961.13	300.71
961.303	-190.8
961.476	122.54
961.649	405.16
961.822	-242
961.995	-10.58
962.168	280.23
962.341	147.11
962.514	-43.35
962.686	-102.74
962.859	147.11
963.032	282.28
963.205	-98.64
963.378	-219.47
963.551	288.42
963.723	169.64
963.896	-2.39
964.069	63.15
964.242	48.81
964.414	450.21
964.587	-51.54
964.76	-18.77
964.932	261.8
965.105	210.6
965.278	24.23
965.45	-112.98
965.623	155.3
965.795	343.72
965.968	-117.08
966.14	-43.35
966.313	157.35
966.485	237.22
966.658	-31.06
966.83	-168.27
967.003	341.67
967.175	399.01
967.348	-43.35
967.52	-84.31
967.692	495.27
967.865	263.85
968.037	-67.92
968.209	202.41
968.382	91.82
968.554	415.4
968.726	-22.87
968.898	-160.08
969.071	218.79
969.243	222.89
969.415	-37.2
969.587	5.8
969.759	640.67
969.932	358.05
970.104	46.76
970.276	-272.72
970.448	71.34
970.62	95.91
970.792	97.96
970.964	-14.68
971.136	632.48
971.308	286.37
971.48	-139.6
971.652	-18.77
971.824	583.33
971.996	91.82
972.168	1.71
972.339	-24.92
972.511	401.06
972.683	73.39
972.855	161.45
973.027	5.8
973.199	263.85
973.37	321.19
973.542	81.58
973.714	67.24
973.886	282.28
974.057	366.25
974.229	-121.17
974.401	-112.98
974.572	-22.87
974.744	-207.19
974.915	-84.31
975.087	-155.99
975.259	566.95
975.43	38.57
975.602	-88.4
975.773	-90.45
975.945	-14.68
976.116	360.1
976.288	-117.08
976.459	81.58
976.63	54.95
976.802	229.03
976.973	-82.26
977.145	87.72
977.316	640.67
977.487	218.79
977.659	120.49
977.83	-6.49
978.001	523.94
978.172	202.41
978.344	-147.8
978.515	-67.92
978.686	75.43
978.857	550.56
979.028	-12.63
979.2	-94.55
979.371	499.36
979.542	169.64
979.713	57
979.884	-403.79
980.055	24.23
980.226	-6.49
980.397	-49.49
980.568	-225.62
980.739	476.84
980.91	85.67
981.081	69.29
981.252	-209.23
981.423	259.75
981.594	409.25
981.765	-168.27
981.936	-10.58
982.106	95.91
982.277	419.49
982.448	-123.22
982.619	106.15
982.79	40.62
982.96	421.54
983.131	69.29
983.302	-280.91
983.472	114.34
983.643	202.41
983.814	26.28
983.984	-100.69
984.155	81.58
984.326	388.77
984.496	67.24
984.667	-78.16
984.837	54.95
985.008	464.55
985.178	143.02
985.349	63.15
985.519	161.45
985.69	87.72
985.86	-12.63
986.031	-98.64
986.201	278.18
986.371	288.42
986.542	-164.18
986.712	-235.86
986.882	298.66
987.053	272.04
987.223	-153.94
987.393	79.53
987.563	1.71
987.734	366.25
987.904	192.17
988.074	-63.83
988.244	112.3
988.414	-22.87
988.585	-139.6
988.755	54.95
988.925	93.87
989.095	544.42
989.265	-158.03
989.435	22.19
989.605	323.24
989.775	237.22
989.945	186.02
990.115	-213.33
990.285	132.78
990.455	259.75
990.625	1.71
990.795	-110.93
990.965	544.42
991.134	-53.59
991.304	-147.8
991.474	-80.21
991.644	196.26
991.814	548.51
991.984	-172.37
992.153	-164.18
992.323	104.11
992.493	161.45
992.662	-289.1
992.832	22.19
993.002	116.39
993.171	245.41
993.341	-219.47
993.511	161.45
993.68	40.62
993.85	231.08
994.019	-235.86
994.189	-127.32
994.358	177.83
994.528	79.53
994.697	-336.21
994.867	-248.15
995.036	374.44
995.206	-2.39
995.375	-182.61
995.544	-18.77
995.714	304.81
995.883	100.01
996.052	-65.88
996.222	-332.11
996.391	579.23
996.56	206.5
996.73	-242
996.899	-295.25
997.068	435.88
997.237	157.35
997.406	-254.29
997.576	-260.43
997.745	91.82
997.914	210.6
998.083	-346.45
998.252	-168.27
998.421	175.78
998.59	-78.16
998.759	-293.2
998.928	-354.64
999.097	460.45
999.266	155.3
999.435	34.47
999.604	-336.21
999.773	546.47
999.942	32.43
1000.111	-256.34
1000.28	-362.83
1000.448	-141.65
1000.617	-86.36
1000.786	3.75
1000.955	-293.2
1001.124	190.12
1001.292	808.61
1001.461	-244.05
1001.63	-211.28
1001.798	427.68
1001.967	482.98
1002.136	-225.62
1002.304	-194.9
1002.473	145.06
1002.642	136.87
1002.81	-123.22
1002.979	-215.38
1003.147	204.46
1003.316	685.73
1003.484	-225.62
1003.653	-270.67
1003.821	407.2
1003.99	48.81
1004.158	-59.73
1004.327	-76.12
1004.495	259.75
1004.663	-137.56
1004.832	-10.58
1005	-305.49
1005.168	114.34
1005.337	194.22
1005.505	-289.1
1005.673	1.71
1005.842	231.08
1006.01	198.31
1006.178	-198.99
1006.346	-174.42
1006.514	290.47
1006.683	349.86
1006.851	-196.95
1007.019	-373.07
1007.187	-86.36
1007.355	-295.25
1007.523	-332.11
1007.691	-362.83
1007.859	-182.61
1008.027	358.05
1008.195	-178.51
1008.363	-317.78
1008.531	349.86
1008.699	-20.82
1008.867	-360.78
1009.035	-194.9
1009.203	446.12
1009.37	95.91
1009.538	-233.81
1009.706	192.17
1009.874	181.93
1010.042	130.73
1010.209	-348.5
1010.377	-256.34
1010.545	292.52
1010.713	132.78
1010.88	-295.25
1011.048	-147.8
1011.216	-123.22
1011.383	378.53
1011.551	-282.96
1011.718	-352.59
1011.886	343.72
1012.054	83.63
1012.221	-272.72
1012.389	-239.95
1012.556	100.01
1012.724	470.69
1012.891	-178.51
1013.058	-323.92
1013.226	226.98
1013.393	343.72
1013.561	-348.5
1013.728	-323.92
1013.895	288.42
1014.063	216.74
1014.23	-272.72
1014.397	-293.2
1014.565	274.09
1014.732	30.38
1014.899	-266.58
1015.066	-297.3
1015.233	136.87
1015.401	349.86
1015.568	-217.43
1015.735	-137.56
1015.902	100.01
1016.069	134.82
1016.236	-264.53
1016.403	-221.52
1016.57	-72.02
1016.737	392.87
1016.904	-166.23
1017.071	-340.3
1017.238	-10.58
1017.405	210.6
1017.572	-168.27
1017.739	-39.25
1017.906	188.07
1018.073	446.12
1018.24	-252.24
1018.407	-272.72
1018.573	376.48
1018.74	81.58
1018.907	-203.09
1019.074	-358.74
1019.241	372.39
1019.407	194.22
1019.574	-305.49
1019.741	-377.17
1019.907	120.49
1020.074	313
1020.241	-450.89
1020.407	-250.19
1020.574	143.02
1020.74	315.05
1020.907	-289.1
1021.073	-274.77
1021.24	616.1
1021.406	450.21
1021.573	-276.82
1021.739	-256.34
1021.906	308.9
1022.072	75.43
1022.239	-244.05
1022.405	-260.43
1022.571	153.26
1022.738	-18.77
1022.904	-278.87
1023.07	-188.75
1023.237	130.73
1023.403	325.29
1023.569	-201.04
1023.735	-151.89
1023.902	229.03
1024.068	161.45
1024.234	-317.78
1024.4	-289.1
1024.566	210.6
1024.732	321.19
1024.898	-194.9
1025.065	-448.85
1025.231	263.85
1025.397	-2.39
1025.563	-231.76
1025.729	-282.96
1025.895	-219.47
1026.061	-37.2
1026.227	-465.23
1026.392	-166.23
1026.558	349.86
1026.724	190.12
1026.89	-254.29
1027.056	-188.75
1027.222	214.7
1027.388	3.75
1027.553	-217.43
1027.719	-239.95
1027.885	513.7
1028.051	218.79
1028.216	-454.99
1028.382	-227.67
1028.548	308.9
1028.713	7.85
1028.879	-346.45
1029.045	-53.59
1029.21	335.53
1029.376	341.67
1029.541	-102.74
1029.707	-180.56
1029.873	255.65
1030.038	335.53
1030.204	-211.28
1030.369	-229.71
1030.534	321.19
1030.7	44.71
1030.865	-217.43
1031.031	-305.49
1031.196	147.11
1031.361	231.08
1031.527	-366.93
1031.692	-317.78
1031.857	-205.14
1032.023	353.96
1032.188	-375.12
1032.353	-186.71
1032.518	517.79
1032.684	216.74
1032.849	-301.39
1033.014	-143.7
1033.179	245.41
1033.344	335.53
1033.509	-172.37
1033.674	-260.43
1033.839	333.48
1034.004	304.81
1034.17	-260.43
1034.335	-424.27
1034.5	-0.34
1034.664	-10.58
1034.829	-223.57
1034.994	-233.81
1035.159	290.47
1035.324	163.5
1035.489	-223.57
1035.654	-262.48
1035.819	444.07
1035.984	218.79
1036.148	-108.88
1036.313	-278.87
1036.478	366.25
1036.643	229.03
1036.807	-272.72
1036.972	-313.68
1037.137	413.35
1037.301	186.02
1037.466	-330.06
1037.631	-108.88
1037.795	460.45
1037.96	128.68
1038.124	-72.02
1038.289	-260.43
1038.454	331.43
1038.618	319.14
1038.783	-211.28
1038.947	-112.98
1039.111	222.89
1039.276	3.75
1039.44	-223.57
1039.605	282.28
1039.769	89.77
1039.933	7.85
1040.098	-84.31
1040.262	11.95
1040.426	407.2
1040.591	337.57
1040.755	-268.63
1040.919	-274.77
1041.083	321.19
1041.248	138.92
1041.412	-342.35
1041.576	-256.34
1041.74	61.1
1041.904	374.44
1042.068	-287.06
1042.232	-201.04
1042.397	384.68
1042.561	317.09
1042.725	-319.82
1042.889	-45.4
1043.053	323.24
1043.217	327.33
1043.381	-102.74
1043.544	-342.35
1043.708	456.36
1043.872	-31.06
1044.036	-420.17
1044.2	-375.12
1044.364	476.84
1044.528	489.12
1044.691	2801.28
1044.855	-330.06
1045.019	317.09
1045.183	296.61
1045.346	-201.04
1045.51	-391.5
1045.674	288.42
1045.837	327.33
1046.001	-213.33
1046.165	-223.57
1046.328	698.02
1046.492	347.81
1046.655	-92.5
1046.819	-121.17
1046.983	81.58
1047.146	356.01
1047.31	-135.51
1047.473	-356.69
1047.636	190.12
1047.8	9.9
1047.963	-174.42
1048.127	-223.57
1048.29	20.14
