Data from Ink_Intensity_USB4F045381__137__00137.txt Node

Date: Mon Jul 17 11:21:45 EDT 2023
User: mmckonesweet
Spectrometer: USB4F04538
Trigger mode: 4
Integration Time (sec): 9.000000E-1
Scans to average: 1
Electric dark correction enabled: true
Nonlinearity correction enabled: false
Boxcar width: 0
XAxis mode: Wavelengths
Number of Pixels in Spectrum: 3648
>>>>>Begin Spectral Data<<<<<
345.52	-978.93
345.736	-978.93
345.952	-978.93
346.168	-1005.55
346.384	-1060.85
346.6	-129.02
346.816	-243.71
347.032	-243.71
347.248	313.34
347.464	-217.08
347.68	-47.1
347.896	4.1
348.112	413.69
348.328	-36.86
348.544	-124.93
348.76	51.2
348.975	260.09
349.191	-227.32
349.407	-112.64
349.623	-22.53
349.839	-6.14
350.055	-83.97
350.27	38.91
350.486	100.35
350.702	303.1
350.918	270.33
351.133	-223.23
351.349	208.89
351.565	432.12
351.781	-188.41
351.996	-88.06
352.212	305.15
352.428	-200.7
352.644	-184.32
352.859	-258.04
353.075	276.48
353.291	45.06
353.506	-94.21
353.722	-235.52
353.938	-90.11
354.153	413.69
354.369	131.07
354.584	-210.94
354.8	227.32
355.016	-356.35
355.231	-161.79
355.447	-40.96
355.662	143.36
355.878	808.95
356.093	-342.01
356.309	-51.2
356.524	-286.72
356.74	294.91
356.955	-180.22
357.171	-96.25
357.386	151.55
357.602	-258.04
357.817	-43.01
358.033	-184.32
358.248	325.63
358.464	196.61
358.679	-118.78
358.895	-337.91
359.11	-75.77
359.325	258.04
359.541	92.16
359.756	-55.3
359.972	-313.34
360.187	153.6
360.402	-256
360.618	-247.8
360.833	1011.7
361.048	167.93
361.264	-124.93
361.479	-159.74
361.694	-12.29
361.909	196.61
362.125	-157.69
362.34	-153.6
362.555	206.84
362.77	65.53
362.986	-296.96
363.201	-190.46
363.416	235.52
363.631	67.58
363.847	-157.69
364.062	-241.66
364.277	141.31
364.492	100.35
364.707	-129.02
364.922	-405.5
365.138	317.44
365.353	319.48
365.568	-256
365.783	-133.12
365.998	129.02
366.213	575.48
366.428	-217.08
366.643	22.53
366.858	223.23
367.073	200.7
367.288	-57.34
367.503	-202.75
367.718	153.6
367.933	251.9
368.148	-288.76
368.363	-53.25
368.578	-14.34
368.793	434.17
369.008	-98.3
369.223	-208.89
369.438	217.08
369.653	395.26
369.868	-200.7
370.083	-309.24
370.298	59.39
370.513	491.51
370.728	92.16
370.943	-245.76
371.157	-188.41
371.372	546.81
371.587	-354.3
371.802	-315.39
372.017	77.82
372.232	393.21
372.446	-88.06
372.661	-288.76
372.876	206.84
373.091	227.32
373.306	-120.83
373.52	-256
373.735	-165.89
373.95	438.27
374.165	-143.36
374.379	-112.64
374.594	-143.36
374.809	147.45
375.023	79.87
375.238	-274.43
375.453	245.76
375.667	-256
375.882	-223.23
376.097	-241.66
376.311	77.82
376.526	-38.91
376.741	-186.37
376.955	67.58
377.17	524.28
377.384	649.21
377.599	-178.17
377.813	-286.72
378.028	571.38
378.242	143.36
378.457	-38.91
378.672	-368.63
378.886	59.39
379.101	-2.05
379.315	-333.82
379.53	-176.13
379.744	274.43
379.958	182.27
380.173	-155.65
380.387	-239.61
380.602	182.27
380.816	-147.45
381.031	-245.76
381.245	-77.82
381.459	258.04
381.674	2621.4
381.888	-151.55
382.103	176.13
382.317	-176.13
382.531	493.56
382.746	-137.21
382.96	-149.5
383.174	-53.25
383.388	509.94
383.603	28.67
383.817	-288.76
384.031	149.5
384.246	493.56
384.46	-51.2
384.674	339.96
384.888	-77.82
385.103	4.1
385.317	-243.71
385.531	-139.26
385.745	301.05
385.959	358.39
386.174	-247.8
386.388	-286.72
386.602	12.29
386.816	-137.21
387.03	-79.87
387.244	-178.17
387.458	90.11
387.672	356.35
387.887	-305.15
388.101	-323.58
388.315	325.63
388.529	81.92
388.743	-223.23
388.957	-280.57
389.171	333.82
389.385	-153.6
389.599	-96.25
389.813	16.38
390.027	286.72
390.241	663.54
390.455	-118.78
390.669	-53.25
390.883	-151.55
391.097	339.96
391.311	14.34
391.525	-172.03
391.738	245.76
391.952	180.22
392.166	-69.63
392.38	-198.65
392.594	227.32
392.808	315.39
393.022	-147.45
393.236	-129.02
393.449	243.71
393.663	79.87
393.877	-286.72
394.091	-178.17
394.305	-45.06
394.518	22.53
394.732	-325.63
394.946	-258.04
395.16	432.12
395.373	129.02
395.587	-253.95
395.801	-227.32
396.015	378.87
396.228	258.04
396.442	-270.33
396.656	-415.74
396.869	329.72
397.083	454.65
397.297	-114.69
397.51	-190.46
397.724	317.44
397.938	110.59
398.151	-292.86
398.365	-284.67
398.578	73.73
398.792	335.87
399.005	-30.72
399.219	-110.59
399.433	67.58
399.646	260.09
399.86	-34.82
400.073	22.53
400.287	204.8
400.5	-53.25
400.714	-45.06
400.927	-67.58
401.141	202.75
401.354	1062.9
401.567	247.8
401.781	-247.8
401.994	194.56
402.208	665.59
402.421	-69.63
402.635	-79.87
402.848	-30.72
403.061	335.87
403.275	-102.4
403.488	-282.62
403.701	464.89
403.915	202.75
404.128	4.1
404.341	-182.27
404.555	167.93
404.768	-30.72
404.981	-22.53
405.195	-149.5
405.408	489.46
405.621	239.61
405.834	73.73
406.048	-204.8
406.261	407.55
406.474	475.13
406.687	-202.75
406.9	-30.72
407.114	34.82
407.327	223.23
407.54	-350.2
407.753	-227.32
407.966	-155.65
408.179	210.94
408.392	-137.21
408.605	-387.07
408.819	118.78
409.032	196.61
409.245	-256
409.458	28.67
409.671	313.34
409.884	256
410.097	-292.86
410.31	4.1
410.523	206.84
410.736	14.34
410.949	-100.35
411.162	-133.12
411.375	374.78
411.588	253.95
411.801	-22.53
412.014	-212.99
412.227	-20.48
412.44	-124.93
412.653	-94.21
412.865	34.82
413.078	274.43
413.291	247.8
413.504	0
413.717	-229.37
413.93	284.67
414.143	-186.37
414.356	-65.54
414.568	-296.96
414.781	219.13
414.994	77.82
415.207	-86.01
415.42	-153.6
415.632	225.28
415.845	481.27
416.058	-290.81
416.271	-200.7
416.483	81.92
416.696	516.09
416.909	-133.12
417.121	-139.26
417.334	231.42
417.547	442.36
417.759	-260.09
417.972	-268.28
418.185	-22.53
418.397	305.15
418.61	-184.32
418.823	-225.28
419.035	362.49
419.248	61.44
419.46	-202.75
419.673	-20.48
419.885	120.83
420.098	22.53
420.311	-180.22
420.523	-323.58
420.736	182.27
420.948	-34.82
421.161	-210.94
421.373	-350.2
421.586	149.5
421.798	-102.4
422.01	-352.25
422.223	-124.93
422.435	-131.07
422.648	202.75
422.86	-227.32
423.073	-129.02
423.285	296.96
423.497	-274.43
423.71	-241.66
423.922	-167.93
424.134	165.89
424.347	479.22
424.559	96.25
424.771	92.16
424.984	-22.53
425.196	141.31
425.408	-399.35
425.621	-309.24
425.833	344.06
426.045	329.72
426.257	-278.52
426.47	-249.85
426.682	126.97
426.894	194.56
427.106	-153.6
427.318	-149.5
427.531	-102.4
427.743	276.48
427.955	-71.68
428.167	317.44
428.379	153.6
428.591	100.35
428.804	-16.38
429.016	-268.28
429.228	-102.4
429.44	112.64
429.652	2.05
429.864	-284.67
430.076	32.77
430.288	92.16
430.5	-116.73
430.712	-63.49
430.924	331.77
431.136	73.73
431.348	-311.29
431.56	-120.83
431.772	77.82
431.984	-94.21
432.196	-208.89
432.408	-227.32
432.62	-47.1
432.832	106.49
433.044	57.34
433.256	-83.97
433.468	157.69
433.679	-276.48
433.891	-294.91
434.103	63.49
434.315	399.35
434.527	192.51
434.739	-135.17
434.95	-149.5
435.162	249.85
435.374	-83.97
435.586	-79.87
435.798	-219.13
436.009	-231.42
436.221	53.25
436.433	-243.71
436.645	-129.02
436.856	-149.5
437.068	323.58
437.28	-258.04
437.491	71.68
437.703	124.93
437.915	145.41
438.126	-243.71
438.338	100.35
438.55	24.58
438.761	204.8
438.973	-184.32
439.184	-202.75
439.396	-6.14
439.608	235.52
439.819	-344.06
440.031	-14.34
440.242	184.32
440.454	241.66
440.665	-116.73
440.877	-28.67
441.088	190.46
441.3	-88.06
441.511	-342.01
441.723	-276.48
441.934	114.69
442.146	151.55
442.357	-45.06
442.569	94.21
442.78	65.53
442.991	501.75
443.203	77.82
443.414	-296.96
443.626	307.2
443.837	-94.21
444.048	-280.57
444.26	-358.39
444.471	16.38
444.682	309.24
444.894	-356.35
445.105	-339.96
445.316	223.23
445.528	188.41
445.739	-137.21
445.95	-116.73
446.161	204.8
446.373	264.19
446.584	-212.99
446.795	-118.78
447.006	235.52
447.217	428.03
447.429	-321.53
447.64	-296.96
447.851	348.15
448.062	122.88
448.273	-313.34
448.484	-264.19
448.695	264.19
448.907	47.1
449.118	-88.06
449.329	-12.29
449.54	-63.49
449.751	-122.88
449.962	-133.12
450.173	-276.48
450.384	294.91
450.595	411.64
450.806	-172.03
451.017	-153.6
451.228	354.3
451.439	237.56
451.65	-202.75
451.861	-425.98
452.072	-133.12
452.283	-6.14
452.494	-96.25
452.705	-270.33
452.915	364.54
453.126	202.75
453.337	-126.97
453.548	-217.08
453.759	303.1
453.97	452.6
454.181	75.77
454.391	-102.4
454.602	133.12
454.813	73.73
455.024	-169.98
455.235	-141.31
455.445	151.55
455.656	208.89
455.867	-63.49
456.078	-124.93
456.288	-47.1
456.499	98.3
456.71	-247.8
456.921	51.2
457.131	120.83
457.342	79.87
457.553	-116.73
457.763	-188.41
457.974	198.65
458.184	268.28
458.395	-268.28
458.606	-241.66
458.816	321.53
459.027	473.08
459.237	-102.4
459.448	-378.87
459.659	292.86
459.869	595.96
460.08	-350.2
460.29	-83.97
460.501	589.81
460.711	-112.64
460.922	-325.63
461.132	-227.32
461.343	692.21
461.553	-276.48
461.764	-264.19
461.974	-225.28
462.184	370.68
462.395	124.93
462.605	-188.41
462.816	-260.09
463.026	81.92
463.236	268.28
463.447	-333.82
463.657	-284.67
463.867	290.81
464.078	-53.25
464.288	-192.51
464.498	-258.04
464.709	34.82
464.919	-28.67
465.129	-151.55
465.339	-266.24
465.55	178.17
465.76	223.23
465.97	-112.64
466.18	-235.52
466.391	258.04
466.601	100.35
466.811	-161.79
467.021	-329.72
467.231	92.16
467.441	339.96
467.651	-159.74
467.862	-462.84
468.072	59.39
468.282	378.87
468.492	-190.46
468.702	-126.97
468.912	79.87
469.122	583.67
469.332	81.92
469.542	-235.52
469.752	178.17
469.962	18.43
470.172	-299
470.382	-239.61
470.592	243.71
470.802	358.39
471.012	-92.16
471.222	-221.18
471.432	356.35
471.642	202.75
471.852	-36.86
472.062	-266.24
472.272	0
472.482	-131.07
472.691	-319.48
472.901	-270.33
473.111	92.16
473.321	518.14
473.531	-358.39
473.741	-116.73
473.95	198.65
474.16	219.13
474.37	-92.16
474.58	-356.35
474.79	442.36
474.999	231.42
475.209	-262.14
475.419	-212.99
475.628	-34.82
475.838	329.72
476.048	-94.21
476.258	-350.2
476.467	309.24
476.677	-47.1
476.886	-88.06
477.096	-67.58
477.306	-59.39
477.515	485.37
477.725	-104.45
477.935	-147.45
478.144	280.57
478.354	-83.97
478.563	-141.31
478.773	-133.12
478.982	258.04
479.192	344.06
479.401	-108.54
479.611	-276.48
479.82	-53.25
480.03	151.55
480.239	-221.18
480.449	-288.76
480.658	421.88
480.868	-178.17
481.077	-59.39
481.287	-131.07
481.496	88.06
481.705	395.26
481.915	104.45
482.124	-14.34
482.333	137.21
482.543	397.31
482.752	-124.93
482.961	-342.01
483.171	260.09
483.38	22.53
483.589	-133.12
483.799	-176.13
484.008	43.01
484.217	280.57
484.426	-169.98
484.636	-313.34
484.845	157.69
485.054	-178.17
485.263	139.26
485.472	-131.07
485.682	538.62
485.891	126.97
486.1	-348.15
486.309	-198.65
486.518	194.56
486.727	450.55
486.936	-239.61
487.146	-145.41
487.355	428.03
487.564	-96.25
487.773	-215.04
487.982	-182.27
488.191	4.1
488.4	71.68
488.609	-122.88
488.818	-165.89
489.027	667.64
489.236	423.93
489.445	-174.08
489.654	-223.23
489.863	299
490.072	108.54
490.281	126.97
490.49	-153.6
490.698	501.75
490.907	452.6
491.116	-69.63
491.325	-301.05
491.534	442.36
491.743	176.13
491.952	-28.67
492.16	-112.64
492.369	157.69
492.578	241.66
492.787	-63.49
492.996	-366.59
493.204	-118.78
493.413	618.49
493.622	-413.69
493.831	-337.91
494.039	395.26
494.248	-104.45
494.457	-159.74
494.665	-313.34
494.874	256
495.083	440.31
495.291	-92.16
495.5	-227.32
495.709	350.2
495.917	151.55
496.126	-79.87
496.335	-159.74
496.543	57.34
496.752	206.84
496.96	159.74
497.169	-280.57
497.377	131.07
497.586	337.91
497.794	-153.6
498.003	-260.09
498.211	106.49
498.42	462.84
498.628	-30.72
498.837	-251.9
499.045	231.42
499.254	153.6
499.462	-227.32
499.671	-184.32
499.879	579.58
500.087	311.29
500.296	-219.13
500.504	-100.35
500.713	206.84
500.921	710.65
501.129	-143.36
501.338	-157.69
501.546	327.67
501.754	165.89
501.962	-188.41
502.171	-223.23
502.379	331.77
502.587	528.38
502.795	-73.73
503.004	-219.13
503.212	141.31
503.42	395.26
503.628	-167.93
503.837	-77.82
504.045	301.05
504.253	593.91
504.461	-120.83
504.669	-368.63
504.877	299
505.085	518.14
505.294	-333.82
505.502	12.29
505.71	86.01
505.918	374.78
506.126	-198.65
506.334	-153.6
506.542	120.83
506.75	161.79
506.958	38.91
507.166	-79.87
507.374	43.01
507.582	587.77
507.79	-38.91
507.998	-235.52
508.206	219.13
508.414	217.08
508.622	-161.79
508.83	-133.12
509.037	526.33
509.245	139.26
509.453	-239.61
509.661	-167.93
509.869	296.96
510.077	116.73
510.285	100.35
510.492	-366.59
510.7	708.6
510.908	40.96
511.116	-57.34
511.324	-157.69
511.531	92.16
511.739	241.66
511.947	63.49
512.155	143.36
512.362	292.86
512.57	-67.58
512.778	-174.08
512.985	-321.53
513.193	436.22
513.401	555
513.608	-71.68
513.816	-129.02
514.024	256
514.231	446.46
514.439	-172.03
514.646	-208.89
514.854	370.68
515.061	546.81
515.269	-118.78
515.477	-110.59
515.684	-83.97
515.892	417.79
516.099	-233.47
516.307	-294.91
516.514	417.79
516.722	616.44
516.929	-55.3
517.136	-200.7
517.344	528.38
517.551	169.98
517.759	-184.32
517.966	-92.16
518.173	69.63
518.381	239.61
518.588	-43.01
518.796	-233.47
519.003	411.64
519.21	161.79
519.418	-149.5
519.625	282.62
519.832	247.8
520.039	260.09
520.247	-266.24
520.454	-79.87
520.661	362.49
520.868	356.35
521.076	-96.25
521.283	22.53
521.49	690.17
521.697	264.19
521.904	-63.49
522.112	-53.25
522.319	479.22
522.526	329.72
522.733	-94.21
522.94	-102.4
523.147	182.27
523.354	333.82
523.561	-288.76
523.768	-34.82
523.975	479.22
524.183	198.65
524.39	6.14
524.597	-180.22
524.804	186.37
525.011	71.68
525.218	-67.58
525.425	-71.68
525.632	491.51
525.838	24.58
526.045	-40.96
526.252	-120.83
526.459	1300.46
526.666	1079.28
526.873	-90.11
527.08	-69.63
527.287	563.19
527.494	471.03
527.701	-256
527.907	-219.13
528.114	370.68
528.321	223.23
528.528	-45.06
528.735	-114.69
528.941	153.6
529.148	137.21
529.355	49.15
529.562	-94.21
529.768	780.28
529.975	157.69
530.182	40.96
530.388	-67.58
530.595	452.6
530.802	-22.53
531.008	51.2
531.215	-6.14
531.422	641.01
531.628	1017.84
531.835	6.14
532.042	124.93
532.248	43.01
532.455	313.34
532.661	32.77
532.868	-20.48
533.074	350.2
533.281	417.79
533.487	96.25
533.694	-131.07
533.9	47.1
534.107	378.87
534.313	-75.77
534.52	-180.22
534.726	544.76
534.933	800.76
535.139	-108.54
535.345	-210.94
535.552	260.09
535.758	331.77
535.965	6.14
536.171	40.96
536.377	442.36
536.584	718.84
536.79	-53.25
536.996	143.36
537.203	362.49
537.409	360.44
537.615	-34.82
537.821	116.73
538.028	499.7
538.234	503.8
538.44	-53.25
538.646	133.12
538.853	376.83
539.059	331.77
539.265	419.83
539.471	-126.97
539.677	552.95
539.883	208.89
540.09	67.58
540.296	393.21
540.502	231.42
540.708	157.69
540.914	178.17
541.12	10.24
541.326	382.97
541.532	405.5
541.738	104.45
541.944	77.82
542.15	583.67
542.356	272.38
542.562	-102.4
542.768	129.02
542.974	897.01
543.18	843.76
543.386	-4.1
543.592	-116.73
543.798	716.79
544.004	624.63
544.21	34.82
544.415	118.78
544.621	364.54
544.827	600.05
545.033	-12.29
545.239	307.2
545.445	122.88
545.651	374.78
545.856	83.97
546.062	71.68
546.268	276.48
546.474	403.45
546.679	118.78
546.885	225.28
547.091	206.84
547.297	880.63
547.502	90.11
547.708	-45.06
547.914	317.44
548.119	555
548.325	-86.01
548.531	-20.48
548.736	897.01
548.942	108.54
549.147	75.77
549.353	313.34
549.559	702.45
549.764	432.12
549.97	88.06
550.175	122.88
550.381	604.15
550.586	253.95
550.792	198.65
550.997	133.12
551.203	458.74
551.408	579.58
551.614	108.54
551.819	81.92
552.025	876.53
552.23	870.39
552.435	92.16
552.641	368.63
552.846	163.84
553.052	688.12
553.257	342.01
553.462	141.31
553.668	313.34
553.873	641.01
554.078	165.89
554.283	96.25
554.489	552.95
554.694	421.88
554.899	75.77
555.105	348.15
555.31	540.66
555.515	692.21
555.72	225.28
555.925	34.82
556.131	653.3
556.336	350.2
556.541	212.99
556.746	18.43
556.951	780.28
557.156	870.39
557.361	309.24
557.567	266.24
557.772	1122.29
557.977	610.29
558.182	163.84
558.387	165.89
558.592	321.53
558.797	813.04
559.002	272.38
559.207	315.39
559.412	536.57
559.617	964.59
559.822	294.91
560.027	102.4
560.232	511.99
560.437	739.32
560.642	94.21
560.847	186.37
561.051	516.09
561.256	616.44
561.461	315.39
561.666	92.16
561.871	544.76
562.076	608.25
562.281	364.54
562.485	40.96
562.69	759.8
562.895	702.45
563.1	186.37
563.305	192.51
563.509	817.14
563.714	1114.09
563.919	120.83
564.123	141.31
564.328	446.46
564.533	806.9
564.737	268.28
564.942	253.95
565.147	876.53
565.351	1062.9
565.556	395.26
565.761	403.45
565.965	657.4
566.17	331.77
566.374	311.29
566.579	155.65
566.784	606.2
566.988	516.09
567.193	210.94
567.397	221.18
567.602	352.25
567.806	538.62
568.011	249.85
568.215	378.87
568.42	493.56
568.624	522.23
568.828	264.19
569.033	448.51
569.237	710.65
569.442	747.51
569.646	206.84
569.85	303.1
570.055	458.74
570.259	686.07
570.463	548.86
570.668	389.11
570.872	581.62
571.076	608.25
571.281	479.22
571.485	430.07
571.689	610.29
571.893	851.95
572.098	440.31
572.302	354.3
572.506	849.91
572.71	657.4
572.914	411.64
573.119	458.74
573.323	960.5
573.527	874.48
573.731	339.96
573.935	321.53
574.139	788.47
574.343	452.6
574.547	432.12
574.751	393.21
574.955	1036.27
575.159	987.12
575.364	319.48
575.568	282.62
575.772	753.65
575.976	937.97
576.18	378.87
576.383	276.48
576.587	927.73
576.791	792.56
576.995	208.89
577.199	253.95
577.403	962.55
577.607	1066.99
577.811	276.48
578.015	522.23
578.219	792.56
578.422	968.69
578.626	530.42
578.83	624.63
579.034	899.06
579.238	792.56
579.442	397.31
579.645	821.24
579.849	669.69
580.053	815.09
580.257	509.94
580.46	608.25
580.664	978.93
580.868	856.05
581.071	602.1
581.275	563.19
581.479	505.85
581.682	952.31
581.886	434.17
582.09	567.29
582.293	1103.86
582.497	1003.5
582.7	735.22
582.904	456.7
583.107	860.15
583.311	735.22
583.515	626.68
583.718	587.77
583.922	987.12
584.125	1206.25
584.329	532.47
584.532	755.7
584.735	1048.56
584.939	954.35
585.142	380.92
585.346	501.75
585.549	1085.42
585.753	718.84
585.956	675.83
586.159	765.94
586.363	1249.26
586.566	1026.03
586.769	520.18
586.973	395.26
587.176	950.26
587.379	1118.19
587.582	897.01
587.786	817.14
587.989	731.12
588.192	1482.73
588.395	587.77
588.599	905.2
588.802	1011.7
589.005	1112.05
589.208	569.34
589.411	712.69
589.615	1132.53
589.818	1374.19
590.021	890.87
590.224	794.61
590.427	1062.9
590.63	1069.04
590.833	505.85
591.036	624.63
591.239	829.43
591.442	813.04
591.645	792.56
591.848	616.44
592.051	935.92
592.254	1138.67
592.457	774.13
592.66	835.57
592.863	952.31
593.066	1056.75
593.269	727.03
593.472	841.72
593.675	712.69
593.878	1232.88
594.081	933.87
594.284	548.86
594.486	1132.53
594.689	997.36
594.892	786.42
595.095	722.93
595.298	1148.91
595.5	880.63
595.703	882.67
595.906	925.68
596.109	1357.8
596.311	1263.6
596.514	473.08
596.717	831.48
596.92	1388.52
597.122	1140.72
597.325	579.58
597.528	702.45
597.73	1460.2
597.933	1085.42
598.136	788.47
598.338	563.19
598.541	1296.36
598.743	1366
598.946	802.8
599.148	819.19
599.351	1355.76
599.554	1337.32
599.756	874.48
599.959	856.05
600.161	1361.9
600.363	1732.58
600.566	1148.91
600.768	817.14
600.971	1452.01
601.173	1347.56
601.376	815.09
601.578	927.73
601.78	1181.68
601.983	1701.86
602.185	751.6
602.388	1009.65
602.59	1214.45
602.792	991.22
602.995	1112.05
603.197	901.11
603.399	1296.36
603.601	1302.51
603.804	886.77
604.006	788.47
604.208	1103.86
604.41	778.23
604.613	1120.24
604.815	796.66
605.017	1824.74
605.219	1026.03
605.421	1331.18
605.623	927.73
605.826	1445.87
606.028	1533.93
606.23	995.31
606.432	1089.52
606.634	1513.45
606.836	1560.55
607.038	796.66
607.24	1028.08
607.442	1189.87
607.644	1247.21
607.846	1112.05
608.048	866.29
608.25	1695.72
608.452	1124.33
608.654	1062.9
608.856	788.47
609.058	1202.16
609.26	1363.95
609.462	1095.66
609.664	1120.24
609.866	1716.2
610.067	1529.83
610.269	1241.07
610.471	1075.18
610.673	1159.15
610.875	1501.16
611.077	811
611.278	1142.77
611.48	1411.05
611.682	1757.16
611.884	1169.39
612.085	1103.86
612.287	1103.86
612.489	1435.63
612.69	978.93
612.892	1091.57
613.094	1632.23
613.295	1519.59
613.497	1026.03
613.699	1110
613.9	1583.08
614.102	1585.13
614.304	1140.72
614.505	958.45
614.707	1343.47
614.908	1296.36
615.11	1101.81
615.311	1150.96
615.513	1624.04
615.714	1521.64
615.916	999.41
616.117	1173.49
616.319	1345.52
616.52	1558.5
616.722	1101.81
616.923	1165.29
617.124	1787.88
617.326	1558.5
617.527	1208.3
617.729	1374.19
617.93	1599.46
618.131	1529.83
618.333	1118.19
618.534	1304.56
618.735	1306.6
618.937	1910.75
619.138	1032.18
619.339	1009.65
619.54	1529.83
619.742	1409
619.943	1464.3
620.144	1202.16
620.345	1628.14
620.546	1722.34
620.748	1066.99
620.949	1282.03
621.15	1626.09
621.351	1548.26
621.552	1372.14
621.753	1001.46
621.954	1200.11
622.155	2054.11
622.356	1239.02
622.558	1468.39
622.759	1515.5
622.96	1990.63
623.161	1335.28
623.362	1370.09
623.563	1699.81
623.764	1587.18
623.965	1286.12
624.166	1435.63
624.366	1507.3
624.567	1634.28
624.768	919.54
624.969	1224.69
625.17	1601.51
625.371	1746.92
625.572	1378.28
625.773	1310.7
625.973	1832.93
626.174	1769.44
626.375	1366
626.576	1411.05
626.777	1812.45
626.977	2316.25
627.178	1329.13
627.379	1472.49
627.58	1595.37
627.78	1640.42
627.981	1443.82
628.182	1529.83
628.382	1884.13
628.583	1447.91
628.784	1304.56
628.984	1509.35
629.185	1800.16
629.386	1933.28
629.586	1511.4
629.787	1312.75
629.987	1888.23
630.188	1667.05
630.388	1538.02
630.589	1456.11
630.79	2312.16
630.99	1816.55
631.191	1480.68
631.391	1523.69
631.591	1923.04
631.792	2054.11
631.992	1574.89
632.193	1466.35
632.393	2105.31
632.594	1716.2
632.794	1470.44
632.994	1542.12
633.195	1751.01
633.395	1822.69
633.595	1460.2
633.796	1728.49
633.996	1628.14
634.196	2093.02
634.397	1353.71
634.597	1583.08
634.797	1525.74
634.997	2246.62
635.198	1841.12
635.398	1601.51
635.598	1912.8
635.798	2136.03
635.998	1931.23
636.199	1495.02
636.399	1621.99
636.599	1718.25
636.799	1613.8
636.999	1877.99
637.199	2015.2
637.399	1949.67
637.599	1468.39
637.799	1660.9
637.999	1658.85
638.199	2172.89
638.399	1548.26
638.599	1607.66
638.799	2105.31
638.999	2392.03
639.199	1873.89
639.399	1701.86
639.599	2344.92
639.799	1595.37
639.999	1558.5
640.199	1535.98
640.399	2041.82
640.599	1988.58
640.799	1740.77
640.998	1847.27
641.198	2244.57
641.398	2027.49
641.598	1794.02
641.798	1669.09
641.997	2811.86
642.197	2037.73
642.397	1896.42
642.597	1726.44
642.796	2193.37
642.996	2322.4
643.196	1888.23
643.395	1667.05
643.595	2129.89
643.795	1705.96
643.994	1777.64
644.194	1808.36
644.394	2246.62
644.593	2099.17
644.793	1531.88
644.992	1943.52
645.192	2117.6
645.392	1689.57
645.591	1959.91
645.791	1861.6
645.99	2230.24
646.19	2017.25
646.389	1923.04
646.589	1925.09
646.788	2254.81
646.987	2320.35
647.187	2074.59
647.386	2060.26
647.586	1984.48
647.785	2236.38
647.984	1966.05
648.184	1914.85
648.383	1855.46
648.582	2117.6
648.782	1855.46
648.981	1951.71
649.18	2009.06
649.38	2191.33
649.579	1998.82
649.778	1796.07
649.977	2324.44
650.177	2363.36
650.376	1941.47
650.575	1914.85
650.774	2678.74
650.973	2056.16
651.173	1896.42
651.372	1943.52
651.571	2258.91
651.77	2451.42
651.969	1877.99
652.168	2043.87
652.367	1935.33
652.566	2205.66
652.765	1935.33
652.964	2359.26
653.163	2605.02
653.362	2250.72
653.561	1988.58
653.76	2097.12
653.959	2140.13
654.158	2504.67
654.357	2238.43
654.556	2004.96
654.755	2461.66
654.954	2379.74
655.153	2115.55
655.352	2129.89
655.551	2711.51
655.749	2158.56
655.948	2185.18
656.147	2183.13
656.346	2346.97
656.545	2463.71
656.743	2111.46
656.942	2164.7
657.141	2435.03
657.34	2129.89
657.538	2146.27
657.737	1992.67
657.936	2312.16
658.135	2500.57
658.333	2082.78
658.532	2217.95
658.731	2889.68
658.929	2506.71
659.128	2478.04
659.326	2109.41
659.525	2705.37
659.724	2418.65
659.922	2033.63
660.121	2070.5
660.319	2500.57
660.518	2185.18
660.716	2105.31
660.915	2041.82
661.113	2842.58
661.312	2170.85
661.51	2285.53
661.709	2246.62
661.907	2664.41
662.105	2852.82
662.304	2170.85
662.502	2289.63
662.701	2826.2
662.899	2430.94
663.097	2535.39
663.296	2023.39
663.494	2832.34
663.692	2904.02
663.891	2228.19
664.089	2236.38
664.287	2590.68
664.485	2805.72
664.684	2252.77
664.882	2371.55
665.08	2488.28
665.278	2621.4
665.476	2222.05
665.675	2660.31
665.873	2969.55
666.071	2785.24
666.269	2283.49
666.467	2668.5
666.665	2723.8
666.863	2508.76
667.061	2486.23
667.259	2344.92
667.457	2559.96
667.655	2758.61
667.853	2269.15
668.051	2500.57
668.249	2498.52
668.447	2762.71
668.645	2351.07
668.843	2508.76
669.041	2731.99
669.239	2445.27
669.437	2496.47
669.635	2672.6
669.833	2568.15
670.031	2881.49
670.229	2680.79
670.426	2574.3
670.624	2496.47
670.822	2488.28
671.02	2482.14
671.218	2521.05
671.415	2519
671.613	2717.65
671.811	2572.25
672.009	2381.79
672.206	2967.51
672.404	2652.12
672.602	2709.46
672.799	2703.32
672.997	2789.33
673.195	2877.4
673.392	2551.77
673.59	2439.13
673.788	2918.36
673.985	2246.62
674.183	2457.56
674.38	2557.91
674.578	2832.34
674.775	2527.19
674.973	2467.8
675.17	2406.36
675.368	3139.54
675.565	2881.49
675.763	2381.79
675.96	2469.85
676.158	3106.77
676.355	2795.48
676.553	2410.46
676.75	2475.99
676.947	2746.33
677.145	2668.5
677.342	2682.84
677.539	2699.22
677.737	2752.47
677.934	3397.58
678.131	2787.29
678.329	2539.48
678.526	3225.55
678.723	2969.55
678.92	2545.63
679.118	2678.74
679.315	2471.9
679.512	3147.73
679.709	2574.3
679.906	2742.23
680.104	3180.5
680.301	2815.96
680.498	2566.1
680.695	2461.66
680.892	2643.93
681.089	2799.57
681.286	2836.44
681.483	2594.78
681.68	3006.42
681.877	3196.88
682.075	2688.98
682.272	2797.53
682.469	2975.7
682.665	2789.33
682.862	2580.44
683.059	2451.42
683.256	2928.6
683.453	2883.54
683.65	2762.71
683.847	2820.05
684.044	2887.64
684.241	2660.31
684.438	2740.18
684.635	2568.15
684.831	3471.31
685.028	3356.62
685.225	2688.98
685.422	2785.24
685.619	2951.12
685.815	3030.99
686.012	2801.62
686.209	2850.77
686.405	2549.72
686.602	3121.1
686.799	2605.02
686.996	2568.15
687.192	2785.24
687.389	3389.39
687.586	2703.32
687.782	2721.75
687.979	3344.33
688.175	3260.37
688.372	2967.51
688.568	2848.72
688.765	2897.88
688.962	3215.31
689.158	2885.59
689.355	2684.89
689.551	3186.64
689.748	3121.1
689.944	2852.82
690.14	2703.32
690.337	3153.87
690.533	2992.08
690.73	2889.68
690.926	2969.55
691.123	3082.19
691.319	3104.72
691.515	2756.57
691.712	2951.12
691.908	3221.45
692.104	3030.99
692.301	3000.27
692.497	2705.37
692.693	3211.21
692.889	3350.48
693.086	3030.99
693.282	2635.74
693.478	3102.67
693.674	3418.06
693.87	2967.51
694.067	2672.6
694.263	3200.98
694.459	3076.05
694.655	2975.7
694.851	3035.09
695.047	3125.2
695.243	3272.65
695.439	3065.81
695.635	2912.21
695.831	3274.7
696.027	3186.64
696.224	3018.71
696.42	3362.76
696.615	3456.97
696.811	3258.32
697.007	2746.33
697.203	3014.61
697.399	3188.69
697.595	3448.78
697.791	2842.58
697.987	3033.04
698.183	2844.63
698.379	2992.08
698.575	2916.31
698.77	2942.93
698.966	3299.28
699.162	3295.18
699.358	3059.67
699.554	3024.85
699.749	3289.04
699.945	3499.98
700.141	3059.67
700.337	3164.11
700.532	3147.73
700.728	3057.62
700.924	3082.19
701.119	2944.98
701.315	3280.85
701.511	3071.95
701.706	3139.54
701.902	2881.49
702.097	3213.26
702.293	3258.32
702.489	3055.57
702.684	2983.89
702.88	3125.2
703.075	3147.73
703.271	3131.34
703.466	2942.93
703.662	3289.04
703.857	3401.68
704.053	3004.37
704.248	3069.91
704.443	3502.03
704.639	3487.69
704.834	3166.16
705.03	3033.04
705.225	3416.01
705.42	3592.14
705.616	3231.69
705.811	2895.83
706.006	3246.03
706.202	3141.58
706.397	3211.21
706.592	2959.31
706.787	3342.28
706.983	3219.41
707.178	3360.72
707.373	3227.6
707.568	3477.45
707.763	3624.9
707.959	3151.82
708.154	3125.2
708.349	3274.7
708.544	3495.88
708.739	3356.62
708.934	3067.86
709.129	3463.12
709.324	3506.12
709.519	3069.91
709.714	2987.99
709.909	3665.86
710.104	3569.61
710.299	3096.53
710.494	3127.25
710.689	3545.03
710.884	3428.3
711.079	3225.55
711.274	3418.06
711.469	3657.67
711.664	3325.9
711.859	3307.47
712.054	3446.73
712.249	3784.65
712.443	3735.49
712.638	3131.34
712.833	3076.05
713.028	3397.58
713.223	3399.63
713.417	3450.83
713.612	3114.96
713.807	3698.63
714.002	4128.7
714.196	3420.11
714.391	3241.93
714.586	3659.72
714.78	3268.56
714.975	3295.18
715.17	3327.95
715.364	3352.52
715.559	3641.29
715.754	3018.71
715.948	3090.38
716.143	3852.23
716.337	3477.45
716.532	3602.38
716.726	3219.41
716.921	3553.23
717.115	3760.07
717.31	3155.92
717.504	3608.52
717.699	3379.15
717.893	3729.35
718.088	3129.3
718.282	3147.73
718.476	3567.56
718.671	3647.43
718.865	3299.28
719.059	3262.41
719.254	3411.92
719.448	3878.85
719.642	4671.42
719.837	3065.81
720.031	3678.15
720.225	3735.49
720.419	3344.33
720.614	3311.57
720.808	3741.64
721.002	3424.2
721.196	3168.21
721.39	3149.78
721.585	3833.8
721.779	3676.1
721.973	3295.18
722.167	3172.3
722.361	3657.67
722.555	3876.8
722.749	3260.37
722.943	3178.45
723.137	3362.76
723.331	3588.04
723.525	3416.01
723.719	3196.88
723.913	3624.9
724.107	3950.53
724.301	3225.55
724.495	3350.48
724.689	4093.89
724.883	3696.58
725.077	3356.62
725.271	3338.19
725.465	3872.71
725.659	3536.84
725.853	3463.12
726.046	3260.37
726.24	3391.44
726.434	3768.26
726.628	3309.52
726.822	3493.83
727.015	3901.38
727.209	3942.34
727.403	3385.29
727.596	3198.93
727.79	3844.04
727.984	3729.35
728.177	3483.59
728.371	3487.69
728.565	3911.62
728.758	3459.02
728.952	3252.17
729.146	3393.48
729.339	3860.42
729.533	3583.95
729.726	3473.36
729.92	3467.21
730.113	4018.11
730.307	3776.45
730.5	3303.37
730.694	3377.1
730.887	3495.88
731.081	3792.84
731.274	3325.9
731.468	3477.45
731.661	3532.75
731.854	3647.43
732.048	3381.2
732.241	3368.91
732.435	3495.88
732.628	3827.65
732.821	3436.49
733.014	3481.55
733.208	3688.39
733.401	4050.88
733.594	3459.02
733.788	3555.27
733.981	4065.22
734.174	3860.42
734.367	3542.99
734.56	3614.66
734.754	3872.71
734.947	3766.21
735.14	3499.98
735.333	3518.41
735.526	3901.38
735.719	3633.1
735.912	3452.88
736.105	3561.42
736.298	3733.45
736.491	3749.83
736.684	3430.35
736.877	3504.07
737.07	3674.06
737.263	4140.99
737.456	3532.75
737.649	3395.53
737.842	3745.73
738.035	3801.03
738.228	3692.49
738.421	3731.4
738.614	4120.51
738.807	4048.83
739	3399.63
739.192	3528.65
739.385	3958.72
739.578	3936.2
739.771	3911.62
739.964	3545.03
740.156	3850.18
740.349	3760.07
740.542	3872.71
740.735	3536.84
740.927	3596.23
741.12	3643.34
741.313	3684.3
741.505	3764.17
741.698	3966.92
741.891	3850.18
742.083	3831.75
742.276	3600.33
742.468	3911.62
742.661	3852.23
742.854	3731.4
743.046	3588.04
743.239	4323.26
743.431	3733.45
743.624	3577.8
743.816	3399.63
744.009	3792.84
744.201	3944.39
744.393	3815.37
744.586	3585.99
744.778	4163.52
744.971	3887.04
745.163	3823.56
745.355	3809.22
745.548	3829.7
745.74	3807.17
745.932	3708.87
746.125	3577.8
746.317	4415.42
746.509	4034.5
746.702	3692.49
746.894	3833.8
747.086	3946.44
747.278	4042.69
747.471	3952.58
747.663	3710.92
747.855	3954.63
748.047	4270.01
748.239	3712.97
748.431	3647.43
748.623	4270.01
748.815	4231.1
749.008	3520.46
749.2	3655.62
749.392	4220.86
749.584	4181.95
749.776	3862.47
749.968	3680.2
750.16	4458.43
750.352	3907.52
750.544	3880.9
750.736	3696.58
750.928	4196.29
751.12	3872.71
751.311	3688.39
751.503	3880.9
751.695	4149.18
751.887	3973.06
752.079	3594.19
752.271	3852.23
752.463	4822.97
752.654	4253.63
752.846	3809.22
753.038	3794.89
753.23	3823.56
753.421	4261.82
753.613	3719.11
753.805	3975.11
753.997	4394.94
754.188	4366.27
754.38	3649.48
754.572	3817.41
754.763	3809.22
754.955	4095.94
755.146	3647.43
755.338	3846.09
755.53	4040.64
755.721	4073.41
755.913	3618.76
756.104	3745.73
756.296	3928
756.487	4186.05
756.679	3682.25
756.87	3674.06
757.062	3827.65
757.253	4093.89
757.445	3592.14
757.636	3950.53
757.827	3901.38
758.019	4714.42
758.21	3616.71
758.401	3659.72
758.593	4624.31
758.784	4374.46
758.975	3579.85
759.167	3618.76
759.358	4001.73
759.549	4134.85
759.74	3798.98
759.932	3788.74
760.123	4399.04
760.314	3880.9
760.505	3932.1
760.696	3635.14
760.888	4446.14
761.079	4022.21
761.27	3809.22
761.461	3588.04
761.652	4386.75
761.843	3798.98
762.034	4061.12
762.225	4100.03
762.416	3991.49
762.607	3950.53
762.798	3823.56
762.989	3700.68
763.18	4759.48
763.371	3917.76
763.562	3876.8
763.753	3766.21
763.944	4274.11
764.135	4280.25
764.326	3958.72
764.517	3860.42
764.708	4075.46
764.899	4155.33
765.089	3657.67
765.28	3663.82
765.471	3942.34
765.662	4282.3
765.853	3887.04
766.043	3590.09
766.234	4288.45
766.425	4270.01
766.615	3895.24
766.806	3573.71
766.997	4296.64
767.187	4167.62
767.378	3745.73
767.569	3563.47
767.759	4020.16
767.95	4204.48
768.141	3897.28
768.331	3844.04
768.522	4249.54
768.712	4173.76
768.903	3827.65
769.093	3764.17
769.284	4249.54
769.474	4267.97
769.665	3594.19
769.855	3545.03
770.046	4220.86
770.236	4024.26
770.426	3991.49
770.617	3704.78
770.807	4192.19
770.998	4044.74
771.188	3932.1
771.378	3827.65
771.569	4390.84
771.759	4239.3
771.949	3622.86
772.139	3563.47
772.33	4138.94
772.52	4331.45
772.71	3698.63
772.9	3606.47
773.09	4261.82
773.281	4458.43
773.471	3526.6
773.661	3696.58
773.851	4306.88
774.041	3790.79
774.231	3715.02
774.421	3983.3
774.611	4353.98
774.802	4179.9
774.992	3835.85
775.182	3753.93
775.372	4014.02
775.562	4261.82
775.752	3848.13
775.942	3745.73
776.131	4345.79
776.321	4263.87
776.511	3885
776.701	3710.92
776.891	4288.45
777.081	3798.98
777.271	3919.81
777.461	3745.73
777.651	4288.45
777.84	4241.34
778.03	4081.6
778.22	3708.87
778.41	4335.55
778.599	3866.57
778.789	3735.49
778.979	3786.69
779.169	4155.33
779.358	3899.33
779.548	4143.04
779.738	3651.53
779.927	4022.21
780.117	3856.33
780.307	3512.27
780.496	3459.02
780.686	4227.01
780.875	4345.79
781.065	3788.74
781.254	3848.13
781.444	4128.7
781.633	4048.83
781.823	3729.35
782.012	3643.34
782.202	3925.96
782.391	3909.57
782.581	3651.53
782.77	3850.18
782.96	4177.86
783.149	4089.79
783.338	3780.55
783.528	3581.9
783.717	4167.62
783.906	4376.51
784.096	3788.74
784.285	3794.89
784.474	3968.96
784.663	3784.65
784.853	3743.69
785.042	3868.61
785.231	3868.61
785.42	4186.05
785.61	3938.24
785.799	3698.63
785.988	3901.38
786.177	4079.55
786.366	3860.42
786.555	4038.59
786.744	4161.47
786.933	3936.2
787.122	3747.78
787.312	3688.39
787.501	3788.74
787.69	4214.72
787.879	3534.79
788.068	3764.17
788.257	3743.69
788.445	3821.51
788.634	3753.93
788.823	3819.46
789.012	4581.31
789.201	4220.86
789.39	3651.53
789.579	3596.23
789.768	3942.34
789.957	3985.35
790.145	3612.62
790.334	3526.6
790.523	3940.29
790.712	3950.53
790.9	3827.65
791.089	3555.27
791.278	4321.21
791.467	4022.21
791.655	3835.85
791.844	4259.77
792.033	3833.8
792.221	3907.52
792.41	3696.58
792.599	3506.12
792.787	3948.48
792.976	4085.7
793.164	3647.43
793.353	3805.13
793.541	4212.67
793.73	4001.73
793.918	3790.79
794.107	3688.39
794.295	3973.06
794.484	3958.72
794.672	3719.11
794.861	3700.68
795.049	3993.54
795.238	4351.93
795.426	3567.56
795.614	3737.54
795.803	4126.66
795.991	4343.74
796.179	3669.96
796.368	3764.17
796.556	4368.32
796.744	3717.06
796.932	3663.82
797.121	3672.01
797.309	4075.46
797.497	4188.1
797.685	3602.38
797.874	3733.45
798.062	3887.04
798.25	4394.94
798.438	3667.91
798.626	3692.49
798.814	4048.83
799.002	4560.83
799.19	3897.28
799.378	3794.89
799.566	4356.03
799.755	4296.64
799.943	3938.24
800.131	3698.63
800.318	4124.61
800.506	4200.38
800.694	3725.26
800.882	3934.15
801.07	4325.31
801.258	4265.92
801.446	3839.94
801.634	3786.69
801.822	3954.63
802.01	4040.64
802.197	3762.12
802.385	3895.24
802.573	4198.34
802.761	3784.65
802.949	3958.72
803.136	3854.28
803.324	4401.08
803.512	4093.89
803.699	3930.05
803.887	3760.07
804.075	4466.62
804.262	4114.37
804.45	3874.76
804.638	3903.43
804.825	3958.72
805.013	3981.25
805.201	3893.19
805.388	3831.75
805.576	4349.89
805.763	4601.79
805.951	3903.43
806.138	4106.18
806.326	4685.75
806.513	4329.41
806.701	3942.34
806.888	3811.27
807.075	4224.96
807.263	4669.37
807.45	3917.76
807.638	4007.87
807.825	4634.55
808.012	4321.21
808.2	4097.99
808.387	4222.91
808.574	4335.55
808.761	4573.11
808.949	3991.49
809.136	4071.36
809.323	4194.24
809.51	4231.1
809.698	4306.88
809.885	4229.06
810.072	4292.54
810.259	4556.73
810.446	4194.24
810.633	4214.72
810.82	4671.42
811.008	4589.5
811.195	4313.02
811.382	4198.34
811.569	4339.65
811.756	4028.35
811.943	4167.62
812.13	4120.51
812.317	4347.84
812.504	4245.44
812.691	4261.82
812.878	4057.03
813.064	4685.75
813.251	4495.29
813.438	4097.99
813.625	4278.21
813.812	4616.12
813.999	4306.88
814.186	4245.44
814.372	4190.14
814.559	4478.91
814.746	4722.62
814.933	4206.53
815.12	4362.17
815.306	4333.5
815.493	4206.53
815.68	4147.14
815.866	4272.06
816.053	4663.22
816.24	4759.48
816.426	4413.37
816.613	4028.35
816.799	4638.65
816.986	4849.59
817.173	4151.23
817.359	4034.5
817.546	4544.44
817.732	4042.69
817.919	4057.03
818.105	4331.45
818.292	4304.83
818.478	4632.51
818.665	4339.65
818.851	4227.01
819.037	4947.89
819.224	4599.74
819.41	4044.74
819.597	4173.76
819.783	4986.8
819.969	4642.75
820.156	4431.8
820.342	4138.94
820.528	5230.51
820.714	4396.99
820.901	4446.14
821.087	4319.17
821.273	4941.75
821.459	4483
821.646	4263.87
821.832	4042.69
822.018	4618.17
822.204	4706.23
822.39	4323.26
822.576	4100.03
822.762	4614.07
822.948	4454.33
823.134	4483
823.32	4130.75
823.507	4155.33
823.693	4528.06
823.879	4616.12
824.065	4186.05
824.25	4509.63
824.436	4315.07
824.622	4302.78
824.808	4075.46
824.994	4429.76
825.18	4233.15
825.366	4210.62
825.552	4065.22
825.738	4558.78
825.923	4757.43
826.109	4337.6
826.295	4118.47
826.481	4413.37
826.667	4339.65
826.852	4321.21
827.038	4165.57
827.224	4757.43
827.409	4945.84
827.595	3850.18
827.781	4499.39
827.966	4736.95
828.152	4777.91
828.338	4255.68
828.523	4126.66
828.709	4335.55
828.894	4728.76
829.08	4157.38
829.266	4200.38
829.451	4261.82
829.637	4560.83
829.822	4249.54
830.008	3946.44
830.193	4769.72
830.378	4923.32
830.564	4319.17
830.749	4259.77
830.935	4732.86
831.12	4519.87
831.305	4190.14
831.491	4253.63
831.676	4249.54
831.861	4646.84
832.047	4286.4
832.232	4007.87
832.417	4822.97
832.602	4353.98
832.788	4050.88
832.973	4122.56
833.158	4435.9
833.343	4521.91
833.528	4401.08
833.714	4126.66
833.899	4421.56
834.084	5007.28
834.269	4474.81
834.454	4151.23
834.639	4683.7
834.824	4337.6
835.009	4259.77
835.194	4286.4
835.379	4483
835.564	4761.53
835.749	4282.3
835.934	4097.99
836.119	4538.3
836.304	4370.37
836.489	4071.36
836.674	4349.89
836.859	4050.88
837.044	4689.85
837.228	4184
837.413	3968.96
837.598	4364.22
837.783	4603.83
837.968	4155.33
838.152	3925.96
838.337	3882.95
838.522	4648.89
838.707	4548.54
838.891	4208.58
839.076	4685.75
839.261	4712.38
839.445	4214.72
839.63	4083.65
839.815	4720.57
839.999	4339.65
840.184	4126.66
840.368	4071.36
840.553	4528.06
840.737	4609.98
840.922	3971.01
841.106	4128.7
841.291	4229.06
841.475	4384.7
841.66	4106.18
841.844	4173.76
842.029	5085.11
842.213	4059.07
842.397	4239.3
842.582	3966.92
842.766	4767.67
842.951	4597.69
843.135	4071.36
843.319	4069.31
843.504	4255.68
843.688	4511.68
843.872	3981.25
844.056	4014.02
844.241	4257.73
844.425	4147.14
844.609	4349.89
844.793	3866.57
844.977	4640.7
845.161	4405.18
845.346	3870.66
845.53	4122.56
845.714	4319.17
845.898	4597.69
846.082	3807.17
846.266	4020.16
846.45	4374.46
846.634	4429.76
846.818	3915.72
847.002	4239.3
847.186	4370.37
847.37	4229.06
847.554	4063.17
847.738	4245.44
847.922	4251.58
848.106	4421.56
848.29	4009.92
848.473	3983.3
848.657	4356.03
848.841	4310.97
849.025	3987.4
849.209	3854.28
849.392	4521.91
849.576	4399.04
849.76	3768.26
849.944	4241.34
850.127	4605.88
850.311	3880.9
850.495	3930.05
850.678	3864.52
850.862	4618.17
851.046	4630.46
851.229	4237.25
851.413	3971.01
851.596	4325.31
851.78	4245.44
851.964	3903.43
852.147	4026.31
852.331	4937.65
852.514	4413.37
852.698	3999.68
852.881	3790.79
853.065	4501.44
853.248	4128.7
853.431	4116.42
853.615	3987.4
853.798	4880.31
853.982	4261.82
854.165	4065.22
854.348	3911.62
854.532	4048.83
854.715	4020.16
854.898	3966.92
855.081	3938.24
855.265	4669.37
855.448	4589.5
855.631	3852.23
855.814	3913.67
855.997	4288.45
856.181	4059.07
856.364	4048.83
856.547	3796.93
856.73	4347.84
856.913	4380.61
857.096	3803.08
857.279	3936.2
857.462	4091.84
857.645	4376.51
857.828	4073.41
858.011	4077.51
858.194	3864.52
858.377	4425.66
858.56	3737.54
858.743	4050.88
858.926	3889.09
859.109	4253.63
859.292	3905.48
859.475	3633.1
859.658	4476.86
859.841	4339.65
860.023	3839.94
860.206	3807.17
860.389	4145.09
860.572	4495.29
860.755	3968.96
860.937	3860.42
861.12	4163.52
861.303	4061.12
861.486	3928
861.668	3905.48
861.851	4224.96
862.034	4181.95
862.216	4032.45
862.399	3649.48
862.581	4384.7
862.764	4540.35
862.947	3852.23
863.129	3700.68
863.312	3741.64
863.494	4425.66
863.677	4118.47
863.859	3491.79
864.042	4337.6
864.224	4278.21
864.406	3893.19
864.589	3452.88
864.771	4097.99
864.954	3747.78
865.136	3733.45
865.318	3477.45
865.501	4140.99
865.683	3647.43
865.865	3848.13
866.048	3680.2
866.23	4059.07
866.412	4032.45
866.594	3459.02
866.777	3665.86
866.959	4331.45
867.141	3948.48
867.323	3909.57
867.505	3827.65
867.687	3907.52
867.869	3979.2
868.052	3780.55
868.234	3645.38
868.416	3981.25
868.598	4067.27
868.78	3749.83
868.962	3598.28
869.144	4261.82
869.326	4327.36
869.508	3729.35
869.69	3706.82
869.872	3774.41
870.054	4364.22
870.236	3610.57
870.417	3680.2
870.599	3979.2
870.781	4358.08
870.963	3864.52
871.145	3649.48
871.327	3803.08
871.508	4149.18
871.69	3846.09
871.872	3809.22
872.054	4022.21
872.235	4081.6
872.417	3817.41
872.599	3639.24
872.78	4347.84
872.962	4036.55
873.144	3528.65
873.325	3588.04
873.507	4388.8
873.689	4188.1
873.87	3678.15
874.052	3731.4
874.233	3872.71
874.415	4241.34
874.596	3764.17
874.778	3700.68
874.959	4032.45
875.141	4437.95
875.322	3737.54
875.503	3704.78
875.685	4097.99
875.866	3463.12
876.048	3631.05
876.229	3807.17
876.41	4014.02
876.592	3989.44
876.773	3692.49
876.954	3559.37
877.136	4351.93
877.317	3870.66
877.498	3719.11
877.679	3919.81
877.86	4249.54
878.042	4059.07
878.223	3741.64
878.404	4165.57
878.585	4335.55
878.766	4536.25
878.947	3917.76
879.128	3942.34
879.309	4288.45
879.49	4388.8
879.672	3991.49
879.853	3936.2
880.034	3852.23
880.215	3975.11
880.396	3921.86
880.576	3907.52
880.757	4003.78
880.938	4517.82
881.119	3911.62
881.3	3823.56
881.481	3905.48
881.662	4900.79
881.843	3803.08
882.023	3733.45
882.204	4218.82
882.385	4233.15
882.566	4003.78
882.747	3860.42
882.927	4233.15
883.108	4319.17
883.289	4038.59
883.469	4184
883.65	4081.6
883.831	4294.59
884.011	4261.82
884.192	4081.6
884.373	4579.26
884.553	4591.55
884.734	4231.1
884.914	4401.08
885.095	5097.39
885.275	4896.69
885.456	4351.93
885.636	3938.24
885.817	4331.45
885.997	4425.66
886.178	4059.07
886.358	4237.25
886.538	4427.71
886.719	5199.79
886.899	4026.31
887.08	4227.01
887.26	4724.66
887.44	4229.06
887.621	4200.38
887.801	4227.01
887.981	5019.57
888.161	4642.75
888.342	4237.25
888.522	4331.45
888.702	4806.58
888.882	4917.17
889.062	4507.58
889.242	4138.94
889.423	4835.25
889.603	4636.6
889.783	4440
889.963	4294.59
890.143	4622.27
890.323	4753.34
890.503	4255.68
890.683	4310.97
890.863	4511.68
891.043	4767.67
891.223	4399.04
891.403	4440
891.583	4597.69
891.763	4444.09
891.943	4407.23
892.122	4280.25
892.302	4788.15
892.482	4442.04
892.662	4325.31
892.842	4407.23
893.022	4747.19
893.201	4401.08
893.381	4491.2
893.561	4466.62
893.741	4818.87
893.92	4710.33
894.1	4616.12
894.28	4444.09
894.459	4816.82
894.639	4761.53
894.819	4294.59
894.998	4417.47
895.178	4775.86
895.357	4798.39
895.537	4278.21
895.716	4261.82
895.896	4798.39
896.075	5097.39
896.255	4386.75
896.434	4046.79
896.614	4761.53
896.793	5181.36
896.973	4573.11
897.152	4450.24
897.331	4782.01
897.511	4818.87
897.69	4112.32
897.87	4507.58
898.049	4843.45
898.228	4579.26
898.407	4540.35
898.587	4415.42
898.766	4364.22
898.945	4779.96
899.124	4577.21
899.304	4499.39
899.483	4652.98
899.662	5105.59
899.841	4276.16
900.02	4284.35
900.199	4806.58
900.378	4712.38
900.557	4222.91
900.737	4288.45
900.916	4741.05
901.095	4732.86
901.274	4554.68
901.453	4059.07
901.632	4382.65
901.811	4392.89
901.989	4335.55
902.168	4376.51
902.347	4771.77
902.526	4515.77
902.705	4353.98
902.884	4540.35
903.063	4919.22
903.242	4888.5
903.42	4292.54
903.599	4366.27
903.778	4925.36
903.957	4978.61
904.135	4614.07
904.314	4384.7
904.493	4659.13
904.672	4722.62
904.85	4409.28
905.029	4458.43
905.207	4773.82
905.386	5199.79
905.565	4265.92
905.743	4140.99
905.922	4468.67
906.1	4886.45
906.279	4208.58
906.457	4239.3
906.636	4566.97
906.814	4536.25
906.993	4366.27
907.171	4181.95
907.35	4712.38
907.528	4669.37
907.707	4458.43
907.885	4155.33
908.063	4913.08
908.242	4280.25
908.42	4208.58
908.598	4114.37
908.777	4671.42
908.955	4392.89
909.133	4327.36
909.311	4073.41
909.49	4370.37
909.668	4362.17
909.846	4331.45
910.024	3848.13
910.202	4499.39
910.38	4595.64
910.559	3938.24
910.737	4057.03
910.915	4458.43
911.093	4495.29
911.271	4165.57
911.449	4368.32
911.627	4458.43
911.805	5048.24
911.983	4104.13
912.161	4048.83
912.339	4333.5
912.517	4614.07
912.695	4214.72
912.872	3995.59
913.05	4116.42
913.228	4413.37
913.406	4042.69
913.584	3971.01
913.762	4468.67
913.939	4310.97
914.117	3962.82
914.295	4016.07
914.473	4255.68
914.65	4364.22
914.828	4081.6
915.006	3950.53
915.184	3938.24
915.361	4433.85
915.539	4134.85
915.716	4208.58
915.894	4251.58
916.072	4433.85
916.249	4081.6
916.427	4132.8
916.604	3925.96
916.782	4313.02
916.959	3788.74
917.137	3862.47
917.314	4153.28
917.492	4222.91
917.669	4044.74
917.847	3946.44
918.024	4345.79
918.201	3856.33
918.379	3934.15
918.556	3882.95
918.733	4261.82
918.911	4106.18
919.088	3891.14
919.265	3758.02
919.442	4009.92
919.62	4044.74
919.797	3663.82
919.974	3540.94
920.151	4114.37
920.328	3880.9
920.506	3592.14
920.683	3944.39
920.86	3747.78
921.037	3803.08
921.214	3753.93
921.391	3690.44
921.568	4212.67
921.745	3743.69
921.922	3747.78
922.099	3639.24
922.276	4208.58
922.453	3876.8
922.63	3631.05
922.807	3897.28
922.984	3801.03
923.161	3743.69
923.338	3702.73
923.514	3547.08
923.691	3778.5
923.868	4011.97
924.045	3534.79
924.222	3325.9
924.399	3755.97
924.575	3766.21
924.752	3590.09
924.929	3542.99
925.105	4048.83
925.282	3561.42
925.459	3526.6
925.635	3614.66
925.812	3772.36
925.989	3606.47
926.165	3528.65
926.342	3303.37
926.518	3375.05
926.695	3577.8
926.871	3352.52
927.048	3291.09
927.224	3899.33
927.401	3583.95
927.577	3485.64
927.754	3332.05
927.93	3911.62
928.107	3880.9
928.283	3225.55
928.459	3508.17
928.636	3590.09
928.812	3432.4
928.988	3342.28
929.165	3035.09
929.341	3428.3
929.517	3391.44
929.693	3528.65
929.87	3016.66
930.046	3676.1
930.222	3475.4
930.398	3131.34
930.574	3332.05
930.751	3487.69
930.927	3231.69
931.103	3106.77
931.279	3127.25
931.455	3205.07
931.631	3424.2
931.807	3004.37
931.983	2877.4
932.159	3059.67
932.335	3327.95
932.511	3047.38
932.687	2916.31
932.863	3246.03
933.039	3151.82
933.215	2871.25
933.391	2863.06
933.566	3102.67
933.742	3160.02
933.918	2875.35
934.094	2715.61
934.27	3143.63
934.445	3160.02
934.621	2836.44
934.797	2660.31
934.973	3137.49
935.148	2936.79
935.324	2562.01
935.5	2283.49
935.675	3028.95
935.851	2899.92
936.027	2547.67
936.202	2594.78
936.378	2881.49
936.553	2793.43
936.729	2887.64
936.904	2303.96
937.08	2355.16
937.255	2430.94
937.431	2289.63
937.606	2185.18
937.782	2326.49
937.957	2547.67
938.133	2209.76
938.308	2019.3
938.483	2435.03
938.659	2060.26
938.834	2144.22
939.009	2027.49
939.185	2172.89
939.36	2078.69
939.535	1718.25
939.71	1923.04
939.886	2316.25
940.061	2234.33
940.236	1986.53
940.411	1910.75
940.586	2166.75
940.761	2090.98
940.937	1718.25
941.112	1785.83
941.287	1959.91
941.462	1990.63
941.637	1574.89
941.812	1648.61
941.987	1959.91
942.162	1867.75
942.337	1728.49
942.512	1548.26
942.687	2066.4
942.862	2043.87
943.037	1454.06
943.212	1284.08
943.386	1566.7
943.561	1796.07
943.736	1753.06
943.911	1849.32
944.086	1828.84
944.26	1871.84
944.435	1576.94
944.61	1656.81
944.785	1970.15
944.959	2160.61
945.134	1632.23
945.309	1396.71
945.483	1533.93
945.658	1927.14
945.833	1279.98
946.007	1400.81
946.182	2086.88
946.357	1474.54
946.531	1386.47
946.706	1343.47
946.88	1339.37
947.055	1845.22
947.229	1466.35
947.404	1458.15
947.578	1841.12
947.752	1728.49
947.927	1376.23
948.101	1357.8
948.276	1806.31
948.45	1691.62
948.624	1601.51
948.799	1351.66
948.973	1775.59
949.147	1443.82
949.321	1566.7
949.496	1497.07
949.67	1927.14
949.844	1759.21
950.018	1443.82
950.193	1470.44
950.367	2301.92
950.541	1708.01
950.715	1607.66
950.889	1566.7
951.063	1648.61
951.237	1826.79
951.411	1359.85
951.585	1279.98
951.759	1863.65
951.933	1710.05
952.107	1447.91
952.281	1693.67
952.455	2127.84
952.629	1849.32
952.803	1441.77
952.977	1312.75
953.151	2015.2
953.325	1869.8
953.499	1617.9
953.672	1359.85
953.846	1400.81
954.02	1634.28
954.194	1382.38
954.368	1472.49
954.541	1849.32
954.715	1548.26
954.889	1544.17
955.062	1443.82
955.236	1798.12
955.41	1632.23
955.583	1566.7
955.757	1322.99
955.93	1656.81
956.104	1568.74
956.278	1427.43
956.451	1533.93
956.625	1781.73
956.798	2035.68
956.972	1689.57
957.145	1458.15
957.319	1728.49
957.492	1628.14
957.665	1568.74
957.839	1357.8
958.012	1800.16
958.185	1632.23
958.359	1552.36
958.532	1531.88
958.705	1757.16
958.879	1740.77
959.052	1558.5
959.225	1245.16
959.398	1699.81
959.572	1794.02
959.745	1421.29
959.918	1507.3
960.091	1615.85
960.264	1771.49
960.438	1378.28
960.611	1355.76
960.784	1955.81
960.957	1519.59
961.13	1785.83
961.303	1300.46
961.476	1529.83
961.649	1875.94
961.822	1300.46
961.995	1394.67
962.168	1746.92
962.341	1669.09
962.514	1380.33
962.686	1390.57
962.859	1802.21
963.032	1742.82
963.205	1368.04
963.378	1312.75
963.551	1714.15
963.723	1578.98
963.896	1509.35
964.069	1595.37
964.242	1667.05
964.414	1847.27
964.587	1425.39
964.76	1517.54
964.932	1679.33
965.105	1572.84
965.278	1460.2
965.45	1322.99
965.623	1699.81
965.795	1765.35
965.968	1376.23
966.14	1417.19
966.313	1452.01
966.485	1634.28
966.658	1411.05
966.83	1339.37
967.003	1951.71
967.175	1898.47
967.348	1370.09
967.52	1382.38
967.692	1902.56
967.865	1806.31
968.037	1441.77
968.209	1679.33
968.382	1599.46
968.554	1763.3
968.726	1320.94
968.898	1269.74
969.071	1736.68
969.243	1748.97
969.415	1402.86
969.587	1343.47
969.759	2017.25
969.932	1787.88
970.104	1419.24
970.276	1071.09
970.448	1411.05
970.62	1419.24
970.792	1474.54
970.964	1353.71
971.136	2066.4
971.308	1708.01
971.48	1179.63
971.652	1406.95
971.824	1877.99
971.996	1472.49
972.168	1388.52
972.339	1355.76
972.511	1718.25
972.683	1411.05
972.855	1615.85
973.027	1374.19
973.199	1599.46
973.37	1781.73
973.542	1529.83
973.714	1499.11
973.886	1511.4
974.057	1755.11
974.229	1269.74
974.401	1265.64
974.572	1345.52
974.744	1073.14
974.915	1169.39
975.087	1341.42
975.259	1869.8
975.43	1402.86
975.602	1173.49
975.773	1101.81
975.945	1277.93
976.116	1581.03
976.288	1261.55
976.459	1347.56
976.63	1411.05
976.802	1669.09
976.973	1206.25
977.145	1386.47
977.316	1986.53
977.487	1574.89
977.659	1464.3
977.83	1271.79
978.001	1955.81
978.172	1501.16
978.344	1224.69
978.515	1273.84
978.686	1359.85
978.857	1746.92
979.028	1341.42
979.2	1187.82
979.371	1787.88
979.542	1492.97
979.713	1374.19
979.884	970.74
980.055	1267.69
980.226	1439.72
980.397	1161.2
980.568	1099.76
980.739	1712.1
980.91	1404.91
981.081	1368.04
981.252	1150.96
981.423	1550.31
981.594	1628.14
981.765	1140.72
981.936	1282.03
982.106	1415.15
982.277	1574.89
982.448	1185.77
982.619	1384.43
982.79	1384.43
982.96	1712.1
983.131	1206.25
983.302	952.31
983.472	1378.28
983.643	1531.88
983.814	1230.83
983.984	1017.84
984.155	1359.85
984.326	1599.46
984.496	1277.93
984.667	1144.81
984.837	1173.49
985.008	1630.18
985.178	1312.75
985.349	1298.41
985.519	1447.91
985.69	1175.53
985.86	1167.34
986.031	1110
986.201	1435.63
986.371	1525.74
986.542	1026.03
986.712	817.14
986.882	1472.49
987.053	1495.02
987.223	964.59
987.393	1136.62
987.563	1230.83
987.734	1486.83
987.904	1626.09
988.074	1021.94
988.244	1445.87
988.414	1007.6
988.585	821.24
988.755	1134.57
988.925	1325.04
989.095	1607.66
989.265	995.31
989.435	1185.77
989.605	1443.82
989.775	1417.19
989.945	1300.46
990.115	882.67
990.285	1284.08
990.455	1411.05
990.625	1103.86
990.795	997.36
990.965	1656.81
991.134	993.26
991.304	909.3
991.474	954.35
991.644	1255.4
991.814	1570.79
991.984	997.36
992.153	991.22
992.323	1257.45
992.493	1208.3
992.662	759.8
992.832	1167.34
993.002	1175.53
993.171	1333.23
993.341	851.95
993.511	1091.57
993.68	1046.51
993.85	1435.63
994.019	870.39
994.189	909.3
994.358	1302.51
994.528	1193.97
994.697	786.42
994.867	761.84
995.036	1357.8
995.206	1087.47
995.375	829.43
995.544	1054.7
995.714	1071.09
995.883	1091.57
996.052	1046.51
996.222	657.4
996.391	1599.46
996.56	1181.68
996.73	802.8
996.899	808.95
997.068	1578.98
997.237	1042.42
997.406	899.06
997.576	663.54
997.745	1169.39
997.914	1345.52
998.083	641.01
998.252	894.96
998.421	1261.55
998.59	1081.33
998.759	751.6
998.928	708.6
999.097	1447.91
999.266	1234.93
999.435	1038.32
999.604	561.14
999.773	1689.57
999.942	1167.34
1000.111	763.89
1000.28	694.26
1000.448	980.98
1000.617	886.77
1000.786	958.45
1000.955	716.79
1001.124	1181.68
1001.292	1640.42
1001.461	745.46
1001.63	751.6
1001.798	1523.69
1001.967	1462.25
1002.136	696.31
1002.304	694.26
1002.473	1083.38
1002.642	1083.38
1002.81	804.85
1002.979	704.5
1003.147	1259.5
1003.316	1578.98
1003.484	798.71
1003.653	788.47
1003.821	1239.02
1003.99	1050.61
1004.158	796.66
1004.327	878.58
1004.495	1208.3
1004.663	915.44
1004.832	919.54
1005	632.82
1005.168	1148.91
1005.337	1234.93
1005.505	641.01
1005.673	993.26
1005.842	1230.83
1006.01	1144.81
1006.178	718.84
1006.346	759.8
1006.514	1075.18
1006.683	1198.06
1006.851	626.68
1007.019	511.99
1007.187	911.35
1007.355	561.14
1007.523	448.51
1007.691	542.71
1007.859	612.34
1008.027	1322.99
1008.195	729.08
1008.363	483.32
1008.531	1120.24
1008.699	829.43
1008.867	524.28
1009.035	735.22
1009.203	1239.02
1009.37	933.87
1009.538	686.07
1009.706	1083.38
1009.874	1060.85
1010.042	917.49
1010.209	466.94
1010.377	610.29
1010.545	1198.06
1010.713	997.36
1010.88	509.94
1011.048	673.78
1011.216	866.29
1011.383	1304.56
1011.551	643.06
1011.718	468.98
1011.886	1062.9
1012.054	962.55
1012.221	520.18
1012.389	505.85
1012.556	839.67
1012.724	1282.03
1012.891	698.36
1013.058	391.16
1013.226	999.41
1013.393	1077.23
1013.561	442.36
1013.728	448.51
1013.895	1103.86
1014.063	1003.5
1014.23	358.39
1014.397	501.75
1014.565	1179.63
1014.732	821.24
1014.899	405.5
1015.066	417.79
1015.233	821.24
1015.401	1050.61
1015.568	600.05
1015.735	600.05
1015.902	935.92
1016.069	849.91
1016.236	544.76
1016.403	425.98
1016.57	677.88
1016.737	960.5
1016.904	653.3
1017.071	395.26
1017.238	526.33
1017.405	1058.8
1017.572	499.7
1017.739	669.69
1017.906	899.06
1018.073	999.41
1018.24	471.03
1018.407	481.27
1018.573	1073.14
1018.74	839.67
1018.907	550.9
1019.074	346.11
1019.241	968.69
1019.407	759.8
1019.574	409.59
1019.741	317.44
1019.907	868.34
1020.074	919.54
1020.241	88.06
1020.407	317.44
1020.574	880.63
1020.74	845.81
1020.907	450.55
1021.073	364.54
1021.24	1392.62
1021.406	1105.9
1021.573	452.6
1021.739	389.11
1021.906	1011.7
1022.072	673.78
1022.239	430.07
1022.405	403.45
1022.571	772.08
1022.738	661.49
1022.904	370.68
1023.07	423.93
1023.237	767.99
1023.403	1159.15
1023.569	428.03
1023.735	366.59
1023.902	815.09
1024.068	722.93
1024.234	233.47
1024.4	350.2
1024.566	823.28
1024.732	940.02
1024.898	288.76
1025.065	239.61
1025.231	931.83
1025.397	649.21
1025.563	411.64
1025.729	294.91
1025.895	262.14
1026.061	454.65
1026.227	143.36
1026.392	370.68
1026.558	952.31
1026.724	886.77
1026.89	253.95
1027.056	360.44
1027.222	776.18
1027.388	618.49
1027.553	364.54
1027.719	301.05
1027.885	1015.79
1028.051	796.66
1028.216	143.36
1028.382	329.72
1028.548	907.25
1028.713	593.91
1028.879	174.08
1029.045	448.51
1029.21	968.69
1029.376	835.57
1029.541	417.79
1029.707	358.39
1029.873	790.52
1030.038	946.16
1030.204	239.61
1030.369	370.68
1030.534	886.77
1030.7	624.63
1030.865	370.68
1031.031	243.71
1031.196	784.37
1031.361	673.78
1031.527	161.79
1031.692	145.41
1031.857	253.95
1032.023	829.43
1032.188	167.93
1032.353	221.18
1032.518	976.88
1032.684	681.97
1032.849	83.97
1033.014	364.54
1033.179	864.24
1033.344	772.08
1033.509	350.2
1033.674	296.96
1033.839	763.89
1034.004	870.39
1034.17	243.71
1034.335	145.41
1034.5	466.94
1034.664	493.56
1034.829	223.23
1034.994	198.65
1035.159	606.2
1035.324	749.56
1035.489	235.52
1035.654	161.79
1035.819	931.83
1035.984	720.88
1036.148	305.15
1036.313	190.46
1036.478	837.62
1036.643	587.77
1036.807	174.08
1036.972	104.45
1037.137	927.73
1037.301	612.34
1037.466	-4.1
1037.631	313.34
1037.795	819.19
1037.96	702.45
1038.124	411.64
1038.289	126.97
1038.454	722.93
1038.618	753.65
1038.783	215.04
1038.947	243.71
1039.111	587.77
1039.276	481.27
1039.44	178.17
1039.605	708.6
1039.769	557.05
1039.933	487.42
1040.098	358.39
1040.262	399.35
1040.426	731.12
1040.591	741.36
1040.755	83.97
1040.919	174.08
1041.083	702.45
1041.248	612.34
1041.412	-61.44
1041.576	112.64
1041.74	489.46
1041.904	767.99
1042.068	165.89
1042.232	192.51
1042.397	735.22
1042.561	511.99
1042.725	-71.68
1042.889	264.19
1043.053	684.02
1043.217	657.4
1043.381	339.96
1043.544	75.77
1043.708	796.66
1043.872	430.07
1044.036	-79.87
1044.2	38.91
1044.364	876.53
1044.528	847.86
1044.691	3590.09
1044.855	-55.3
1045.019	739.32
1045.183	589.81
1045.346	153.6
1045.51	18.43
1045.674	630.77
1045.837	700.41
1046.001	96.25
1046.165	198.65
1046.328	1009.65
1046.492	575.48
1046.655	241.66
1046.819	147.45
1046.983	403.45
1047.146	604.15
1047.31	145.41
1047.473	-61.44
1047.636	468.98
1047.8	321.53
1047.963	157.69
1048.127	30.72
1048.29	309.24
