Data from Ink_Intensity_USB4F045381__158__00158.txt Node

Date: Mon Jul 17 11:32:07 EDT 2023
User: mmckonesweet
Spectrometer: USB4F04538
Trigger mode: 4
Integration Time (sec): 9.000000E-1
Scans to average: 1
Electric dark correction enabled: true
Nonlinearity correction enabled: false
Boxcar width: 0
XAxis mode: Wavelengths
Number of Pixels in Spectrum: 3648
>>>>>Begin Spectral Data<<<<<
345.52	-996.85
345.736	-996.85
345.952	-996.85
346.168	-1029.62
346.384	-1017.33
346.6	-83.45
346.816	-265.72
347.032	-173.57
347.248	281.08
347.464	-282.11
347.68	-95.74
347.896	51.71
348.112	414.2
348.328	-91.65
348.544	-24.06
348.76	18.94
348.975	250.36
349.191	-288.25
349.407	-204.28
349.623	68.09
349.839	-11.78
350.055	-105.98
350.27	-52.74
350.486	215.55
350.702	326.14
350.918	254.46
351.133	-153.09
351.349	158.21
351.565	397.82
351.781	-204.28
351.996	27.14
352.212	211.45
352.428	-142.85
352.644	-267.77
352.859	-255.48
353.075	299.52
353.291	-62.98
353.506	-26.11
353.722	-249.34
353.938	-46.59
354.153	393.72
354.369	109.05
354.584	-271.87
354.8	236.03
355.016	-323.07
355.231	-228.86
355.447	-124.41
355.662	133.63
355.878	834.04
356.093	-316.92
356.309	-46.59
356.524	-222.72
356.74	305.66
356.955	-251.39
357.171	-165.37
357.386	55.81
357.602	-185.85
357.817	-91.65
358.033	-187.9
358.248	381.43
358.464	131.58
358.679	-179.71
358.895	-290.3
359.11	2.56
359.325	289.28
359.541	-3.58
359.756	35.33
359.972	-261.63
360.187	176.64
360.402	-296.44
360.618	-132.61
360.833	928.24
361.048	145.92
361.264	-247.29
361.479	-13.82
361.694	-17.92
361.909	221.69
362.125	-192
362.34	-218.62
362.555	281.08
362.77	90.62
362.986	-374.27
363.201	-192
363.416	207.36
363.631	72.19
363.847	-224.76
364.062	-194.05
364.277	199.16
364.492	109.05
364.707	-159.23
364.922	-372.22
365.138	276.99
365.353	322.04
365.568	-345.59
365.783	-161.28
365.998	39.42
366.213	571.9
366.428	-271.87
366.643	82.43
366.858	217.6
367.073	215.55
367.288	-132.61
367.503	-251.39
367.718	104.96
367.933	326.14
368.148	-275.96
368.363	-79.36
368.578	-50.69
368.793	410.11
369.008	-179.71
369.223	-267.77
369.438	264.7
369.653	379.39
369.868	-329.21
370.083	-251.39
370.298	84.48
370.513	348.67
370.728	49.66
370.943	-235
371.157	-175.61
371.372	510.46
371.587	-349.69
371.802	-372.22
372.017	-52.74
372.232	475.64
372.446	-116.22
372.661	-335.35
372.876	160.25
373.091	207.36
373.306	-97.79
373.52	-284.16
373.735	-163.33
373.95	453.11
374.165	-140.8
374.379	-148.99
374.594	-87.55
374.809	80.38
375.023	10.75
375.238	-232.96
375.453	252.41
375.667	-255.48
375.882	-239.1
376.097	-189.95
376.311	-32.26
376.526	-7.68
376.741	-275.96
376.955	207.36
377.17	551.42
377.384	518.65
377.599	-83.45
377.813	-280.06
378.028	524.79
378.242	133.63
378.457	-148.99
378.672	-370.17
378.886	92.67
379.101	-17.92
379.315	-335.35
379.53	-116.22
379.744	193.02
379.958	119.29
380.173	-144.89
380.387	-210.43
380.602	193.02
380.816	-118.27
381.031	-134.65
381.245	-169.47
381.459	135.68
381.674	2804.18
381.888	-200.19
382.103	100.86
382.317	-198.14
382.531	408.06
382.746	-3.58
382.96	-232.96
383.174	-183.81
383.388	416.25
383.603	64
383.817	-337.4
384.031	117.25
384.246	416.25
384.46	-30.21
384.674	309.76
384.888	8.7
385.103	-62.98
385.317	-265.72
385.531	-17.92
385.745	330.23
385.959	354.81
386.174	-171.52
386.388	-321.02
386.602	37.38
386.816	-140.8
387.03	-65.02
387.244	-194.05
387.458	49.66
387.672	356.86
387.887	-294.4
388.101	-259.58
388.315	322.04
388.529	168.45
388.743	-169.47
388.957	-204.28
389.171	293.37
389.385	-247.29
389.599	-163.33
389.813	-19.97
390.027	199.16
390.241	670.2
390.455	-183.81
390.669	-126.46
390.883	-120.32
391.097	360.95
391.311	-40.45
391.525	-355.83
391.738	207.36
391.952	193.02
392.166	-89.6
392.38	-284.16
392.594	268.8
392.808	264.7
393.022	-91.65
393.236	-173.57
393.449	207.36
393.663	182.78
393.877	-298.49
394.091	-79.36
394.305	-97.79
394.518	-108.03
394.732	-333.31
394.946	-171.52
395.16	438.78
395.373	117.25
395.587	-241.15
395.801	-167.42
396.015	186.88
396.228	150.01
396.442	-327.16
396.656	-353.79
396.869	266.75
397.083	446.97
397.297	-120.32
397.51	-173.57
397.724	360.95
397.938	107.01
398.151	-370.17
398.365	-292.35
398.578	160.25
398.792	379.39
399.005	-46.59
399.219	-161.28
399.433	88.57
399.646	203.26
399.86	-40.45
400.073	35.33
400.287	160.25
400.5	-58.88
400.714	43.52
400.927	-95.74
401.141	182.78
401.354	1049.07
401.567	215.55
401.781	-323.07
401.994	244.22
402.208	633.33
402.421	-128.51
402.635	-93.69
402.848	18.94
403.061	262.65
403.275	-32.26
403.488	-237.05
403.701	455.16
403.915	264.7
404.128	39.42
404.341	-173.57
404.555	205.31
404.768	18.94
404.981	-5.63
405.195	-245.24
405.408	430.59
405.621	178.69
405.834	8.7
406.048	-323.07
406.261	428.54
406.474	481.78
406.687	-241.15
406.9	0.51
407.114	68.09
407.327	145.92
407.54	-349.69
407.753	-316.92
407.966	-130.56
408.179	199.16
408.392	-265.72
408.605	-366.07
408.819	143.87
409.032	117.25
409.245	-224.76
409.458	14.85
409.671	242.17
409.884	246.27
410.097	-312.83
410.31	12.8
410.523	313.85
410.736	-54.78
410.949	-194.05
411.162	-144.89
411.375	406.01
411.588	281.08
411.801	43.52
412.014	-235
412.227	43.52
412.44	-34.3
412.653	-192
412.865	59.9
413.078	199.16
413.291	219.64
413.504	-112.13
413.717	-218.62
413.93	199.16
414.143	-159.23
414.356	-140.8
414.568	-355.83
414.781	285.18
414.994	154.11
415.207	-83.45
415.42	-204.28
415.632	252.41
415.845	524.79
416.058	-286.2
416.271	-325.12
416.483	129.53
416.696	483.83
416.909	-200.19
417.121	-202.24
417.334	178.69
417.547	492.02
417.759	-134.65
417.972	-237.05
418.185	-48.64
418.397	250.36
418.61	-251.39
418.823	-177.66
419.035	410.11
419.248	-42.5
419.46	-157.18
419.673	-75.26
419.885	104.96
420.098	-62.98
420.311	-298.49
420.523	-407.03
420.736	244.22
420.948	68.09
421.161	-136.7
421.373	-329.21
421.586	94.72
421.798	-126.46
422.01	-312.83
422.223	-85.5
422.435	-103.93
422.648	244.22
422.86	-288.25
423.073	-210.43
423.285	289.28
423.497	-237.05
423.71	-239.1
423.922	-177.66
424.134	154.11
424.347	424.44
424.559	27.14
424.771	98.81
424.984	-46.59
425.196	92.67
425.408	-364.03
425.621	-353.79
425.833	250.36
426.045	291.32
426.257	-337.4
426.47	-214.52
426.682	125.44
426.894	154.11
427.106	-169.47
427.318	-91.65
427.531	-69.12
427.743	168.45
427.955	-198.14
428.167	250.36
428.379	211.45
428.591	-112.13
428.804	-146.94
429.016	-284.16
429.228	-54.78
429.44	201.21
429.652	0.51
429.864	-308.73
430.076	-58.88
430.288	-87.55
430.5	-130.56
430.712	-122.37
430.924	295.42
431.136	68.09
431.348	-259.58
431.56	-247.29
431.772	25.09
431.984	-85.5
432.196	-208.38
432.408	-175.61
432.62	-38.4
432.832	74.24
433.044	86.53
433.256	-62.98
433.468	174.59
433.679	-194.05
433.891	-294.4
434.103	-19.97
434.315	379.39
434.527	154.11
434.739	-42.5
434.95	-157.18
435.162	199.16
435.374	-65.02
435.586	-165.37
435.798	-226.81
436.009	-200.19
436.221	-19.97
436.433	-165.37
436.645	-114.17
436.856	-124.41
437.068	328.19
437.28	-220.67
437.491	72.19
437.703	125.44
437.915	141.82
438.126	-206.33
438.338	57.86
438.55	10.75
438.761	211.45
438.973	-175.61
439.184	-237.05
439.396	10.75
439.608	174.59
439.819	-255.48
440.031	-122.37
440.242	297.47
440.454	156.16
440.665	-161.28
440.877	-120.32
441.088	84.48
441.3	-62.98
441.511	-321.02
441.723	-308.73
441.934	178.69
442.146	109.05
442.357	-81.41
442.569	168.45
442.78	37.38
442.991	451.07
443.203	80.38
443.414	-306.68
443.626	444.92
443.837	-124.41
444.048	-306.68
444.26	-372.22
444.471	115.2
444.682	190.97
444.894	-298.49
445.105	-374.27
445.316	188.93
445.528	84.48
445.739	-103.93
445.95	-202.24
446.161	178.69
446.373	297.47
446.584	-202.24
446.795	-185.85
447.006	272.89
447.217	391.67
447.429	-325.12
447.64	-308.73
447.851	451.07
448.062	84.48
448.273	-443.9
448.484	-241.15
448.695	213.5
448.907	-32.26
449.118	-159.23
449.329	80.38
449.54	-46.59
449.751	-177.66
449.962	-226.81
450.173	-220.67
450.384	264.7
450.595	371.19
450.806	-232.96
451.017	-128.51
451.228	326.14
451.439	213.5
451.65	-185.85
451.861	-435.71
452.072	-259.58
452.283	-54.78
452.494	-28.16
452.705	-228.86
452.915	449.02
453.126	84.48
453.337	-116.22
453.548	-118.27
453.759	289.28
453.97	575.99
454.181	-62.98
454.391	-177.66
454.602	125.44
454.813	141.82
455.024	-189.95
455.235	-173.57
455.445	117.25
455.656	166.4
455.867	-30.21
456.078	-292.35
456.288	-134.65
456.499	178.69
456.71	-306.68
456.921	102.91
457.131	131.58
457.342	100.86
457.553	-69.12
457.763	-208.38
457.974	193.02
458.184	264.7
458.395	-355.83
458.606	-366.07
458.816	297.47
459.027	475.64
459.237	-52.74
459.448	-392.7
459.659	363
459.869	582.14
460.08	-386.55
460.29	-79.36
460.501	463.35
460.711	-95.74
460.922	-337.4
461.132	-265.72
461.343	772.6
461.553	-265.72
461.764	-239.1
461.974	-183.81
462.184	221.69
462.395	158.21
462.605	-247.29
462.816	-251.39
463.026	147.97
463.236	297.47
463.447	-335.35
463.657	-153.09
463.867	182.78
464.078	-85.5
464.288	-200.19
464.498	-177.66
464.709	20.99
464.919	-62.98
465.129	-169.47
465.339	-310.78
465.55	178.69
465.76	201.21
465.97	-249.34
466.18	-198.14
466.391	231.93
466.601	125.44
466.811	-163.33
467.021	-361.98
467.231	74.24
467.441	268.8
467.651	-226.81
467.862	-497.14
468.072	20.99
468.282	297.47
468.492	-318.97
468.702	-148.99
468.912	-15.87
469.122	575.99
469.332	10.75
469.542	-288.25
469.752	178.69
469.962	-34.3
470.172	-425.47
470.382	-271.87
470.592	252.41
470.802	281.08
471.012	-101.89
471.222	-275.96
471.432	184.83
471.642	184.83
471.852	-118.27
472.062	-327.16
472.272	-15.87
472.482	-232.96
472.691	-323.07
472.901	-337.4
473.111	70.14
473.321	559.61
473.531	-357.88
473.741	-185.85
473.95	174.59
474.16	233.98
474.37	-187.9
474.58	-325.12
474.79	436.73
474.999	135.68
475.209	-239.1
475.419	-226.81
475.628	-15.87
475.838	274.94
476.048	-128.51
476.258	-384.51
476.467	346.62
476.677	-99.84
476.886	-126.46
477.096	-226.81
477.306	-101.89
477.515	348.67
477.725	-124.41
477.935	-103.93
478.144	268.8
478.354	-126.46
478.563	-271.87
478.773	-306.68
478.982	211.45
479.192	315.9
479.401	-87.55
479.611	-284.16
479.82	-153.09
480.03	76.29
480.239	-241.15
480.449	-419.32
480.658	367.1
480.868	-159.23
481.077	-148.99
481.287	-222.72
481.496	203.26
481.705	358.91
481.915	14.85
482.124	2.56
482.333	107.01
482.543	383.48
482.752	-112.13
482.961	-194.05
483.171	162.3
483.38	-7.68
483.589	-196.09
483.799	-263.68
484.008	10.75
484.217	221.69
484.426	-267.77
484.636	-382.46
484.845	109.05
485.054	-239.1
485.263	78.33
485.472	-308.73
485.682	412.15
485.891	135.68
486.1	-407.03
486.309	-247.29
486.518	178.69
486.727	305.66
486.936	-327.16
487.146	-50.69
487.355	408.06
487.564	-163.33
487.773	-304.64
487.982	-325.12
488.191	-157.18
488.4	100.86
488.609	-208.38
488.818	-296.44
489.027	649.72
489.236	317.95
489.445	-214.52
489.654	-239.1
489.863	279.04
490.072	31.23
490.281	72.19
490.49	-249.34
490.698	358.91
490.907	358.91
491.116	-263.68
491.325	-308.73
491.534	420.35
491.743	141.82
491.952	-165.37
492.16	-192
492.369	246.27
492.578	272.89
492.787	-171.52
492.996	-349.69
493.204	-189.95
493.413	485.88
493.622	-447.99
493.831	-427.51
494.039	326.14
494.248	-288.25
494.457	-247.29
494.665	-374.27
494.874	231.93
495.083	571.9
495.291	-218.62
495.5	-300.54
495.709	131.58
495.917	43.52
496.126	-112.13
496.335	-216.57
496.543	-69.12
496.752	86.53
496.96	-30.21
497.169	-413.18
497.377	-56.83
497.586	272.89
497.794	-144.89
498.003	-394.75
498.211	10.75
498.42	330.23
498.628	-177.66
498.837	-357.88
499.045	123.39
499.254	31.23
499.462	-263.68
499.671	-312.83
499.879	449.02
500.087	270.84
500.296	-278.01
500.504	-235
500.713	53.76
500.921	557.56
501.129	-310.78
501.338	-349.69
501.546	86.53
501.754	61.95
501.962	-263.68
502.171	-366.07
502.379	76.29
502.587	387.58
502.795	-222.72
503.004	-198.14
503.212	94.72
503.42	330.23
503.628	-267.77
503.837	-56.83
504.045	229.88
504.253	444.92
504.461	-161.28
504.669	-468.47
504.877	190.97
505.085	348.67
505.294	-421.37
505.502	-38.4
505.71	119.29
505.918	244.22
506.126	-298.49
506.334	-329.21
506.542	23.04
506.75	53.76
506.958	-118.27
507.166	-165.37
507.374	-30.21
507.582	571.9
507.79	-126.46
507.998	-273.92
508.206	123.39
508.414	184.83
508.622	-282.11
508.83	-228.86
509.037	522.74
509.245	-38.4
509.453	-267.77
509.661	-361.98
509.869	201.21
510.077	41.47
510.285	-144.89
510.492	-505.34
510.7	682.49
510.908	-116.22
511.116	-192
511.324	-306.68
511.531	-83.45
511.739	82.43
511.947	-110.08
512.155	92.67
512.362	84.48
512.57	-167.42
512.778	-278.01
512.985	-404.99
513.193	324.09
513.401	453.11
513.608	-173.57
513.816	-290.3
514.024	178.69
514.231	363
514.439	-278.01
514.646	-294.4
514.854	223.74
515.061	256.51
515.269	-265.72
515.477	-269.82
515.684	-173.57
515.892	338.43
516.099	-497.14
516.307	-361.98
516.514	266.75
516.722	442.87
516.929	-112.13
517.136	-355.83
517.344	440.83
517.551	80.38
517.759	-314.88
517.966	-216.57
518.173	12.8
518.381	55.81
518.588	-140.8
518.796	-353.79
519.003	221.69
519.21	18.94
519.418	-235
519.625	39.42
519.832	-11.78
520.039	92.67
520.247	-435.71
520.454	-210.43
520.661	283.13
520.868	219.64
521.076	-155.13
521.283	-159.23
521.49	657.91
521.697	121.34
521.904	-187.9
522.112	-208.38
522.319	207.36
522.526	203.26
522.733	-345.59
522.94	-292.35
523.147	72.19
523.354	223.74
523.561	-419.32
523.768	-136.7
523.975	201.21
524.183	45.57
524.39	-218.62
524.597	-388.6
524.804	88.57
525.011	-144.89
525.218	-353.79
525.425	-284.16
525.632	391.67
525.838	-118.27
526.045	-235
526.252	-259.58
526.459	1133.04
526.666	905.71
526.873	-333.31
527.08	-235
527.287	422.39
527.494	262.65
527.701	-380.41
527.907	-325.12
528.114	72.19
528.321	-38.4
528.528	-128.51
528.735	-300.54
528.941	-60.93
529.148	-91.65
529.355	-155.13
529.562	-329.21
529.768	498.17
529.975	-54.78
530.182	-235
530.388	-249.34
530.595	252.41
530.802	-212.48
531.008	-22.02
531.215	-278.01
531.422	481.78
531.628	813.56
531.835	-144.89
532.042	-165.37
532.248	-103.93
532.455	139.77
532.661	-181.76
532.868	-257.53
533.074	-36.35
533.281	287.23
533.487	-185.85
533.694	-263.68
533.9	-136.7
534.107	260.6
534.313	-353.79
534.52	-323.07
534.726	285.18
534.933	518.65
535.139	-353.79
535.345	-372.22
535.552	174.59
535.758	70.14
535.965	-267.77
536.171	-206.33
536.377	260.6
536.584	399.87
536.79	-288.25
536.996	-116.22
537.203	70.14
537.409	201.21
537.615	-192
537.821	-48.64
538.028	225.79
538.234	193.02
538.44	-214.52
538.646	-128.51
538.853	137.73
539.059	14.85
539.265	160.25
539.471	-437.75
539.677	297.47
539.883	-15.87
540.09	-226.81
540.296	223.74
540.502	-34.3
540.708	-132.61
540.914	-58.88
541.12	-175.61
541.326	133.63
541.532	2.56
541.738	-151.04
541.944	-128.51
542.15	266.75
542.356	12.8
542.562	-278.01
542.768	-243.2
542.974	619
543.18	569.85
543.386	-198.14
543.592	-421.37
543.798	385.53
544.004	236.03
544.21	-235
544.415	-130.56
544.621	88.57
544.827	401.91
545.033	-312.83
545.239	39.42
545.445	-185.85
545.651	186.88
545.856	-243.2
546.062	-187.9
546.268	-95.74
546.474	31.23
546.679	-237.05
546.885	-183.81
547.091	-67.07
547.297	662.01
547.502	-124.41
547.708	-312.83
547.914	-46.59
548.119	276.99
548.325	-284.16
548.531	-333.31
548.736	465.4
548.942	-128.51
549.147	-194.05
549.353	-75.26
549.559	385.53
549.764	176.64
549.97	-216.57
550.175	-226.81
550.381	285.18
550.586	-112.13
550.792	-163.33
550.997	-169.47
551.203	236.03
551.408	213.5
551.614	-325.12
551.819	-321.02
552.025	412.15
552.23	545.27
552.435	-232.96
552.641	-52.74
552.846	-30.21
553.052	369.15
553.257	-22.02
553.462	-153.09
553.668	-67.07
553.873	301.56
554.078	-214.52
554.283	-290.3
554.489	98.81
554.694	76.29
554.899	-296.44
555.105	-93.69
555.31	213.5
555.515	313.85
555.72	-177.66
555.925	-308.73
556.131	287.23
556.336	-79.36
556.541	-153.09
556.746	-237.05
556.951	401.91
557.156	375.29
557.361	-103.93
557.567	-42.5
557.772	563.7
557.977	293.37
558.182	-181.76
558.387	-222.72
558.592	-73.21
558.797	401.91
559.002	-122.37
559.207	41.47
559.412	84.48
559.617	535.03
559.822	-171.52
560.027	-321.02
560.232	94.72
560.437	332.28
560.642	-310.78
560.847	-212.48
561.051	129.53
561.256	164.35
561.461	-251.39
561.666	-325.12
561.871	197.12
562.076	309.76
562.281	-65.02
562.485	-259.58
562.69	283.13
562.895	322.04
563.1	-257.53
563.305	-228.86
563.509	434.68
563.714	623.09
563.919	-226.81
564.123	-198.14
564.328	27.14
564.533	330.23
564.737	-179.71
564.942	-165.37
565.147	520.7
565.351	633.33
565.556	-48.64
565.761	-89.6
565.965	211.45
566.17	-124.41
566.374	-136.7
566.579	-292.35
566.784	160.25
566.988	37.38
567.193	-374.27
567.397	-292.35
567.602	-185.85
567.806	51.71
568.011	-232.96
568.215	-140.8
568.42	-36.35
568.624	33.28
568.828	-194.05
569.033	-83.45
569.237	289.28
569.442	297.47
569.646	-347.64
569.85	-95.74
570.055	154.11
570.259	160.25
570.463	107.01
570.668	-128.51
570.872	109.05
571.076	84.48
571.281	49.66
571.485	-85.5
571.689	90.62
571.893	338.43
572.098	-15.87
572.302	-124.41
572.506	289.28
572.71	137.73
572.914	-134.65
573.119	-151.04
573.323	551.42
573.527	371.19
573.731	-167.42
573.935	-228.86
574.139	190.97
574.343	-22.02
574.547	-126.46
574.751	-171.52
574.955	459.26
575.159	363
575.364	-196.09
575.568	-294.4
575.772	102.91
575.976	459.26
576.18	-157.18
576.383	-310.78
576.587	440.83
576.791	233.98
576.995	-370.17
577.199	-386.55
577.403	317.95
577.607	342.52
577.811	-265.72
578.015	-67.07
578.219	223.74
578.422	320
578.626	-71.17
578.83	2.56
579.034	457.21
579.238	281.08
579.442	-230.91
579.645	256.51
579.849	8.7
580.053	152.06
580.257	-132.61
580.46	-50.69
580.664	371.19
580.868	279.04
581.071	10.75
581.275	-65.02
581.479	-161.28
581.682	379.39
581.886	-220.67
582.09	-81.41
582.293	346.62
582.497	295.42
582.7	78.33
582.904	-218.62
583.107	203.26
583.311	139.77
583.515	-30.21
583.718	-28.16
583.922	356.86
584.125	659.96
584.329	-183.81
584.532	-19.97
584.735	465.4
584.939	342.52
585.142	-235
585.346	-288.25
585.549	291.32
585.753	43.52
585.956	-73.21
586.159	37.38
586.363	621.05
586.566	236.03
586.769	-116.22
586.973	-239.1
587.176	297.47
587.379	432.63
587.582	231.93
587.786	135.68
587.989	197.12
588.192	793.08
588.395	-1.54
588.599	221.69
588.802	348.67
589.005	350.71
589.208	-11.78
589.411	-128.51
589.615	438.78
589.818	485.88
590.021	90.62
590.224	-26.11
590.427	428.54
590.63	375.29
590.833	-210.43
591.036	-132.61
591.239	2.56
591.442	127.49
591.645	88.57
591.848	-148.99
592.051	285.18
592.254	418.3
592.457	-91.65
592.66	-44.54
592.863	39.42
593.066	301.56
593.269	-108.03
593.472	82.43
593.675	61.95
593.878	397.82
594.081	8.7
594.284	-118.27
594.486	363
594.689	248.32
594.892	-19.97
595.095	-65.02
595.298	266.75
595.5	94.72
595.703	-1.54
595.906	-36.35
596.109	543.22
596.311	412.15
596.514	-269.82
596.717	-50.69
596.92	508.41
597.122	307.71
597.325	-226.81
597.528	-128.51
597.73	522.74
597.933	205.31
598.136	-13.82
598.338	-302.59
598.541	365.05
598.743	506.36
598.946	35.33
599.148	-3.58
599.351	602.61
599.554	449.02
599.756	43.52
599.959	-24.06
600.161	584.18
600.363	813.56
600.566	254.46
600.768	6.66
600.971	645.62
601.173	506.36
601.376	-140.8
601.578	-44.54
601.78	461.3
601.983	809.46
602.185	-50.69
602.388	281.08
602.59	363
602.792	109.05
602.995	229.88
603.197	-50.69
603.399	498.17
603.601	387.58
603.804	88.57
604.006	-54.78
604.208	248.32
604.41	-128.51
604.613	205.31
604.815	-95.74
605.017	817.65
605.219	131.58
605.421	332.28
605.623	-34.3
605.826	641.53
606.028	559.61
606.23	18.94
606.432	94.72
606.634	741.88
606.836	653.81
607.038	-79.36
607.24	248.32
607.442	342.52
607.644	311.8
607.846	162.3
608.048	-52.74
608.25	635.38
608.452	102.91
608.654	61.95
608.856	-189.95
609.058	270.84
609.26	379.39
609.462	188.93
609.664	86.53
609.866	770.55
610.067	545.27
610.269	219.64
610.471	68.09
610.673	299.52
610.875	477.69
611.077	-173.57
611.278	201.21
611.48	395.77
611.682	766.45
611.884	231.93
612.085	76.29
612.287	145.92
612.489	418.3
612.69	-73.21
612.892	150.01
613.094	598.52
613.295	346.62
613.497	-11.78
613.699	41.47
613.9	682.49
614.102	459.26
614.304	180.73
614.505	-48.64
614.707	227.84
614.908	334.33
615.11	-13.82
615.311	143.87
615.513	506.36
615.714	551.42
615.916	-24.06
616.117	178.69
616.319	346.62
616.52	489.98
616.722	23.04
616.923	27.14
617.124	735.73
617.326	526.84
617.527	172.54
617.729	346.62
617.93	485.88
618.131	532.98
618.333	-11.78
618.534	100.86
618.735	266.75
618.937	653.81
619.138	-60.93
619.339	10.75
619.54	457.21
619.742	301.56
619.943	219.64
620.144	145.92
620.345	608.76
620.546	659.96
620.748	78.33
620.949	115.2
621.15	363
621.351	485.88
621.552	80.38
621.753	-62.98
621.954	78.33
622.155	801.27
622.356	-26.11
622.558	414.2
622.759	326.14
622.96	735.73
623.161	121.34
623.362	76.29
623.563	379.39
623.764	436.73
623.965	111.1
624.166	346.62
624.366	242.17
624.567	500.22
624.768	-163.33
624.969	109.05
625.17	315.9
625.371	508.41
625.572	270.84
625.773	8.7
625.973	596.47
626.174	573.94
626.375	242.17
626.576	256.51
626.777	604.66
626.977	961.01
627.178	109.05
627.379	217.6
627.58	303.61
627.78	420.35
627.981	219.64
628.182	289.28
628.382	793.08
628.583	117.25
628.784	55.81
628.984	340.47
629.185	651.77
629.386	631.29
629.586	258.56
629.787	109.05
629.987	584.18
630.188	498.17
630.388	268.8
630.589	244.22
630.79	979.44
630.99	512.5
631.191	272.89
631.391	336.38
631.591	625.14
631.792	707.06
631.992	324.09
632.193	133.63
632.393	866.8
632.594	440.83
632.794	100.86
632.994	356.86
633.195	451.07
633.395	428.54
633.595	137.73
633.796	381.43
633.996	238.08
634.196	692.73
634.397	35.33
634.597	236.03
634.797	291.32
634.997	854.51
635.198	412.15
635.398	121.34
635.598	571.9
635.798	805.36
635.998	662.01
636.199	154.11
636.399	289.28
636.599	373.24
636.799	195.07
636.999	494.07
637.199	573.94
637.399	784.88
637.599	182.78
637.799	381.43
637.999	279.04
638.199	788.98
638.399	129.53
638.599	240.12
638.799	657.91
638.999	961.01
639.199	422.39
639.399	320
639.599	879.09
639.799	254.46
639.999	199.16
640.199	135.68
640.399	606.71
640.599	547.32
640.799	338.43
640.998	520.7
641.198	864.75
641.398	645.62
641.598	358.91
641.798	332.28
641.997	1382.89
642.197	506.36
642.397	381.43
642.597	254.46
642.796	602.61
642.996	850.42
643.196	346.62
643.395	225.79
643.595	623.09
643.795	150.01
643.994	281.08
644.194	352.76
644.394	743.92
644.593	649.72
644.793	102.91
644.992	424.44
645.192	619
645.392	133.63
645.591	393.72
645.791	283.13
645.99	739.83
646.19	504.31
646.389	324.09
646.589	397.82
646.788	745.97
646.987	639.48
647.187	596.47
647.386	465.4
647.586	578.04
647.785	809.46
647.984	313.85
648.184	393.72
648.383	516.6
648.582	514.55
648.782	311.8
648.981	428.54
649.18	330.23
649.38	702.97
649.579	297.47
649.778	360.95
649.977	709.11
650.177	698.87
650.376	289.28
650.575	397.82
650.774	952.82
650.973	352.76
651.173	209.4
651.372	444.92
651.571	659.96
651.77	797.17
651.969	401.91
652.168	520.7
652.367	356.86
652.566	592.37
652.765	320
652.964	637.43
653.163	1102.32
653.362	707.06
653.561	311.8
653.76	403.96
653.959	502.26
654.158	702.97
654.357	561.66
654.556	436.73
654.755	815.6
654.954	788.98
655.153	424.44
655.352	578.04
655.551	963.06
655.749	444.92
655.948	502.26
656.147	633.33
656.346	780.79
656.545	612.85
656.743	500.22
656.942	420.35
657.141	731.64
657.34	451.07
657.538	369.15
657.737	479.74
657.936	573.94
658.135	727.54
658.333	346.62
658.532	481.78
658.731	1130.99
658.929	915.95
659.128	670.2
659.326	399.87
659.525	954.87
659.724	645.62
659.922	158.21
660.121	244.22
660.319	793.08
660.518	506.36
660.716	354.81
660.915	377.34
661.113	944.63
661.312	311.8
661.51	580.09
661.709	457.21
661.907	788.98
662.105	1100.27
662.304	502.26
662.502	508.41
662.701	999.92
662.899	612.85
663.097	874.99
663.296	305.66
663.494	950.77
663.692	1069.55
663.891	422.39
664.089	403.96
664.287	793.08
664.485	1073.65
664.684	307.71
664.882	608.76
665.08	616.95
665.278	823.8
665.476	385.53
665.675	762.36
665.873	1100.27
666.071	1038.83
666.269	432.63
666.467	698.87
666.665	780.79
666.863	760.31
667.061	664.05
667.259	561.66
667.457	764.4
667.655	879.09
667.853	387.58
668.051	682.49
668.249	494.07
668.447	942.58
668.645	438.78
668.843	731.64
669.041	961.01
669.239	610.81
669.437	694.77
669.635	733.68
669.833	616.95
670.031	874.99
670.229	598.52
670.426	633.33
670.624	670.2
670.822	582.14
671.02	621.05
671.218	633.33
671.415	557.56
671.613	817.65
671.811	657.91
672.009	608.76
672.206	1067.5
672.404	776.69
672.602	748.02
672.799	684.53
672.997	930.29
673.195	1122.8
673.392	672.25
673.59	510.46
673.788	985.58
673.985	399.87
674.183	750.07
674.38	627.19
674.578	1038.83
674.775	666.1
674.973	510.46
675.17	481.78
675.368	1184.24
675.565	948.72
675.763	610.81
675.96	528.89
676.158	1210.86
676.355	831.99
676.553	588.28
676.75	643.57
676.947	829.94
677.145	748.02
677.342	729.59
677.539	707.06
677.737	893.43
677.934	1300.97
678.131	721.4
678.329	678.39
678.526	1169.9
678.723	1018.35
678.92	786.93
679.118	647.67
679.315	645.62
679.512	1219.05
679.709	776.69
679.906	707.06
680.104	1149.42
680.301	866.8
680.498	477.69
680.695	502.26
680.892	809.46
681.089	811.51
681.286	666.1
681.483	563.7
681.68	1042.93
681.877	1118.7
682.075	702.97
682.272	770.55
682.469	997.87
682.665	700.92
682.862	549.37
683.059	524.79
683.256	987.63
683.453	858.61
683.65	797.17
683.847	750.07
684.044	942.58
684.241	688.63
684.438	793.08
684.635	500.22
684.831	1219.05
685.028	1399.27
685.225	616.95
685.422	846.32
685.619	809.46
685.815	1006.06
686.012	813.56
686.209	793.08
686.405	694.77
686.602	1087.98
686.799	555.51
686.996	522.74
687.192	619
687.389	1429.99
687.586	668.15
687.782	686.58
687.979	1174
688.175	1249.77
688.372	731.64
688.568	741.88
688.765	764.4
688.962	1360.36
689.158	879.09
689.355	487.93
689.551	1128.94
689.748	862.71
689.944	840.18
690.14	563.7
690.337	1104.37
690.533	834.04
690.73	870.9
690.926	801.27
691.123	1085.94
691.319	897.52
691.515	655.86
691.712	911.86
691.908	1126.89
692.104	997.87
692.301	913.91
692.497	649.72
692.693	1073.65
692.889	1135.09
693.086	889.33
693.282	575.99
693.478	965.11
693.674	1423.85
693.87	893.43
694.067	612.85
694.263	1171.95
694.459	977.39
694.655	872.95
694.851	877.04
695.047	1128.94
695.243	1247.72
695.439	862.71
695.635	739.83
695.831	1169.9
696.027	1094.13
696.224	725.49
696.42	1069.55
696.615	1407.47
696.811	1182.19
697.007	690.68
697.203	805.36
697.399	1059.31
697.595	1327.6
697.791	715.25
697.987	903.67
698.183	858.61
698.379	807.41
698.575	813.56
698.77	848.37
698.966	1208.81
699.162	1300.97
699.358	928.24
699.554	791.03
699.749	1237.49
699.945	1174
700.141	928.24
700.337	1055.22
700.532	946.67
700.728	834.04
700.924	764.4
701.119	641.53
701.315	1180.14
701.511	915.95
701.706	969.2
701.902	674.29
702.097	1104.37
702.293	1233.39
702.489	975.35
702.684	846.32
702.88	1022.45
703.075	942.58
703.271	1010.16
703.466	793.08
703.662	1053.17
703.857	1198.57
704.053	709.11
704.248	881.14
704.443	1208.81
704.639	1282.54
704.834	819.7
705.03	778.74
705.225	1331.69
705.42	1395.18
705.616	911.86
705.811	780.79
706.006	1012.21
706.202	993.78
706.397	1055.22
706.592	795.12
706.787	1255.92
706.983	1163.76
707.178	1034.74
707.373	948.72
707.568	1370.6
707.763	1372.65
707.959	848.37
708.154	862.71
708.349	1090.03
708.544	1206.77
708.739	1143.28
708.934	743.92
709.129	1354.22
709.324	1440.23
709.519	858.61
709.714	719.35
709.909	1348.08
710.104	1264.11
710.299	969.2
710.494	973.3
710.689	1264.11
710.884	1034.74
711.079	1004.02
711.274	1118.7
711.469	1296.88
711.664	1219.05
711.859	854.51
712.054	1128.94
712.249	1313.26
712.443	1470.95
712.638	801.27
712.833	872.95
713.028	1194.48
713.223	1079.79
713.417	1219.05
713.612	874.99
713.807	1409.51
714.002	1825.25
714.196	1145.33
714.391	1016.3
714.586	1524.2
714.78	1165.81
714.975	924.15
715.17	1034.74
715.364	1176.05
715.559	1368.56
715.754	598.52
715.948	874.99
716.143	1690.09
716.337	1280.49
716.532	1219.05
716.726	879.09
716.921	1286.64
717.115	1575.4
717.31	842.23
717.504	1540.58
717.699	1128.94
717.893	1419.75
718.088	897.52
718.282	735.73
718.476	1288.68
718.671	1321.45
718.865	1022.45
719.059	897.52
719.254	1249.77
719.448	1538.54
719.642	2312.67
719.837	854.51
720.031	1448.43
720.225	1485.29
720.419	1122.8
720.614	872.95
720.808	1374.7
721.002	1141.23
721.196	926.19
721.39	934.39
721.585	1575.4
721.779	1286.64
721.973	1067.5
722.167	762.36
722.361	1303.02
722.555	1485.29
722.749	963.06
722.943	1077.74
723.137	971.25
723.331	1329.64
723.525	1044.98
723.719	1059.31
723.913	1393.13
724.107	1608.17
724.301	1016.3
724.495	1153.52
724.689	1649.13
724.883	1561.06
725.077	983.54
725.271	1065.46
725.465	1559.02
725.659	1341.93
725.853	1157.61
726.046	874.99
726.24	1063.41
726.434	1499.63
726.628	1075.7
726.822	1059.31
727.015	1485.29
727.209	1706.47
727.403	1036.78
727.596	901.62
727.79	1419.75
727.984	1423.85
728.177	1133.04
728.371	1012.21
728.565	1518.06
728.758	1112.56
728.952	961.01
729.146	1090.03
729.339	1618.41
729.533	1268.2
729.726	1022.45
729.92	905.71
730.113	1583.59
730.307	1389.03
730.5	1069.55
730.694	1010.16
730.887	1204.72
731.081	1526.25
731.274	866.8
731.468	1137.13
731.661	1423.85
731.854	1288.68
732.048	1098.22
732.241	987.63
732.435	1247.72
732.628	1403.37
732.821	1143.28
733.014	920.05
733.208	1028.59
733.401	1620.46
733.594	1128.94
733.788	1151.47
733.981	1735.14
734.174	1391.08
734.367	1065.46
734.56	1278.44
734.754	1466.86
734.947	1360.36
735.14	1012.21
735.333	1120.75
735.526	1440.23
735.719	1247.72
735.912	1049.07
736.105	1059.31
736.298	1346.03
736.491	1298.92
736.684	1075.7
736.877	1100.27
737.07	1370.6
737.263	1681.89
737.456	1104.37
737.649	1034.74
737.842	1239.53
738.035	1364.46
738.228	1092.08
738.421	1253.87
738.614	1749.48
738.807	1638.89
739	911.86
739.192	1071.6
739.385	1460.71
739.578	1595.88
739.771	1419.75
739.964	1106.42
740.156	1620.46
740.349	1366.51
740.542	1366.51
740.735	1108.46
740.927	1235.44
741.12	1135.09
741.313	1098.22
741.505	1133.04
741.698	1485.29
741.891	1659.37
742.083	1262.06
742.276	1190.38
742.468	1421.8
742.661	1321.45
742.854	1167.85
743.046	1094.13
743.239	1864.16
743.431	1448.43
743.624	1223.15
743.816	1087.98
744.009	1296.88
744.201	1538.54
744.393	1296.88
744.586	1081.84
744.778	1645.03
744.971	1460.71
745.163	1341.93
745.355	1380.84
745.548	1489.39
745.74	1284.59
745.932	1311.21
746.125	1237.49
746.317	1919.46
746.509	1550.82
746.702	1194.48
746.894	1251.82
747.086	1513.96
747.278	1710.57
747.471	1366.51
747.663	1452.52
747.855	1487.34
748.047	1833.44
748.239	1106.42
748.431	1171.95
748.623	1835.49
748.815	1821.16
749.008	1110.51
749.2	1337.84
749.392	1833.44
749.584	1616.36
749.776	1352.17
749.968	1307.12
750.16	1919.46
750.352	1520.1
750.544	1249.77
750.736	1202.67
750.928	1591.78
751.12	1429.99
751.311	1282.54
751.503	1208.81
751.695	1597.93
751.887	1516.01
752.079	1145.33
752.271	1262.06
752.463	2214.37
752.654	1698.28
752.846	1405.42
753.038	1255.92
753.23	1399.27
753.421	1671.65
753.613	1339.88
753.805	1401.32
753.997	1788.39
754.188	1718.76
754.38	1174
754.572	1294.83
754.763	1550.82
754.955	1651.17
755.146	1214.96
755.338	1354.22
755.53	1704.42
755.721	1481.19
755.913	1124.85
756.104	1194.48
756.296	1419.75
756.487	1839.59
756.679	1139.18
756.87	1157.61
757.062	1421.8
757.253	1772
757.445	1208.81
757.636	1481.19
757.827	1628.65
758.019	2161.12
758.21	1260.01
758.401	1284.59
758.593	2083.3
758.784	1780.2
758.975	1128.94
759.167	1118.7
759.358	1507.82
759.549	1847.78
759.74	1323.5
759.932	1296.88
760.123	1903.07
760.314	1386.99
760.505	1352.17
760.696	1323.5
760.888	1956.32
761.079	1440.23
761.27	1176.05
761.461	1118.7
761.652	1956.32
761.843	1505.77
762.034	1401.32
762.225	1624.55
762.416	1612.26
762.607	1624.55
762.798	1286.64
762.989	1276.4
763.18	2384.35
763.371	1509.86
763.562	1272.3
763.753	1366.51
763.944	1923.55
764.135	1792.48
764.326	1473
764.517	1403.37
764.708	1612.26
764.899	1722.85
765.089	1292.78
765.28	1188.33
765.471	1579.5
765.662	1649.13
765.853	1346.03
766.043	1153.52
766.234	1800.68
766.425	1853.92
766.615	1393.13
766.806	1227.25
766.997	1923.55
767.187	1669.61
767.378	1339.88
767.569	1176.05
767.759	1630.7
767.95	1737.19
768.141	1366.51
768.331	1192.43
768.522	1677.8
768.712	1757.67
768.903	1300.97
769.093	1223.15
769.284	2087.39
769.474	1714.66
769.665	1135.09
769.855	1229.29
770.046	1706.47
770.236	1495.53
770.426	1526.25
770.617	1229.29
770.807	1677.8
770.998	1518.06
771.188	1497.58
771.378	1286.64
771.569	1821.16
771.759	1769.96
771.949	1219.05
772.139	1124.85
772.33	1739.24
772.52	1968.61
772.71	1290.73
772.9	1137.13
773.09	1935.84
773.281	1956.32
773.471	1346.03
773.661	1372.65
773.851	1939.94
774.041	1452.52
774.231	1239.53
774.421	1473
774.611	1972.71
774.802	1522.15
774.992	1300.97
775.182	1233.39
775.372	1632.74
775.562	1853.92
775.752	1448.43
775.942	1321.45
776.131	1802.72
776.321	1837.54
776.511	1450.47
776.701	1288.68
776.891	1960.42
777.081	1446.38
777.271	1444.33
777.461	1274.35
777.651	1823.2
777.84	1935.84
778.03	1495.53
778.22	1419.75
778.41	1946.08
778.599	1436.14
778.789	1446.38
778.979	1251.82
779.169	1690.09
779.358	1630.7
779.548	1663.46
779.738	1141.23
779.927	1772
780.117	1321.45
780.307	1348.08
780.496	1059.31
780.686	1737.19
780.875	2013.67
781.065	1356.27
781.254	1364.46
781.444	1604.07
781.633	1659.37
781.823	1300.97
782.012	1333.74
782.202	1497.58
782.391	1671.65
782.581	1343.98
782.77	1575.4
782.96	1847.78
783.149	1651.17
783.338	1421.8
783.528	1245.68
783.717	1765.86
783.906	1911.27
784.096	1429.99
784.285	1317.36
784.474	1444.33
784.663	1511.91
784.853	1339.88
785.042	1473
785.231	1565.16
785.42	1831.4
785.61	1464.81
785.799	1343.98
785.988	1579.5
786.177	1702.37
786.366	1460.71
786.555	1563.11
786.744	1739.24
786.933	1683.94
787.122	1331.69
787.312	1319.4
787.501	1544.68
787.69	1702.37
787.879	1358.32
788.068	1382.89
788.257	1247.72
788.445	1495.53
788.634	1405.42
788.823	1292.78
789.012	2275.81
789.201	1917.41
789.39	1479.15
789.579	1292.78
789.768	1651.17
789.957	1651.17
790.145	1376.75
790.334	1067.5
790.523	1698.28
790.712	1616.36
790.9	1452.52
791.089	1235.44
791.278	1876.45
791.467	1640.93
791.655	1642.98
791.844	1831.4
792.033	1516.01
792.221	1649.13
792.41	1634.79
792.599	1296.88
792.787	1864.16
792.976	1874.4
793.164	1200.62
793.353	1429.99
793.541	1849.83
793.73	1845.73
793.918	1468.91
794.107	1421.8
794.295	1565.16
794.484	1608.17
794.672	1401.32
794.861	1466.86
795.049	1804.77
795.238	2099.68
795.426	1315.31
795.614	1542.63
795.803	1780.2
795.991	2005.47
796.179	1378.79
796.368	1346.03
796.556	2048.48
796.744	1468.91
796.932	1364.46
797.121	1360.36
797.309	1663.46
797.497	1837.54
797.685	1411.56
797.874	1440.23
798.062	1602.02
798.25	1984.99
798.438	1296.88
798.626	1346.03
798.814	1776.1
799.002	2197.98
799.19	1677.8
799.378	1616.36
799.566	2023.91
799.755	2120.16
799.943	1655.27
800.131	1333.74
800.318	1796.58
800.506	1827.3
800.694	1462.76
800.882	1577.45
801.07	2011.62
801.258	1808.87
801.446	1415.66
801.634	1501.67
801.822	1704.42
802.01	1888.74
802.197	1432.04
802.385	1726.95
802.573	1847.78
802.761	1542.63
802.949	1518.06
803.136	1249.77
803.324	2028
803.512	1706.47
803.699	1552.87
803.887	1333.74
804.075	2120.16
804.262	1624.55
804.45	1473
804.638	1571.3
804.825	1591.78
805.013	1561.06
805.201	1536.49
805.388	1374.7
805.576	1868.26
805.763	2247.13
805.951	1487.34
806.138	1774.05
806.326	2370.01
806.513	1919.46
806.701	1567.21
806.888	1470.95
807.075	1833.44
807.263	2214.37
807.45	1397.23
807.638	1665.51
807.825	2238.94
808.012	2099.68
808.2	1696.23
808.387	1739.24
808.574	1984.99
808.761	2255.33
808.949	1440.23
809.136	1692.13
809.323	1825.25
809.51	1870.31
809.698	1831.4
809.885	1675.75
810.072	1952.23
810.259	2128.35
810.446	1673.7
810.633	1673.7
810.82	2114.02
811.008	2316.76
811.195	1755.62
811.382	1692.13
811.569	1935.84
811.756	1620.46
811.943	1642.98
812.13	1524.2
812.317	1862.12
812.504	1714.66
812.691	1796.58
812.878	1669.61
813.064	2251.23
813.251	1858.02
813.438	1499.63
813.625	1884.64
813.812	1821.16
813.999	1763.81
814.186	1704.42
814.372	1645.03
814.559	1954.27
814.746	2296.28
814.933	1802.72
815.12	1890.79
815.306	1798.63
815.493	1782.24
815.68	1593.83
815.866	1628.65
816.053	2152.93
816.24	2355.68
816.426	1841.64
816.613	1649.13
816.799	2085.34
816.986	2249.18
817.173	1640.93
817.359	1548.78
817.546	2034.14
817.732	1804.77
817.919	1415.66
818.105	1905.12
818.292	1866.21
818.478	2079.2
818.665	1970.66
818.851	1681.89
819.037	2486.75
819.224	1952.23
819.41	1554.92
819.597	1591.78
819.783	2501.08
819.969	2122.21
820.156	1716.71
820.342	1616.36
820.528	2791.89
820.714	1860.07
820.901	2011.62
821.087	1812.96
821.273	2265.57
821.459	2001.38
821.646	1466.86
821.832	1550.82
822.018	2005.47
822.204	2073.06
822.39	1798.63
822.576	1491.43
822.762	2058.72
822.948	2056.67
823.134	1962.47
823.32	1821.16
823.507	1735.14
823.693	2005.47
823.879	1968.61
824.065	1714.66
824.25	2017.76
824.436	1716.71
824.622	1755.62
824.808	1663.46
824.994	1827.3
825.18	1747.43
825.366	1632.74
825.552	1731.05
825.738	1976.8
825.923	2300.38
826.109	2017.76
826.295	1692.13
826.481	1698.28
826.667	1960.42
826.852	1984.99
827.038	1698.28
827.224	2318.81
827.409	2372.06
827.595	1597.93
827.781	1968.61
827.966	2255.33
828.152	2218.46
828.338	1739.24
828.523	1591.78
828.709	1855.97
828.894	2345.44
829.08	1823.2
829.266	1714.66
829.451	1858.02
829.637	2126.3
829.822	1698.28
830.008	1626.6
830.193	2214.37
830.378	2232.8
830.564	1890.79
830.749	1608.17
830.935	2206.17
831.12	2083.3
831.305	1657.32
831.491	1808.87
831.676	1731.05
831.861	2146.78
832.047	1726.95
832.232	1608.17
832.417	2228.7
832.602	2005.47
832.788	1722.85
832.973	1649.13
833.158	1956.32
833.343	2005.47
833.528	1829.35
833.714	1796.58
833.899	2173.41
834.084	2445.79
834.269	1888.74
834.454	1817.06
834.639	2200.03
834.824	2083.3
835.009	1776.1
835.194	1937.89
835.379	2134.5
835.564	2374.11
835.749	1935.84
835.934	1671.65
836.119	2193.89
836.304	2138.59
836.489	1671.65
836.674	1911.27
836.859	1733.09
837.044	2335.2
837.228	1737.19
837.413	1683.94
837.598	2118.11
837.783	2251.23
837.968	1876.45
838.152	1632.74
838.337	1655.27
838.522	2249.18
838.707	2161.12
838.891	2077.15
839.076	2066.91
839.261	2306.52
839.445	1796.58
839.63	1812.96
839.815	2472.41
839.999	1870.31
840.184	1747.43
840.368	1733.09
840.553	2163.17
840.737	2208.22
840.922	1690.09
841.106	1649.13
841.291	1712.61
841.475	2140.64
841.66	1737.19
841.844	1872.36
842.029	2691.54
842.213	1657.32
842.397	1767.91
842.582	1518.06
842.766	2245.09
842.951	2159.07
843.135	1737.19
843.319	1821.16
843.504	2091.49
843.688	2226.65
843.872	1534.44
844.056	1661.41
844.241	2140.64
844.425	1956.32
844.609	2050.53
844.793	1542.63
844.977	2163.17
845.161	2058.72
845.346	1571.3
845.53	1774.05
845.714	2075.1
845.898	2398.68
846.082	1685.99
846.266	1772
846.45	1982.95
846.634	2046.43
846.818	1688.04
847.002	1866.21
847.186	2206.17
847.37	1798.63
847.554	1731.05
847.738	1812.96
847.922	2095.58
848.106	2071.01
848.29	1599.98
848.473	1604.07
848.657	2230.75
848.841	1970.66
849.025	1708.52
849.209	1554.92
849.392	2193.89
849.576	1886.69
849.76	1563.11
849.944	1827.3
850.127	2357.72
850.311	1702.37
850.495	1657.32
850.678	1602.02
850.862	2292.19
851.046	2253.28
851.229	1984.99
851.413	1571.3
851.596	1976.8
851.78	1892.84
851.964	1833.44
852.147	1798.63
852.331	2746.84
852.514	2245.09
852.698	1833.44
852.881	1511.91
853.065	2355.68
853.248	2148.83
853.431	1909.22
853.615	1755.62
853.798	2492.89
853.982	2095.58
854.165	1872.36
854.348	1649.13
854.532	1757.67
854.715	1847.78
854.898	1772
855.081	1708.52
855.265	2396.64
855.448	2361.82
855.631	1655.27
855.814	1679.85
855.997	2327
856.181	2064.86
856.364	1804.77
856.547	1565.16
856.73	2107.87
856.913	1980.9
857.096	1645.03
857.279	1792.48
857.462	1874.4
857.645	2263.52
857.828	1989.09
858.011	1898.98
858.194	1870.31
858.377	2095.58
858.56	1618.41
858.743	1698.28
858.926	1737.19
859.109	2066.91
859.292	1663.46
859.475	1554.92
859.658	2333.15
859.841	2165.21
860.023	1628.65
860.206	1743.33
860.389	2085.34
860.572	2410.97
860.755	1729
860.937	1649.13
861.12	2007.52
861.303	2054.62
861.486	1798.63
861.668	1653.22
861.851	2183.65
862.034	2025.95
862.216	1954.27
862.399	1516.01
862.581	2062.82
862.764	2406.88
862.947	1690.09
863.129	1669.61
863.312	1690.09
863.494	2445.79
863.677	2087.39
863.859	1546.73
864.042	2222.56
864.224	2243.04
864.406	1731.05
864.589	1581.54
864.771	2038.24
864.954	1772
865.136	1571.3
865.318	1475.05
865.501	2146.78
865.683	1509.86
865.865	1632.74
866.048	1577.45
866.23	1966.56
866.412	1997.28
866.594	1591.78
866.777	1796.58
866.959	1944.03
867.141	1810.92
867.323	1946.08
867.505	1812.96
867.687	2044.38
867.869	1939.94
868.052	1743.33
868.234	1618.41
868.416	1929.7
868.598	2249.18
868.78	1710.57
868.962	1649.13
869.144	2259.42
869.326	2163.17
869.508	1708.52
869.69	1640.93
869.872	1845.73
870.054	2122.21
870.236	1518.06
870.417	1669.61
870.599	1898.98
870.781	2304.48
870.963	1755.62
871.145	1620.46
871.327	1649.13
871.508	2187.74
871.69	1712.61
871.872	1802.72
872.054	1960.42
872.235	2036.19
872.417	1772
872.599	1575.4
872.78	2331.1
872.962	1970.66
873.144	1571.3
873.325	1698.28
873.507	2324.96
873.689	2052.58
873.87	1575.4
874.052	1853.92
874.233	1958.37
874.415	2171.36
874.596	1726.95
874.778	1599.98
874.959	2042.34
875.141	2216.41
875.322	1731.05
875.503	1628.65
875.685	2206.17
875.866	1614.31
876.048	1610.22
876.229	1675.75
876.41	1997.28
876.592	2132.45
876.773	1743.33
876.954	1608.17
877.136	2337.24
877.317	1808.87
877.498	1595.88
877.679	1929.7
877.86	2171.36
878.042	2095.58
878.223	1782.24
878.404	2167.26
878.585	2144.74
878.766	2394.59
878.947	2046.43
879.128	1913.31
879.309	2140.64
879.49	2402.78
879.672	1782.24
879.853	1890.79
880.034	1905.12
880.215	2091.49
880.396	1956.32
880.576	1829.35
880.757	1980.9
880.938	2345.44
881.119	1698.28
881.3	1792.48
881.481	2013.67
881.662	3000.79
881.843	1636.84
882.023	1698.28
882.204	2152.93
882.385	2034.14
882.566	1821.16
882.747	1864.16
882.927	2050.53
883.108	2171.36
883.289	1829.35
883.469	1991.14
883.65	2077.15
883.831	2175.45
884.011	1956.32
884.192	1984.99
884.373	2329.05
884.553	2218.46
884.734	2011.62
884.914	2163.17
885.095	2791.89
885.275	2583
885.456	2136.54
885.636	1788.39
885.817	2128.35
885.997	2126.3
886.178	1903.07
886.358	1950.18
886.538	2240.99
886.719	3172.82
886.899	2017.76
887.08	2140.64
887.26	2513.37
887.44	1962.47
887.621	1878.5
887.801	2052.58
887.981	2720.21
888.161	2451.93
888.342	2136.54
888.522	2025.95
888.702	2511.32
888.882	2615.77
889.062	2148.83
889.242	1853.92
889.423	2673.11
889.603	2462.17
889.783	1991.14
889.963	1944.03
890.143	2367.96
890.323	2554.33
890.503	2056.67
890.683	2054.62
890.863	2361.82
891.043	2347.48
891.223	2105.82
891.403	2263.52
891.583	2292.19
891.763	2361.82
891.943	2062.82
892.122	2001.38
892.302	2443.74
892.482	2204.13
892.662	2093.54
892.842	2085.34
893.022	2271.71
893.201	2140.64
893.381	2099.68
893.561	2109.92
893.741	2562.52
893.92	2261.47
894.1	2126.3
894.28	2085.34
894.459	2550.23
894.639	2433.5
894.819	2013.67
894.998	2130.4
895.178	2398.68
895.357	2591.19
895.537	1956.32
895.716	1903.07
895.896	2118.11
896.075	2640.34
896.255	2066.91
896.434	1958.37
896.614	2519.51
896.793	2716.12
896.973	2114.02
897.152	2232.8
897.331	2490.84
897.511	2550.23
897.69	2034.14
897.87	2095.58
898.049	2568.66
898.228	2286.05
898.407	2406.88
898.587	2349.53
898.766	2279.9
898.945	2609.62
899.124	2275.81
899.304	2202.08
899.483	2521.56
899.662	2761.17
899.841	2099.68
900.02	2019.81
900.199	2707.93
900.378	2396.64
900.557	2048.48
900.737	1931.75
900.916	2542.04
901.095	2556.38
901.274	2298.33
901.453	1960.42
901.632	2197.98
901.811	2208.22
901.989	2050.53
902.168	1933.79
902.347	2615.77
902.526	2279.9
902.705	2101.73
902.884	2288.09
903.063	2763.22
903.242	2662.87
903.42	2044.38
903.599	2222.56
903.778	2560.47
903.957	2714.07
904.135	2220.51
904.314	2124.26
904.493	2499.03
904.672	2470.36
904.85	2210.27
905.029	2202.08
905.207	2488.79
905.386	3115.47
905.565	2185.69
905.743	1999.33
905.922	2247.13
906.1	2519.51
906.279	2009.57
906.457	2114.02
906.636	2226.65
906.814	2204.13
906.993	2111.97
907.171	2019.81
907.35	2544.09
907.528	2552.28
907.707	2363.87
907.885	2028
908.063	2689.49
908.242	2124.26
908.42	2091.49
908.598	1872.36
908.777	2546.14
908.955	2230.75
909.133	2218.46
909.311	1919.46
909.49	2152.93
909.668	2312.67
909.846	2052.58
910.024	1821.16
910.202	2218.46
910.38	2513.37
910.559	1935.84
910.737	1987.04
910.915	2365.92
911.093	2392.54
911.271	2011.62
911.449	2165.21
911.627	2413.02
911.805	2714.07
911.983	2087.39
912.161	1950.18
912.339	2378.2
912.517	2648.54
912.695	2126.3
912.872	1968.61
913.05	1939.94
913.228	2396.64
913.406	1989.09
913.584	1866.21
913.762	2370.01
913.939	1993.19
914.117	1941.99
914.295	1845.73
914.473	2232.8
914.65	2394.59
914.828	1972.71
915.006	1804.77
915.184	1956.32
915.361	2296.28
915.539	2212.32
915.716	2062.82
915.894	2333.15
916.072	2388.44
916.249	2058.72
916.427	2050.53
916.604	1935.84
916.782	2286.05
916.959	1935.84
917.137	1870.31
917.314	2206.17
917.492	2224.61
917.669	2224.61
917.847	1997.28
918.024	2255.33
918.201	2152.93
918.379	2017.76
918.556	2017.76
918.733	2398.68
918.911	2009.57
919.088	2058.72
919.265	1884.64
919.442	2253.28
919.62	2124.26
919.797	1851.88
919.974	1776.1
920.151	2146.78
920.328	2005.47
920.506	1890.79
920.683	2001.38
920.86	1878.5
921.037	1944.03
921.214	1800.68
921.391	1831.4
921.568	2179.55
921.745	2042.34
921.922	1905.12
922.099	1821.16
922.276	2355.68
922.453	2146.78
922.63	1743.33
922.807	2091.49
922.984	2095.58
923.161	2001.38
923.338	1874.4
923.514	1722.85
923.691	2054.62
923.868	2087.39
924.045	1667.56
924.222	1714.66
924.399	2083.3
924.575	2230.75
924.752	1804.77
924.929	1806.82
925.105	2097.63
925.282	1778.15
925.459	1669.61
925.635	1862.12
925.812	2068.96
925.989	1714.66
926.165	1827.3
926.342	1501.67
926.518	1722.85
926.695	2005.47
926.871	1661.41
927.048	1544.68
927.224	2050.53
927.401	1769.96
927.577	1729
927.754	1509.86
927.93	2159.07
928.107	2068.96
928.283	1429.99
928.459	1831.4
928.636	1997.28
928.812	1882.6
928.988	1655.27
929.165	1575.4
929.341	1870.31
929.517	1905.12
929.693	1944.03
929.87	1423.85
930.046	1964.51
930.222	1769.96
930.398	1524.2
930.574	1788.39
930.751	1911.27
930.927	1716.71
931.103	1669.61
931.279	1581.54
931.455	1665.51
931.631	1862.12
931.807	1407.47
931.983	1364.46
932.159	1565.16
932.335	1815.01
932.511	1458.67
932.687	1440.23
932.863	1751.53
933.039	1724.9
933.215	1393.13
933.391	1323.5
933.566	1739.24
933.742	1716.71
933.918	1481.19
934.094	1272.3
934.27	1669.61
934.445	1681.89
934.621	1559.02
934.797	1229.29
934.973	2005.47
935.148	1743.33
935.324	1382.89
935.5	1053.17
935.675	1714.66
935.851	1624.55
936.027	1317.36
936.202	1409.51
936.378	1624.55
936.553	1378.79
936.729	1786.34
936.904	1167.85
937.08	1206.77
937.255	1237.49
937.431	1169.9
937.606	1059.31
937.782	1251.82
937.957	1403.37
938.133	1096.18
938.308	987.63
938.483	1333.74
938.659	1145.33
938.834	1036.78
939.009	807.41
939.185	1130.99
939.36	1028.59
939.535	666.1
939.71	1024.5
939.886	1397.23
940.061	1239.53
940.236	1118.7
940.411	922.1
940.586	1223.15
940.761	1206.77
940.937	864.75
941.112	852.47
941.287	1108.46
941.462	1180.14
941.637	711.16
941.812	866.8
941.987	1151.47
942.162	981.49
942.337	862.71
942.512	846.32
942.687	1280.49
942.862	1317.36
943.037	643.57
943.212	492.02
943.386	940.53
943.561	1034.74
943.736	823.8
943.911	985.58
944.086	993.78
944.26	965.11
944.435	750.07
944.61	844.28
944.785	1309.16
944.959	1456.62
945.134	795.12
945.309	741.88
945.483	850.42
945.658	1135.09
945.833	530.94
946.007	674.29
946.182	1325.55
946.357	715.25
946.531	727.54
946.706	584.18
946.88	578.04
947.055	1016.3
947.229	707.06
947.404	602.61
947.578	1167.85
947.752	940.53
947.927	547.32
948.101	586.23
948.276	1018.35
948.45	930.29
948.624	922.1
948.799	709.11
948.973	1030.64
949.147	705.01
949.321	760.31
949.496	743.92
949.67	1376.75
949.844	928.24
950.018	733.68
950.193	662.01
950.367	1475.05
950.541	874.99
950.715	788.98
950.889	944.63
951.063	883.19
951.237	1075.7
951.411	496.12
951.585	485.88
951.759	1094.13
951.933	891.38
952.107	678.39
952.281	750.07
952.455	1313.26
952.629	1128.94
952.803	719.35
952.977	653.81
953.151	1167.85
953.325	1133.04
953.499	840.18
953.672	594.42
953.846	780.79
954.02	868.85
954.194	705.01
954.368	731.64
954.541	1118.7
954.715	907.76
954.889	725.49
955.062	639.48
955.236	1047.02
955.41	936.43
955.583	926.19
955.757	512.5
955.93	852.47
956.104	705.01
956.278	682.49
956.451	774.64
956.625	1083.89
956.798	1384.94
956.972	897.52
957.145	719.35
957.319	883.19
957.492	881.14
957.665	836.08
957.839	637.43
958.012	1010.16
958.185	889.33
958.359	764.4
958.532	899.57
958.705	1137.13
958.879	979.44
959.052	809.46
959.225	551.42
959.398	946.67
959.572	958.96
959.745	727.54
959.918	748.02
960.091	879.09
960.264	1122.8
960.438	623.09
960.611	684.53
960.784	1112.56
960.957	788.98
961.13	1163.76
961.303	655.86
961.476	907.76
961.649	1096.18
961.822	575.99
961.995	727.54
962.168	1090.03
962.341	948.72
962.514	702.97
962.686	645.62
962.859	866.8
963.032	987.63
963.205	664.05
963.378	455.16
963.551	887.28
963.723	852.47
963.896	772.6
964.069	827.89
964.242	958.96
964.414	1157.61
964.587	881.14
964.76	807.41
964.932	1018.35
965.105	881.14
965.278	707.06
965.45	698.87
965.623	991.73
965.795	1110.51
965.968	678.39
966.14	645.62
966.313	903.67
966.485	981.49
966.658	635.38
966.83	551.42
967.003	1169.9
967.175	1206.77
967.348	752.12
967.52	748.02
967.692	1272.3
967.865	1094.13
968.037	721.4
968.209	967.15
968.382	1004.02
968.554	1047.02
968.726	721.4
968.898	688.63
969.071	1006.06
969.243	1028.59
969.415	702.97
969.587	707.06
969.759	1419.75
969.932	1090.03
970.104	625.14
970.276	444.92
970.448	811.51
970.62	838.13
970.792	799.22
970.964	770.55
971.136	1378.79
971.308	1032.69
971.48	647.67
971.652	578.04
971.824	1257.96
971.996	727.54
972.168	823.8
972.339	707.06
972.511	1161.71
972.683	791.03
972.855	913.91
973.027	778.74
973.199	891.38
973.37	1032.69
973.542	821.75
973.714	743.92
973.886	854.51
974.057	1053.17
974.229	653.81
974.401	709.11
974.572	645.62
974.744	469.5
974.915	608.76
975.087	678.39
975.259	1214.96
975.43	821.75
975.602	682.49
975.773	598.52
975.945	633.33
976.116	1069.55
976.288	600.57
976.459	940.53
976.63	788.98
976.802	1010.16
976.973	598.52
977.145	741.88
977.316	1317.36
977.487	1194.48
977.659	856.56
977.83	688.63
978.001	1266.16
978.172	965.11
978.344	567.8
978.515	631.29
978.686	817.65
978.857	1186.29
979.028	604.66
979.2	586.23
979.371	1145.33
979.542	934.39
979.713	709.11
979.884	289.28
980.055	754.16
980.226	770.55
980.397	678.39
980.568	539.13
980.739	1096.18
980.91	874.99
981.081	821.75
981.252	504.31
981.423	971.25
981.594	1057.26
981.765	541.18
981.936	694.77
982.106	860.66
982.277	1182.19
982.448	602.61
982.619	721.4
982.79	647.67
982.96	1012.21
983.131	690.68
983.302	389.63
983.472	743.92
983.643	903.67
983.814	672.25
983.984	567.8
984.155	784.88
984.326	1014.26
984.496	729.59
984.667	571.9
984.837	705.01
985.008	1044.98
985.178	756.21
985.349	547.32
985.519	803.32
985.69	657.91
985.86	645.62
986.031	457.21
986.201	807.41
986.371	1018.35
986.542	430.59
986.712	350.71
986.882	987.63
987.053	926.19
987.223	432.63
987.393	707.06
987.563	670.2
987.734	1020.4
987.904	934.39
988.074	526.84
988.244	848.37
988.414	612.85
988.585	494.07
988.755	625.14
988.925	643.57
989.095	1145.33
989.265	465.4
989.435	518.65
989.605	852.47
989.775	920.05
989.945	913.91
990.115	356.86
990.285	877.04
990.455	848.37
990.625	526.84
990.795	518.65
990.965	1071.6
991.134	592.37
991.304	477.69
991.474	504.31
991.644	784.88
991.814	1206.77
991.984	375.29
992.153	463.35
992.323	659.96
992.493	743.92
992.662	395.77
992.832	659.96
993.002	813.56
993.171	776.69
993.341	240.12
993.511	604.66
993.68	625.14
993.85	915.95
994.019	360.95
994.189	387.58
994.358	817.65
994.528	643.57
994.697	264.7
994.867	274.94
995.036	918
995.206	621.05
995.375	352.76
995.544	633.33
995.714	821.75
995.883	698.87
996.052	637.43
996.222	141.82
996.391	1210.86
996.56	768.5
996.73	303.61
996.899	254.46
997.068	1100.27
997.237	727.54
997.406	440.83
997.576	324.09
997.745	770.55
997.914	784.88
998.083	240.12
998.252	342.52
998.421	666.1
998.59	623.09
998.759	377.34
998.928	201.21
999.097	973.3
999.266	709.11
999.435	541.18
999.604	276.99
999.773	1186.29
999.942	604.66
1000.111	238.08
1000.28	231.93
1000.448	506.36
1000.617	432.63
1000.786	535.03
1000.955	373.24
1001.124	659.96
1001.292	1411.56
1001.461	346.62
1001.63	354.81
1001.798	1077.74
1001.967	924.15
1002.136	182.78
1002.304	248.32
1002.473	727.54
1002.642	711.16
1002.81	350.71
1002.979	291.32
1003.147	815.6
1003.316	1245.68
1003.484	322.04
1003.653	207.36
1003.821	911.86
1003.99	649.72
1004.158	557.56
1004.327	389.63
1004.495	750.07
1004.663	426.49
1004.832	389.63
1005	88.57
1005.168	737.78
1005.337	602.61
1005.505	86.53
1005.673	475.64
1005.842	750.07
1006.01	698.87
1006.178	295.42
1006.346	293.37
1006.514	676.34
1006.683	864.75
1006.851	250.36
1007.019	207.36
1007.187	416.25
1007.355	215.55
1007.523	66.05
1007.691	129.53
1007.859	242.17
1008.027	958.96
1008.195	285.18
1008.363	145.92
1008.531	737.78
1008.699	526.84
1008.867	98.81
1009.035	242.17
1009.203	956.91
1009.37	535.03
1009.538	274.94
1009.706	649.72
1009.874	659.96
1010.042	510.46
1010.209	215.55
1010.377	211.45
1010.545	737.78
1010.713	645.62
1010.88	152.06
1011.048	231.93
1011.216	449.02
1011.383	797.17
1011.551	242.17
1011.718	139.77
1011.886	709.11
1012.054	481.78
1012.221	141.82
1012.389	209.4
1012.556	489.98
1012.724	946.67
1012.891	225.79
1013.058	61.95
1013.226	569.85
1013.393	768.5
1013.561	33.28
1013.728	18.94
1013.895	713.21
1014.063	653.81
1014.23	100.86
1014.397	238.08
1014.565	743.92
1014.732	432.63
1014.899	217.6
1015.066	68.09
1015.233	580.09
1015.401	711.16
1015.568	276.99
1015.735	295.42
1015.902	580.09
1016.069	608.76
1016.236	256.51
1016.403	92.67
1016.57	309.76
1016.737	715.25
1016.904	240.12
1017.071	66.05
1017.238	322.04
1017.405	700.92
1017.572	182.78
1017.739	375.29
1017.906	584.18
1018.073	752.12
1018.24	59.9
1018.407	217.6
1018.573	788.98
1018.74	500.22
1018.907	168.45
1019.074	47.62
1019.241	664.05
1019.407	612.85
1019.574	74.24
1019.741	31.23
1019.907	526.84
1020.074	606.71
1020.241	-54.78
1020.407	96.77
1020.574	575.99
1020.74	612.85
1020.907	143.87
1021.073	74.24
1021.24	1022.45
1021.406	854.51
1021.573	-17.92
1021.739	74.24
1021.906	578.04
1022.072	487.93
1022.239	172.54
1022.405	119.29
1022.571	516.6
1022.738	311.8
1022.904	117.25
1023.07	195.07
1023.237	305.66
1023.403	713.21
1023.569	59.9
1023.735	137.73
1023.902	594.42
1024.068	485.88
1024.234	2.56
1024.4	156.16
1024.566	494.07
1024.732	619
1024.898	-13.82
1025.065	-52.74
1025.231	602.61
1025.397	276.99
1025.563	29.18
1025.729	-7.68
1025.895	72.19
1026.061	215.55
1026.227	-65.02
1026.392	76.29
1026.558	764.4
1026.724	487.93
1026.89	98.81
1027.056	145.92
1027.222	573.94
1027.388	332.28
1027.553	-11.78
1027.719	47.62
1027.885	881.14
1028.051	539.13
1028.216	-105.98
1028.382	158.21
1028.548	672.25
1028.713	354.81
1028.879	-77.31
1029.045	160.25
1029.21	694.77
1029.376	723.44
1029.541	100.86
1029.707	96.77
1029.873	567.8
1030.038	608.76
1030.204	0.51
1030.369	-11.78
1030.534	625.14
1030.7	281.08
1030.865	190.97
1031.031	-22.02
1031.196	508.41
1031.361	469.5
1031.527	20.99
1031.692	70.14
1031.857	111.1
1032.023	553.46
1032.188	-69.12
1032.353	-15.87
1032.518	836.08
1032.684	440.83
1032.849	-93.69
1033.014	94.72
1033.179	489.98
1033.344	473.59
1033.509	137.73
1033.674	43.52
1033.839	616.95
1034.004	565.75
1034.17	39.42
1034.335	29.18
1034.5	342.52
1034.664	285.18
1034.829	-60.93
1034.994	117.25
1035.159	496.12
1035.324	426.49
1035.489	109.05
1035.654	-19.97
1035.819	727.54
1035.984	442.87
1036.148	88.57
1036.313	8.7
1036.478	561.66
1036.643	383.48
1036.807	-83.45
1036.972	-103.93
1037.137	575.99
1037.301	379.39
1037.466	-105.98
1037.631	102.91
1037.795	649.72
1037.96	438.78
1038.124	139.77
1038.289	-7.68
1038.454	584.18
1038.618	535.03
1038.783	80.38
1038.947	72.19
1039.111	389.63
1039.276	289.28
1039.44	-13.82
1039.605	430.59
1039.769	330.23
1039.933	383.48
1040.098	16.9
1040.262	252.41
1040.426	610.81
1040.591	563.7
1040.755	-118.27
1040.919	-71.17
1041.083	582.14
1041.248	403.96
1041.412	-165.37
1041.576	-103.93
1041.74	264.7
1041.904	496.12
1042.068	-136.7
1042.232	184.83
1042.397	647.67
1042.561	502.26
1042.725	-196.09
1042.889	109.05
1043.053	504.31
1043.217	420.35
1043.381	102.91
1043.544	-99.84
1043.708	653.81
1043.872	117.25
1044.036	-218.62
1044.2	-142.85
1044.364	649.72
1044.528	651.77
1044.691	4950.45
1044.855	-83.45
1045.019	487.93
1045.183	526.84
1045.346	14.85
1045.51	-30.21
1045.674	479.74
1045.837	604.66
1046.001	-34.3
1046.165	-54.78
1046.328	915.95
1046.492	547.32
1046.655	129.53
1046.819	74.24
1046.983	289.28
1047.146	530.94
1047.31	2.56
1047.473	-194.05
1047.636	350.71
1047.8	276.99
1047.963	25.09
1048.127	-46.59
1048.29	166.4
