Data from Ink_Intensity_USB4F045381__135__00135.txt Node

Date: Mon Jul 17 11:21:43 EDT 2023
User: mmckonesweet
Spectrometer: USB4F04538
Trigger mode: 4
Integration Time (sec): 9.000000E-1
Scans to average: 1
Electric dark correction enabled: true
Nonlinearity correction enabled: false
Boxcar width: 0
XAxis mode: Wavelengths
Number of Pixels in Spectrum: 3648
>>>>>Begin Spectral Data<<<<<
345.52	-1077.74
345.736	-1077.74
345.952	-1077.74
346.168	-1034.74
346.384	-1028.59
346.6	-123.39
346.816	-203.26
347.032	-176.64
347.248	187.9
347.464	-195.07
347.68	-150.01
347.896	126.46
348.112	396.79
348.328	-70.14
348.544	-104.96
348.76	11.78
348.975	300.54
349.191	-168.45
349.407	-242.17
349.623	7.68
349.839	-82.43
350.055	-139.77
350.27	58.88
350.486	179.71
350.702	351.74
350.918	204.28
351.133	-236.03
351.349	130.56
351.565	366.07
351.781	-217.6
351.996	108.03
352.212	335.35
352.428	-80.38
352.644	-176.64
352.859	-223.74
353.075	308.73
353.291	85.5
353.506	-113.15
353.722	-221.69
353.938	-57.86
354.153	439.8
354.369	81.41
354.584	-238.08
354.8	249.34
355.016	-412.15
355.231	-250.36
355.447	-131.58
355.662	155.13
355.878	853.49
356.093	-369.15
356.309	-45.57
356.524	-225.79
356.74	167.42
356.955	-242.17
357.171	-18.94
357.386	200.19
357.602	-186.88
357.817	-72.19
358.033	-209.4
358.248	345.59
358.464	228.86
358.679	-139.77
358.895	-324.09
359.11	-10.75
359.325	245.24
359.541	52.74
359.756	3.58
359.972	-236.03
360.187	200.19
360.402	-168.45
360.618	-211.45
360.833	937.46
361.048	151.04
361.264	-180.73
361.479	-80.38
361.694	44.54
361.909	232.96
362.125	-209.4
362.34	-121.34
362.555	298.49
362.77	50.69
362.986	-291.32
363.201	-203.26
363.416	214.52
363.631	7.68
363.847	-324.09
364.062	-162.3
364.277	167.42
364.492	-4.61
364.707	-139.77
364.922	-354.81
365.138	314.88
365.353	255.48
365.568	-205.31
365.783	-123.39
365.998	7.68
366.213	507.38
366.428	-215.55
366.643	11.78
366.858	163.33
367.073	232.96
367.288	-184.83
367.503	-182.78
367.718	126.46
367.933	278.01
368.148	-375.29
368.363	-51.71
368.578	-20.99
368.793	417.27
369.008	-94.72
369.223	-291.32
369.438	275.96
369.653	409.08
369.868	-266.75
370.083	-272.89
370.298	167.42
370.513	431.61
370.728	-74.24
370.943	-197.12
371.157	-131.58
371.372	493.05
371.587	-350.71
371.802	-262.65
372.017	71.17
372.232	392.7
372.446	-12.8
372.661	-340.47
372.876	206.33
373.091	206.33
373.306	-78.33
373.52	-229.88
373.735	-154.11
373.95	380.41
374.165	-92.67
374.379	-162.3
374.594	-172.54
374.809	54.78
375.023	36.35
375.238	-330.23
375.453	255.48
375.667	-258.56
375.882	-233.98
376.097	-205.31
376.311	34.3
376.526	3.58
376.741	-289.28
376.955	71.17
377.17	560.63
377.384	519.67
377.599	-180.73
377.813	-348.67
378.028	613.88
378.242	204.28
378.457	-55.81
378.672	-324.09
378.886	62.98
379.101	-33.28
379.315	-326.14
379.53	-205.31
379.744	187.9
379.958	189.95
380.173	-180.73
380.387	-186.88
380.602	116.22
380.816	-86.53
381.031	-111.1
381.245	-162.3
381.459	157.18
381.674	2588.12
381.888	-205.31
382.103	120.32
382.317	-123.39
382.531	486.9
382.746	-53.76
382.96	-156.16
383.174	-176.64
383.388	478.71
383.603	28.16
383.817	-256.51
384.031	163.33
384.246	488.95
384.46	-129.53
384.674	253.44
384.888	-66.05
385.103	83.45
385.317	-279.04
385.531	-6.66
385.745	353.79
385.959	224.76
386.174	-293.37
386.388	-215.55
386.602	11.78
386.816	-121.34
387.03	-152.06
387.244	-109.05
387.458	95.74
387.672	267.77
387.887	-281.08
388.101	-369.15
388.315	269.82
388.529	144.89
388.743	-182.78
388.957	-299.52
389.171	355.83
389.385	-172.54
389.599	-160.25
389.813	112.13
390.027	116.22
390.241	613.88
390.455	-82.43
390.669	-123.39
390.883	-82.43
391.097	374.27
391.311	-8.7
391.525	-143.87
391.738	187.9
391.952	224.76
392.166	-29.18
392.38	-291.32
392.594	292.35
392.808	355.83
393.022	-74.24
393.236	-152.06
393.449	167.42
393.663	99.84
393.877	-324.09
394.091	-53.76
394.305	-20.99
394.518	-68.09
394.732	-283.13
394.946	-166.4
395.16	517.62
395.373	22.02
395.587	-199.16
395.801	-264.7
396.015	271.87
396.228	114.17
396.442	-246.27
396.656	-287.23
396.869	400.89
397.083	404.99
397.297	19.97
397.51	-168.45
397.724	400.89
397.938	138.75
398.151	-373.24
398.365	-266.75
398.578	183.81
398.792	417.27
399.005	-47.62
399.219	-125.44
399.433	93.69
399.646	163.33
399.86	32.26
400.073	-8.7
400.287	214.52
400.5	-51.71
400.714	-4.61
400.927	-107.01
401.141	171.52
401.354	1060.34
401.567	179.71
401.781	-307.71
401.994	241.15
402.208	654.84
402.421	-164.35
402.635	-59.9
402.848	42.5
403.061	310.78
403.275	-113.15
403.488	-217.6
403.701	409.08
403.915	267.77
404.128	-25.09
404.341	-66.05
404.555	148.99
404.768	-41.47
404.981	-64
405.195	-176.64
405.408	497.14
405.621	224.76
405.834	-33.28
406.048	-240.12
406.261	423.42
406.474	437.75
406.687	-248.32
406.9	-94.72
407.114	28.16
407.327	192
407.54	-324.09
407.753	-233.98
407.966	-125.44
408.179	261.63
408.392	-184.83
408.605	-383.48
408.819	130.56
409.032	206.33
409.245	-233.98
409.458	-57.86
409.671	136.7
409.884	222.72
410.097	-238.08
410.31	79.36
410.523	300.54
410.736	9.73
410.949	-129.53
411.162	-209.4
411.375	380.41
411.588	384.51
411.801	-8.7
412.014	-221.69
412.227	-37.38
412.44	-23.04
412.653	-197.12
412.865	13.82
413.078	255.48
413.291	214.52
413.504	-111.1
413.717	-215.55
413.93	192
414.143	-107.01
414.356	-184.83
414.568	-307.71
414.781	247.29
414.994	134.65
415.207	-121.34
415.42	-55.81
415.632	183.81
415.845	497.14
416.058	-258.56
416.271	-209.4
416.483	65.02
416.696	509.43
416.909	-133.63
417.121	-272.89
417.334	159.23
417.547	523.77
417.759	-233.98
417.972	-328.19
418.185	-104.96
418.397	228.86
418.61	-225.79
418.823	-188.93
419.035	456.19
419.248	73.21
419.46	-111.1
419.673	-59.9
419.885	181.76
420.098	-51.71
420.311	-53.76
420.523	-403.96
420.736	157.18
420.948	17.92
421.161	-211.45
421.373	-389.63
421.586	105.98
421.798	-59.9
422.01	-326.14
422.223	-35.33
422.435	-123.39
422.648	167.42
422.86	-119.29
423.073	-188.93
423.285	316.92
423.497	-201.21
423.71	-182.78
423.922	-184.83
424.134	132.61
424.347	470.52
424.559	-23.04
424.771	110.08
424.984	-14.85
425.196	251.39
425.408	-393.72
425.621	-287.23
425.833	251.39
426.045	347.64
426.257	-299.52
426.47	-168.45
426.682	185.85
426.894	214.52
427.106	-223.74
427.318	-119.29
427.531	-127.49
427.743	216.57
427.955	-150.01
428.167	241.15
428.379	108.03
428.591	5.63
428.804	-102.91
429.016	-190.97
429.228	-66.05
429.44	134.65
429.652	-8.7
429.864	-287.23
430.076	44.54
430.288	30.21
430.5	-150.01
430.712	-147.97
430.924	323.07
431.136	69.12
431.348	-340.47
431.56	-115.2
431.772	30.21
431.984	-86.53
432.196	-197.12
432.408	-160.25
432.62	-41.47
432.832	87.55
433.044	114.17
433.256	-119.29
433.468	155.13
433.679	-217.6
433.891	-289.28
434.103	-10.75
434.315	380.41
434.527	208.38
434.739	-74.24
434.95	-141.82
435.162	292.35
435.374	-86.53
435.586	-107.01
435.798	-152.06
436.009	-209.4
436.221	19.97
436.433	-156.16
436.645	-111.1
436.856	-49.66
437.068	323.07
437.28	-231.93
437.491	85.5
437.703	157.18
437.915	60.93
438.126	-215.55
438.338	-8.7
438.55	17.92
438.761	194.05
438.973	-150.01
439.184	-145.92
439.396	42.5
439.608	308.73
439.819	-283.13
440.031	-37.38
440.242	114.17
440.454	245.24
440.665	-111.1
440.877	-80.38
441.088	173.57
441.3	-23.04
441.511	-297.47
441.723	-199.16
441.934	228.86
442.146	-10.75
442.357	-20.99
442.569	38.4
442.78	28.16
442.991	470.52
443.203	118.27
443.414	-281.08
443.626	417.27
443.837	-254.46
444.048	-256.51
444.26	-348.67
444.471	148.99
444.682	177.66
444.894	-334.33
445.105	-352.76
445.316	255.48
445.528	214.52
445.739	-4.61
445.95	-113.15
446.161	222.72
446.373	253.44
446.584	-166.4
446.795	-213.5
447.006	138.75
447.217	429.56
447.429	-274.94
447.64	-242.17
447.851	396.79
448.062	65.02
448.273	-436.73
448.484	-209.4
448.695	224.76
448.907	9.73
449.118	-145.92
449.329	56.83
449.54	-82.43
449.751	-217.6
449.962	-213.5
450.173	-274.94
450.384	335.35
450.595	355.83
450.806	-248.32
451.017	-168.45
451.228	288.25
451.439	249.34
451.65	-107.01
451.861	-397.82
452.072	-152.06
452.283	48.64
452.494	-33.28
452.705	-197.12
452.915	396.79
453.126	140.8
453.337	-133.63
453.548	-262.65
453.759	232.96
453.97	521.72
454.181	69.12
454.391	-152.06
454.602	71.17
454.813	73.21
455.024	-205.31
455.235	-250.36
455.445	196.09
455.656	130.56
455.867	-29.18
456.078	-205.31
456.288	5.63
456.499	69.12
456.71	-324.09
456.921	-2.56
457.131	177.66
457.342	103.93
457.553	-92.67
457.763	-182.78
457.974	214.52
458.184	192
458.395	-246.27
458.606	-309.76
458.816	411.13
459.027	503.29
459.237	-111.1
459.448	-401.91
459.659	321.02
459.869	497.14
460.08	-354.81
460.29	11.78
460.501	511.48
460.711	-25.09
460.922	-307.71
461.132	-242.17
461.343	716.28
461.553	-242.17
461.764	-258.56
461.974	-262.65
462.184	271.87
462.395	130.56
462.605	-168.45
462.816	-215.55
463.026	124.41
463.236	298.49
463.447	-211.45
463.657	-262.65
463.867	220.67
464.078	-107.01
464.288	-115.2
464.498	-240.12
464.709	-45.57
464.919	-59.9
465.129	-174.59
465.339	-238.08
465.55	200.19
465.76	245.24
465.97	-254.46
466.18	-276.99
466.391	306.68
466.601	120.32
466.811	-168.45
467.021	-332.28
467.231	237.05
467.441	318.97
467.651	-176.64
467.862	-479.74
468.072	60.93
468.282	339.45
468.492	-213.5
468.702	-109.05
468.912	48.64
469.122	671.22
469.332	60.93
469.542	-233.98
469.752	177.66
469.962	77.31
470.172	-262.65
470.382	-240.12
470.592	228.86
470.802	275.96
471.012	-31.23
471.222	-217.6
471.432	284.16
471.642	206.33
471.852	-43.52
472.062	-233.98
472.272	-23.04
472.482	-268.8
472.691	-281.08
472.901	-320
473.111	116.22
473.321	540.15
473.531	-279.04
473.741	-215.55
473.95	189.95
474.16	208.38
474.37	-127.49
474.58	-322.04
474.79	454.14
474.999	267.77
475.209	-283.13
475.419	-195.07
475.628	-107.01
475.838	302.59
476.048	-152.06
476.258	-336.38
476.467	321.02
476.677	-4.61
476.886	-45.57
477.096	-102.91
477.306	-115.2
477.515	339.45
477.725	-160.25
477.935	-211.45
478.144	409.08
478.354	-61.95
478.563	-289.28
478.773	-182.78
478.982	253.44
479.192	331.26
479.401	-0.51
479.611	-303.61
479.82	-121.34
480.03	183.81
480.239	-295.42
480.449	-299.52
480.658	341.5
480.868	-78.33
481.077	-107.01
481.287	-225.79
481.496	161.28
481.705	404.99
481.915	89.6
482.124	-20.99
482.333	212.48
482.543	368.12
482.752	-123.39
482.961	-176.64
483.171	146.94
483.38	110.08
483.589	-127.49
483.799	-262.65
484.008	40.45
484.217	318.97
484.426	-152.06
484.636	-346.62
484.845	73.21
485.054	-287.23
485.263	-20.99
485.472	-172.54
485.682	468.47
485.891	163.33
486.1	-303.61
486.309	-176.64
486.518	228.86
486.727	386.55
486.936	-229.88
487.146	-131.58
487.355	396.79
487.564	-141.82
487.773	-184.83
487.982	-223.74
488.191	-41.47
488.4	120.32
488.609	-227.84
488.818	-166.4
489.027	663.03
489.236	312.83
489.445	-115.2
489.654	-217.6
489.863	312.83
490.072	136.7
490.281	69.12
490.49	-205.31
490.698	478.71
490.907	480.76
491.116	-233.98
491.325	-348.67
491.534	384.51
491.743	110.08
491.952	-45.57
492.16	-119.29
492.369	261.63
492.578	239.1
492.787	-49.66
492.996	-375.29
493.204	-74.24
493.413	527.86
493.622	-393.72
493.831	-307.71
494.039	439.8
494.248	-168.45
494.457	-197.12
494.665	-295.42
494.874	331.26
495.083	581.11
495.291	-74.24
495.5	-311.8
495.709	265.72
495.917	101.89
496.126	-90.62
496.335	-184.83
496.543	-4.61
496.752	198.14
496.96	103.93
497.169	-293.37
497.377	73.21
497.586	400.89
497.794	-4.61
498.003	-322.04
498.211	105.98
498.42	495.1
498.628	-57.86
498.837	-303.61
499.045	194.05
499.254	126.46
499.462	-174.59
499.671	-238.08
499.879	581.11
500.087	364.03
500.296	-219.64
500.504	-188.93
500.713	108.03
500.921	544.25
501.129	-104.96
501.338	-143.87
501.546	179.71
501.754	196.09
501.962	-133.63
502.171	-254.46
502.379	161.28
502.587	472.57
502.795	-92.67
503.004	-129.53
503.212	167.42
503.42	316.92
503.628	-137.73
503.837	-117.25
504.045	216.57
504.253	591.35
504.461	-203.26
504.669	-324.09
504.877	349.69
505.085	464.38
505.294	-172.54
505.502	60.93
505.71	202.24
505.918	314.88
506.126	-201.21
506.334	-193.02
506.542	124.41
506.75	179.71
506.958	-68.09
507.166	-131.58
507.374	56.83
507.582	562.68
507.79	-4.61
507.998	-215.55
508.206	280.06
508.414	298.49
508.622	-156.16
508.83	-154.11
509.037	572.92
509.245	122.37
509.453	-225.79
509.661	-186.88
509.869	282.11
510.077	46.59
510.285	-45.57
510.492	-432.63
510.7	640.5
510.908	22.02
511.116	-162.3
511.324	-152.06
511.531	75.26
511.739	157.18
511.947	19.97
512.155	112.13
512.362	187.9
512.57	-135.68
512.778	-217.6
512.985	-256.51
513.193	359.93
513.401	462.33
513.608	-74.24
513.816	-119.29
514.024	339.45
514.231	511.48
514.439	-141.82
514.646	-61.95
514.854	388.6
515.061	390.65
515.269	-150.01
515.477	-158.21
515.684	-127.49
515.892	361.98
516.099	-201.21
516.307	-274.94
516.514	419.32
516.722	509.43
516.929	-102.91
517.136	-152.06
517.344	499.19
517.551	318.97
517.759	-133.63
517.966	-96.77
518.173	77.31
518.381	249.34
518.588	-39.42
518.796	-176.64
519.003	462.33
519.21	122.37
519.418	-96.77
519.625	194.05
519.832	185.85
520.039	208.38
520.247	-338.43
520.454	-47.62
520.661	413.18
520.868	312.83
521.076	-104.96
521.283	17.92
521.49	701.94
521.697	269.82
521.904	-68.09
522.112	-86.53
522.319	419.32
522.526	267.77
522.733	-109.05
522.94	-117.25
523.147	179.71
523.354	462.33
523.561	-217.6
523.768	24.06
523.975	454.14
524.183	224.76
524.39	-76.29
524.597	-182.78
524.804	132.61
525.011	-4.61
525.218	-92.67
525.425	-4.61
525.632	568.82
525.838	79.36
526.045	-4.61
526.252	-107.01
526.459	1242.61
526.666	990.7
526.873	-143.87
527.08	-166.4
527.287	534.01
527.494	495.1
527.701	-262.65
527.907	-135.68
528.114	355.83
528.321	192
528.528	15.87
528.735	-104.96
528.941	103.93
529.148	69.12
529.355	42.5
529.562	-29.18
529.768	695.8
529.975	185.85
530.182	11.78
530.388	-37.38
530.595	529.91
530.802	24.06
531.008	60.93
531.215	-68.09
531.422	646.65
531.628	1037.81
531.835	-23.04
532.042	24.06
532.248	181.76
532.455	366.07
532.661	50.69
532.868	-123.39
533.074	273.92
533.281	531.96
533.487	-66.05
533.694	-37.38
533.9	126.46
534.107	458.23
534.313	-115.2
534.52	-141.82
534.726	478.71
534.933	728.56
535.139	11.78
535.345	-100.86
535.552	364.03
535.758	224.76
535.965	24.06
536.171	-68.09
536.377	525.82
536.584	675.32
536.79	-51.71
536.996	165.37
537.203	396.79
537.409	437.75
537.615	73.21
537.821	185.85
538.028	519.67
538.234	482.81
538.44	44.54
538.646	28.16
538.853	454.14
539.059	224.76
539.265	286.2
539.471	-109.05
539.677	507.38
539.883	198.14
540.09	11.78
540.296	419.32
540.502	345.59
540.708	224.76
540.914	230.91
541.12	11.78
541.326	404.99
541.532	216.57
541.738	183.81
541.944	105.98
542.15	542.2
542.356	232.96
542.562	3.58
542.768	73.21
542.974	888.31
543.18	873.97
543.386	44.54
543.592	-25.09
543.798	685.56
544.004	665.08
544.21	-18.94
544.415	198.14
544.621	392.7
544.827	611.83
545.033	-113.15
545.239	310.78
545.445	101.89
545.651	441.85
545.856	105.98
546.062	114.17
546.268	306.68
546.474	310.78
546.679	114.17
546.885	114.17
547.091	280.06
547.297	765.43
547.502	316.92
547.708	-64
547.914	245.24
548.119	585.21
548.325	-84.48
548.531	-4.61
548.736	724.47
548.942	257.53
549.147	19.97
549.353	351.74
549.559	675.32
549.764	450.04
549.97	89.6
550.175	105.98
550.381	501.24
550.586	269.82
550.792	60.93
550.997	122.37
551.203	495.1
551.408	597.49
551.614	77.31
551.819	73.21
552.025	857.59
552.23	830.96
552.435	73.21
552.641	218.62
552.846	386.55
553.052	701.94
553.257	247.29
553.462	116.22
553.668	241.15
553.873	660.98
554.078	97.79
554.283	-8.7
554.489	493.05
554.694	507.38
554.899	126.46
555.105	343.55
555.31	613.88
555.515	622.07
555.72	189.95
555.925	93.69
556.131	665.08
556.336	241.15
556.541	124.41
556.746	62.98
556.951	802.29
557.156	806.39
557.361	249.34
557.567	263.68
557.772	984.56
557.977	644.6
558.182	167.42
558.387	216.57
558.592	421.37
558.797	841.2
559.002	335.35
559.207	306.68
559.412	460.28
559.617	994.8
559.822	155.13
560.027	62.98
560.232	634.36
560.437	683.51
560.642	112.13
560.847	153.09
561.051	613.88
561.256	601.59
561.461	218.62
561.666	81.41
561.871	605.69
562.076	636.41
562.281	214.52
562.485	75.26
562.69	765.43
562.895	720.37
563.1	226.81
563.305	114.17
563.509	806.39
563.714	1162.73
563.919	269.82
564.123	251.39
564.328	429.56
564.533	773.62
564.737	177.66
564.942	239.1
565.147	880.11
565.351	1134.06
565.556	355.83
565.761	388.6
565.965	640.5
566.17	413.18
566.374	339.45
566.579	187.9
566.784	675.32
566.988	456.19
567.193	151.04
567.397	151.04
567.602	226.81
567.806	593.4
568.011	265.72
568.215	216.57
568.42	476.66
568.624	484.86
568.828	302.59
569.033	484.86
569.237	761.33
569.442	708.09
569.646	298.49
569.85	335.35
570.055	603.64
570.259	695.8
570.463	474.62
570.668	318.97
570.872	589.3
571.076	683.51
571.281	404.99
571.485	437.75
571.689	642.55
571.893	828.92
572.098	411.13
572.302	413.18
572.506	790
572.71	611.83
572.914	423.42
573.119	355.83
573.323	1076.72
573.527	892.4
573.731	243.2
573.935	292.35
574.139	845.3
574.343	452.09
574.547	482.81
574.751	413.18
574.955	984.56
575.159	957.94
575.364	284.16
575.568	353.79
575.772	650.74
575.976	986.61
576.18	437.75
576.383	202.24
576.587	972.27
576.791	806.39
576.995	243.2
577.199	247.29
577.403	847.35
577.607	984.56
577.811	232.96
578.015	460.28
578.219	790
578.422	839.16
578.626	546.3
578.83	527.86
579.034	912.88
579.238	826.87
579.442	409.08
579.645	794.1
579.849	734.71
580.053	703.99
580.257	404.99
580.46	519.67
580.664	1037.81
580.868	859.63
581.071	656.89
581.275	646.65
581.479	374.27
581.682	972.27
581.886	374.27
582.09	583.16
582.293	900.59
582.497	1052.14
582.7	734.71
582.904	398.84
583.107	771.57
583.311	712.18
583.515	615.93
583.718	548.34
583.922	833.01
584.125	1201.65
584.329	486.9
584.532	599.54
584.735	1230.32
584.939	1023.47
585.142	472.57
585.346	427.51
585.549	790
585.753	675.32
585.956	517.62
586.159	769.52
586.363	1168.88
586.566	945.65
586.769	484.86
586.973	456.19
587.176	1013.23
587.379	1078.77
587.582	970.23
587.786	724.47
587.989	867.83
588.192	1512.94
588.395	675.32
588.599	890.35
588.802	998.9
589.005	1039.86
589.208	699.89
589.411	628.21
589.615	1121.77
589.818	1357.29
590.021	757.24
590.224	718.33
590.427	1031.66
590.63	1113.58
590.833	488.95
591.036	658.93
591.239	871.92
591.442	755.19
591.645	855.54
591.848	675.32
592.051	959.99
592.254	1095.15
592.457	665.08
592.66	695.8
592.863	882.16
593.066	1068.53
593.269	638.45
593.472	716.28
593.675	699.89
593.878	1164.78
594.081	767.48
594.284	605.69
594.486	1166.83
594.689	1013.23
594.892	716.28
595.095	843.25
595.298	1179.12
595.5	937.46
595.703	863.73
595.906	871.92
596.109	1328.62
596.311	1287.66
596.514	476.66
596.717	767.48
596.92	1283.56
597.122	1170.93
597.325	396.79
597.528	706.04
597.73	1396.2
597.933	1084.91
598.136	781.81
598.338	562.68
598.541	1154.54
598.743	1269.23
598.946	855.54
599.148	859.63
599.351	1338.86
599.554	1277.42
599.756	949.75
599.959	863.73
600.161	1379.82
600.363	1625.58
600.566	1086.96
600.768	718.33
600.971	1543.66
601.173	1248.75
601.376	855.54
601.578	888.31
601.78	1222.13
601.983	1748.45
602.185	781.81
602.388	1021.42
602.59	1332.72
602.792	1127.92
602.995	1054.19
603.197	814.58
603.399	1461.74
603.601	1203.69
603.804	871.92
604.006	806.39
604.208	1162.73
604.41	722.42
604.613	1086.96
604.815	785.91
605.017	1707.49
605.219	1119.73
605.421	1252.84
605.623	908.79
605.826	1611.24
606.028	1447.4
606.23	937.46
606.432	972.27
606.634	1568.23
606.836	1529.32
607.038	732.66
607.24	1015.28
607.442	1310.19
607.644	1187.31
607.846	1103.34
608.048	876.02
608.25	1582.57
608.452	1091.06
608.654	1027.57
608.856	790
609.058	1148.4
609.26	1424.87
609.462	1070.58
609.664	1048.05
609.866	1770.98
610.067	1623.53
610.269	1330.67
610.471	1062.38
610.673	1109.49
610.875	1375.72
611.077	962.03
611.278	1164.78
611.48	1381.87
611.682	1678.82
611.884	1175.02
612.085	1076.72
612.287	1129.97
612.489	1433.07
612.69	904.69
612.892	1175.02
613.094	1648.1
613.295	1383.91
613.497	904.69
613.699	1080.82
613.9	1707.49
614.102	1566.18
614.304	1060.34
614.505	945.65
614.707	1314.28
614.908	1318.38
615.11	869.87
615.311	1197.55
615.513	1580.52
615.714	1660.39
615.916	1002.99
616.117	1242.61
616.319	1293.8
616.52	1676.77
616.722	1068.53
616.923	1041.9
617.124	1697.25
617.326	1539.56
617.527	1193.45
617.729	1422.83
617.93	1588.71
618.131	1547.75
618.333	1232.37
618.534	1250.8
618.735	1273.32
618.937	1887.72
619.138	1027.57
619.339	1046
619.54	1584.62
619.742	1453.55
619.943	1388.01
620.144	1285.61
620.345	1713.64
620.546	1711.59
620.748	1164.78
620.949	1322.48
621.15	1431.02
621.351	1568.23
621.552	1177.07
621.753	1082.86
621.954	1189.36
622.155	2084.32
622.356	1129.97
622.558	1379.82
622.759	1590.76
622.96	1977.83
623.161	1326.57
623.362	1226.22
623.563	1488.36
623.764	1603.05
623.965	1277.42
624.166	1388.01
624.366	1426.92
624.567	1672.68
624.768	996.85
624.969	1281.52
625.17	1414.63
625.371	1682.92
625.572	1371.63
625.773	1283.56
625.973	1797.6
626.174	1811.94
626.375	1375.72
626.576	1394.15
626.777	1820.13
626.977	2145.76
627.178	1254.89
627.379	1404.39
627.58	1572.33
627.78	1672.68
627.981	1478.12
628.182	1449.45
628.382	1891.81
628.583	1295.85
628.784	1158.64
628.984	1572.33
629.185	1908.19
629.386	1836.52
629.586	1404.39
629.787	1261.04
629.987	1768.93
630.188	1730.02
630.388	1332.72
630.589	1441.26
630.79	2350.56
630.99	1766.89
631.191	1531.37
631.391	1512.94
631.591	1953.25
631.792	2039.26
631.992	1576.42
632.193	1471.98
632.393	1986.02
632.594	1660.39
632.794	1330.67
632.994	1486.31
633.195	1777.12
633.395	1773.03
633.595	1480.17
633.796	1789.41
633.996	1598.95
634.196	1959.39
634.397	1314.28
634.597	1629.67
634.797	1535.46
634.997	2141.66
635.198	1727.97
635.398	1414.63
635.598	1955.3
635.798	2149.86
635.998	2026.98
636.199	1451.5
636.399	1752.55
636.599	1609.19
636.799	1633.77
636.999	1791.46
637.199	2063.84
637.399	2074.08
637.599	1609.19
637.799	1748.45
637.999	1646.05
638.199	2194.91
638.399	1494.51
638.599	1562.09
638.799	1992.16
638.999	2401.76
639.199	1893.86
639.399	1678.82
639.599	2217.44
639.799	1830.37
639.999	1555.94
640.199	1494.51
640.399	1977.83
640.599	1832.42
640.799	1807.84
640.998	1885.67
641.198	2211.29
641.398	2063.84
641.598	1826.28
641.798	1748.45
641.997	2850.26
642.197	1887.72
642.397	1867.24
642.597	1727.97
642.796	2063.84
642.996	2346.46
643.196	1867.24
643.395	1562.09
643.595	2053.6
643.795	1596.9
643.994	1633.77
644.194	1813.99
644.394	2244.06
644.593	2059.74
644.793	1611.24
644.992	1969.63
645.192	2059.74
645.392	1615.34
645.591	1920.48
645.791	1750.5
645.99	2209.25
646.19	2004.45
646.389	1912.29
646.589	1895.91
646.788	2307.55
646.987	2211.29
647.187	2002.4
647.386	2059.74
647.586	2129.38
647.785	2325.98
647.984	1879.52
648.184	1936.87
648.383	1928.67
648.582	1947.11
648.782	1828.32
648.981	1920.48
649.18	1897.96
649.38	2248.16
649.579	1975.78
649.778	1740.26
649.977	2319.84
650.177	2323.93
650.376	1940.96
650.575	1838.56
650.774	2530.78
650.973	1971.68
651.173	1801.7
651.372	1848.8
651.571	2174.43
651.77	2491.87
651.969	1953.25
652.168	1981.92
652.367	1883.62
652.566	2192.86
652.765	1871.33
652.964	2260.45
653.163	2690.52
653.362	2260.45
653.561	1813.99
653.76	2051.55
653.959	2207.2
654.158	2371.04
654.357	2344.41
654.556	2102.75
654.755	2452.95
654.954	2500.06
655.153	1986.02
655.352	2188.77
655.551	2524.63
655.749	2018.79
655.948	2115.04
656.147	2153.95
656.346	2348.51
656.545	2203.1
656.743	2127.33
656.942	2237.92
657.141	2506.2
657.34	2231.77
657.538	2100.7
657.737	2117.09
657.936	2094.56
658.135	2354.65
658.333	2115.04
658.532	2254.3
658.731	2778.58
658.929	2438.62
659.128	2510.3
659.326	2112.99
659.525	2645.46
659.724	2305.5
659.922	1803.75
660.121	2053.6
660.319	2379.23
660.518	2203.1
660.716	1971.68
660.915	2084.32
661.113	2827.73
661.312	2221.53
661.51	2354.65
661.709	2190.81
661.907	2477.53
662.105	2854.36
662.304	2199.01
662.502	2387.42
662.701	2680.28
662.899	2373.08
663.097	2592.22
663.296	2096.61
663.494	2797.01
663.692	2899.41
663.891	2199.01
664.089	2250.21
664.287	2584.02
664.485	2770.39
664.684	2274.78
664.882	2403.8
665.08	2491.87
665.278	2684.38
665.476	2172.38
665.675	2502.11
665.873	2966.99
666.071	2786.77
666.269	2287.07
666.467	2653.66
666.665	2547.16
666.863	2430.43
667.061	2385.37
667.259	2432.47
667.457	2495.96
667.655	2672.09
667.853	2252.25
668.051	2379.23
668.249	2342.36
668.447	2672.09
668.645	2260.45
668.843	2549.21
669.041	2788.82
669.239	2549.21
669.437	2467.29
669.635	2612.7
669.833	2561.5
670.031	2817.49
670.229	2508.25
670.426	2432.47
670.624	2459.1
670.822	2586.07
671.02	2502.11
671.218	2584.02
671.415	2375.13
671.613	2739.67
671.811	2526.68
672.009	2436.57
672.206	2846.16
672.404	2719.19
672.602	2575.83
672.799	2610.65
672.997	2846.16
673.195	2862.55
673.392	2575.83
673.59	2420.19
673.788	2952.66
673.985	2264.54
674.183	2575.83
674.38	2528.73
674.578	2930.13
674.775	2442.71
674.973	2399.71
675.17	2500.06
675.368	3044.82
675.565	2854.36
675.763	2342.36
675.96	2379.23
676.158	3073.49
676.355	2680.28
676.553	2627.03
676.75	2520.54
676.947	2848.21
677.145	2684.38
677.342	2641.37
677.539	2764.25
677.737	2862.55
677.934	3335.63
678.131	2682.33
678.329	2588.12
678.526	3161.55
678.723	2987.47
678.92	2733.53
679.118	2641.37
679.315	2545.11
679.512	3177.94
679.709	2678.23
679.906	2641.37
680.104	3106.26
680.301	2870.74
680.498	2455
680.695	2659.8
680.892	2772.44
681.089	2803.16
681.286	2590.17
681.483	2483.67
681.68	3010
681.877	3005.91
682.075	2704.85
682.272	2919.89
682.469	2917.84
682.665	2817.49
682.862	2559.45
683.059	2547.16
683.256	3042.77
683.453	2858.45
683.65	2807.25
683.847	2684.38
684.044	2923.99
684.241	2684.38
684.438	2819.54
684.635	2629.08
684.831	3460.56
685.028	3450.32
685.225	2657.75
685.422	2852.31
685.619	3075.54
685.815	2874.84
686.012	2835.92
686.209	2678.23
686.405	2747.86
686.602	3096.02
686.799	2547.16
686.996	2551.26
687.192	2735.57
687.389	3384.78
687.586	2731.48
687.782	2975.19
687.979	3208.66
688.175	3468.75
688.372	2899.41
688.568	2694.61
688.765	3059.15
688.962	3247.57
689.158	2846.16
689.355	2563.54
689.551	3339.73
689.748	2911.7
689.944	2813.4
690.14	2596.31
690.337	3245.52
690.533	2946.52
690.73	3028.43
690.926	2850.26
691.123	3261.9
691.319	3005.91
691.515	2776.53
691.712	2964.95
691.908	3151.31
692.104	3075.54
692.301	2977.23
692.497	2702.81
692.693	3214.8
692.889	3186.13
693.086	3018.19
693.282	2715.09
693.478	3016.15
693.674	3573.19
693.87	2969.04
694.067	2749.91
694.263	3192.27
694.459	3071.44
694.655	2975.19
694.851	2987.47
695.047	3347.92
695.243	3169.74
695.439	3087.82
695.635	2893.27
695.831	3298.77
696.027	3188.18
696.224	2854.36
696.42	3255.76
696.615	3427.79
696.811	3216.85
697.007	2731.48
697.203	2889.17
697.399	3237.33
697.595	3403.21
697.791	2831.83
697.987	3112.4
698.183	2811.35
698.379	3032.53
698.575	2825.68
698.77	3030.48
698.966	3386.83
699.162	3364.3
699.358	3022.29
699.554	3010
699.749	3347.92
699.945	3296.72
700.141	3122.64
700.337	3110.35
700.532	3239.37
700.728	2940.37
700.924	2917.84
701.119	2756.05
701.315	3268.05
701.511	3206.61
701.706	3026.39
701.902	2829.78
702.097	3165.65
702.293	3329.49
702.489	3096.02
702.684	3014.1
702.88	3186.13
703.075	2995.67
703.271	3005.91
703.466	2995.67
703.662	3354.06
703.857	3419.6
704.053	2962.9
704.248	2919.89
704.443	3409.36
704.639	3403.21
704.834	3007.95
705.03	3104.21
705.225	3366.35
705.42	3550.67
705.616	3130.83
705.811	3059.15
706.006	3325.39
706.202	3216.85
706.397	3167.7
706.592	2915.8
706.787	3390.92
706.983	3304.91
707.178	3347.92
707.373	3153.36
707.568	3585.48
707.763	3536.33
707.959	3069.39
708.154	3091.92
708.349	3388.88
708.544	3378.64
708.739	3526.09
708.934	3034.58
709.129	3538.38
709.324	3661.26
709.519	3159.5
709.714	3044.82
709.909	3624.39
710.104	3476.94
710.299	3182.03
710.494	3136.98
710.689	3472.84
710.884	3462.6
711.079	3153.36
711.274	3509.71
711.469	3448.27
711.664	3487.18
711.859	3200.46
712.054	3284.43
712.249	3562.95
712.443	3630.54
712.638	3177.94
712.833	3069.39
713.028	3372.49
713.223	3343.82
713.417	3464.65
713.612	3153.36
713.807	3677.64
714.002	4101.57
714.196	3392.97
714.391	3157.46
714.586	3603.91
714.78	3401.16
714.975	3231.18
715.17	3202.51
715.364	3343.82
715.559	3640.78
715.754	2932.18
715.948	3173.84
716.143	3896.77
716.337	3431.88
716.532	3487.18
716.726	3151.31
716.921	3722.7
717.115	4011.46
717.31	3053.01
717.504	3816.9
717.699	3354.06
717.893	3673.54
718.088	3110.35
718.282	3222.99
718.476	3595.72
718.671	3536.33
718.865	3198.42
719.059	3079.63
719.254	3495.37
719.448	3800.52
719.642	4447.68
719.837	3016.15
720.031	3777.99
720.225	3730.89
720.419	3403.21
720.614	3315.15
720.808	3622.34
721.002	3505.61
721.196	3317.2
721.39	3218.89
721.585	3857.86
721.779	3583.43
721.973	3284.43
722.167	3153.36
722.361	3554.76
722.555	3782.09
722.749	3245.52
722.943	3349.96
723.137	3196.37
723.331	3612.1
723.525	3335.63
723.719	3333.58
723.913	3771.85
724.107	3794.37
724.301	3313.1
724.495	3372.49
724.689	4033.99
724.883	3874.24
725.077	3282.38
725.271	3306.96
725.465	3796.42
725.659	3505.61
725.853	3472.84
726.046	3110.35
726.24	3517.9
726.434	3788.23
726.628	3405.26
726.822	3438.03
727.015	3894.72
727.209	3964.36
727.403	3292.62
727.596	3173.84
727.79	3710.41
727.984	3759.56
728.177	3386.83
728.371	3476.94
728.565	3755.46
728.758	3380.68
728.952	3249.61
729.146	3513.8
729.339	3874.24
729.533	3669.45
729.726	3409.36
729.92	3280.33
730.113	3988.93
730.307	3524.04
730.5	3454.41
730.694	3450.32
730.887	3540.43
731.081	3777.99
731.274	3493.32
731.468	3501.51
731.661	3921.35
731.854	3610.06
732.048	3321.29
732.241	3227.09
732.435	3521.99
732.628	3780.04
732.821	3429.84
733.014	3354.06
733.208	3378.64
733.401	3900.87
733.594	3462.6
733.788	3368.4
733.981	3984.84
734.174	3780.04
734.367	3478.99
734.56	3544.52
734.754	4033.99
734.947	3669.45
735.14	3343.82
735.333	3489.23
735.526	3929.54
735.719	3612.1
735.912	3407.31
736.105	3530.19
736.298	3747.27
736.491	3624.39
736.684	3395.02
736.877	3540.43
737.07	3886.53
737.263	4193.73
737.456	3558.86
737.649	3366.35
737.842	3630.54
738.035	3894.72
738.228	3628.49
738.421	3618.25
738.614	4152.77
738.807	4046.27
739	3263.95
739.192	3562.95
739.385	3995.08
739.578	3933.64
739.771	3818.95
739.964	3544.52
740.156	3997.12
740.349	3841.48
740.542	3812.81
740.735	3399.12
740.927	3628.49
741.12	3593.67
741.313	3270.09
741.505	3646.92
741.698	3810.76
741.891	3931.59
742.083	3665.35
742.276	3706.31
742.468	3763.65
742.661	3882.44
742.854	3669.45
743.046	3573.19
743.239	4292.03
743.431	3739.08
743.624	3603.91
743.816	3532.23
744.009	3792.33
744.201	3874.24
744.393	3835.33
744.586	3501.51
744.778	4101.57
744.971	3882.44
745.163	3642.82
745.355	3681.74
745.548	4050.37
745.74	3780.04
745.932	3677.64
746.125	3780.04
746.317	4478.4
746.509	3970.5
746.702	3755.46
746.894	3698.12
747.086	3964.36
747.278	4283.84
747.471	3919.3
747.663	3821
747.855	4023.75
748.047	4304.32
748.239	3608.01
748.431	3675.59
748.623	4361.66
748.815	4275.65
749.008	3435.98
749.2	3685.83
749.392	4089.28
749.584	4083.14
749.776	3831.24
749.968	3833.29
750.16	4271.55
750.352	3833.29
750.544	3679.69
750.736	3612.1
750.928	4060.61
751.12	3821
751.311	3585.48
751.503	3777.99
751.695	4132.29
751.887	3786.18
752.079	3349.96
752.271	3683.78
752.463	4853.17
752.654	4246.98
752.846	3632.58
753.038	3653.06
753.23	3831.24
753.421	4206.02
753.613	3675.59
753.805	3909.06
753.997	4107.71
754.188	4277.69
754.38	3714.5
754.572	3732.94
754.763	4009.41
754.955	4101.57
755.146	4066.75
755.338	3913.16
755.53	4148.67
755.721	3784.13
755.913	3491.27
756.104	3683.78
756.296	4101.57
756.487	4109.76
756.679	3767.75
756.87	3886.53
757.062	3827.14
757.253	4107.71
757.445	3689.93
757.636	3911.11
757.827	3986.88
758.019	4453.82
758.21	3751.37
758.401	3702.22
758.593	4406.72
758.784	4277.69
758.975	3632.58
759.167	3591.63
759.358	4085.19
759.549	4328.89
759.74	3800.52
759.932	3886.53
760.123	4185.54
760.314	3898.82
760.505	3896.77
760.696	3626.44
760.888	4529.59
761.079	3909.06
761.27	3636.68
761.461	3556.81
761.652	4388.29
761.843	3976.64
762.034	3747.27
762.225	4062.66
762.416	3913.16
762.607	3960.26
762.798	3864.01
762.989	3544.52
763.18	4869.56
763.371	3743.17
763.562	3749.32
763.753	3804.61
763.944	4232.64
764.135	4318.65
764.326	3864.01
764.517	3601.87
764.708	4009.41
764.899	4163.01
765.089	3773.89
765.28	3622.34
765.471	4107.71
765.662	4126.15
765.853	3810.76
766.043	3616.2
766.234	4406.72
766.425	4163.01
766.615	3898.82
766.806	3675.59
766.997	4296.13
767.187	4115.91
767.378	3773.89
767.569	3573.19
767.759	4234.69
767.95	4113.86
768.141	3964.36
768.331	3651.02
768.522	4066.75
768.712	4210.11
768.903	3780.04
769.093	3722.7
769.284	4277.69
769.474	4064.71
769.665	3677.64
769.855	3519.95
770.046	4271.55
770.236	3931.59
770.426	3974.6
770.617	3624.39
770.807	4234.69
770.998	3927.49
771.188	3872.2
771.378	3704.26
771.569	4320.7
771.759	4175.3
771.949	3591.63
772.139	3636.68
772.33	4062.66
772.52	4261.31
772.71	3747.27
772.9	3491.27
773.09	4439.48
773.281	4328.89
773.471	3612.1
773.661	3812.81
773.851	4259.26
774.041	3900.87
774.231	3624.39
774.421	3835.33
774.611	4369.85
774.802	4027.84
774.992	3706.31
775.182	3579.34
775.372	4042.18
775.562	4173.25
775.752	3821
775.942	3825.09
776.131	4296.13
776.321	4111.81
776.511	3579.34
776.701	3638.73
776.891	4275.65
777.081	3769.8
777.271	3845.57
777.461	3722.7
777.651	4148.67
777.84	4242.88
778.03	3866.05
778.22	3788.23
778.41	4304.32
778.599	3771.85
778.789	3734.98
778.979	3698.12
779.169	4314.56
779.358	3950.02
779.548	3909.06
779.738	3605.96
779.927	4109.76
780.117	3937.73
780.307	3816.9
780.496	3546.57
780.686	4158.91
780.875	4369.85
781.065	3730.89
781.254	3698.12
781.444	4072.9
781.633	3990.98
781.823	3630.54
782.012	3734.98
782.202	3931.59
782.391	3954.12
782.581	3628.49
782.77	3960.26
782.96	4292.03
783.149	3978.69
783.338	3780.04
783.528	3489.23
783.717	4226.5
783.906	4322.75
784.096	3939.78
784.285	3687.88
784.474	3911.11
784.663	3687.88
784.853	3849.67
785.042	3663.3
785.231	4107.71
785.42	4107.71
785.61	3804.61
785.799	3747.27
785.988	3821
786.177	3894.72
786.366	3847.62
786.555	4031.94
786.744	4195.78
786.933	4079.04
787.122	3608.01
787.312	3755.46
787.501	3939.78
787.69	4015.55
787.879	3616.2
788.068	3599.82
788.257	3685.83
788.445	3878.34
788.634	3917.25
788.823	3628.49
789.012	4640.19
789.201	4355.52
789.39	3710.41
789.579	3687.88
789.768	4001.22
789.957	4003.27
790.145	3503.56
790.334	3513.8
790.523	3872.2
790.712	3927.49
790.9	3956.16
791.089	3618.25
791.278	4386.24
791.467	4076.99
791.655	4007.36
791.844	4216.26
792.033	3675.59
792.221	3859.91
792.41	3659.21
792.599	3538.38
792.787	4212.16
792.976	4212.16
793.164	3630.54
793.353	3667.4
793.541	4240.83
793.73	4062.66
793.918	3796.42
794.107	3743.17
794.295	4003.27
794.484	4033.99
794.672	3757.51
794.861	3861.96
795.049	3976.64
795.238	4439.48
795.426	3579.34
795.614	3821
795.803	4019.65
795.991	4300.22
796.179	3716.55
796.368	3743.17
796.556	4308.41
796.744	3718.6
796.932	3571.15
797.121	3608.01
797.309	3866.05
797.497	4052.42
797.685	3710.41
797.874	3587.53
798.062	4040.13
798.25	4201.92
798.438	3583.43
798.626	3810.76
798.814	4089.28
799.002	4523.45
799.19	3984.84
799.378	3767.75
799.566	4285.89
799.755	4378.05
799.943	3839.43
800.131	3720.65
800.318	4158.91
800.506	4132.29
800.694	3661.26
800.882	3921.35
801.07	4234.69
801.258	4036.03
801.446	3763.65
801.634	3743.17
801.822	4046.27
802.01	4134.34
802.197	3780.04
802.385	3909.06
802.573	4181.44
802.761	3804.61
802.949	3894.72
803.136	3673.54
803.324	4273.6
803.512	4087.23
803.699	3886.53
803.887	3608.01
804.075	4378.05
804.262	3937.73
804.45	3784.13
804.638	3939.78
804.825	4058.56
805.013	4029.89
805.201	3907.01
805.388	3782.09
805.576	4189.63
805.763	4541.88
805.951	3970.5
806.138	4173.25
806.326	4697.53
806.513	4269.5
806.701	3960.26
806.888	4066.75
807.075	4212.16
807.263	4640.19
807.45	3689.93
807.638	4068.8
807.825	4701.62
808.012	4416.96
808.2	4001.22
808.387	4107.71
808.574	4193.73
808.761	4754.87
808.949	3921.35
809.136	3974.6
809.323	3980.74
809.51	4208.06
809.698	4189.63
809.885	4079.04
810.072	4414.91
810.259	4609.47
810.446	4066.75
810.633	4095.43
810.82	4537.79
811.008	4545.98
811.195	4347.33
811.382	4099.52
811.569	4289.98
811.756	3995.08
811.943	4275.65
812.13	4165.06
812.317	4208.06
812.504	4046.27
812.691	4193.73
812.878	4212.16
813.064	4605.37
813.251	4441.53
813.438	4054.47
813.625	4099.52
813.812	4206.02
813.999	4318.65
814.186	4214.21
814.372	4150.72
814.559	4449.72
814.746	4615.61
814.933	4165.06
815.12	4302.27
815.306	4337.09
815.493	4267.45
815.68	4201.92
815.866	4128.19
816.053	4779.45
816.24	4961.72
816.426	4316.61
816.613	4115.91
816.799	4500.92
816.986	4691.38
817.173	4158.91
817.359	4103.62
817.546	4545.98
817.732	3960.26
817.919	3931.59
818.105	4380.09
818.292	4337.09
818.478	4656.57
818.665	4242.88
818.851	4148.67
819.037	4984.24
819.224	4433.34
819.41	4066.75
819.597	4328.89
819.783	4881.85
819.969	4656.57
820.156	4206.02
820.342	4124.1
820.528	5320.11
820.714	4412.86
820.901	4529.59
821.087	4222.4
821.273	4877.75
821.459	4287.93
821.646	4128.19
821.832	4169.15
822.018	4371.9
822.204	4500.92
822.39	4298.17
822.576	3859.91
822.762	4548.03
822.948	4482.49
823.134	4335.04
823.32	4160.96
823.507	4165.06
823.693	4517.31
823.879	4550.07
824.065	4042.18
824.25	4658.62
824.436	4314.56
824.622	4195.78
824.808	4062.66
824.994	4433.34
825.18	4208.06
825.366	4093.38
825.552	4238.78
825.738	4455.87
825.923	4728.25
826.109	4421.05
826.295	4246.98
826.481	4287.93
826.667	4253.12
826.852	4330.94
827.038	4191.68
827.224	4740.54
827.409	4783.54
827.595	4011.46
827.781	4310.46
827.966	4656.57
828.152	4685.24
828.338	4197.82
828.523	3902.92
828.709	4392.38
828.894	4689.34
829.08	4193.73
829.266	3999.17
829.451	4208.06
829.637	4705.72
829.822	4386.24
830.008	4277.69
830.193	4572.6
830.378	4771.26
830.564	4177.34
830.749	4042.18
830.935	4541.88
831.12	4629.95
831.305	4115.91
831.491	4259.26
831.676	4201.92
831.861	4494.78
832.047	4171.2
832.232	4058.56
832.417	4713.91
832.602	4398.52
832.788	4052.42
832.973	4087.23
833.158	4414.91
833.343	4369.85
833.528	4261.31
833.714	4201.92
833.899	4466.11
834.084	4842.93
834.269	4267.45
834.454	4083.14
834.639	4488.64
834.824	4351.42
835.009	4124.1
835.194	4267.45
835.379	4539.83
835.564	4785.59
835.749	4263.36
835.934	3743.17
836.119	4472.25
836.304	4300.22
836.489	3937.73
836.674	4296.13
836.859	4021.7
837.044	4648.38
837.228	4076.99
837.413	3976.64
837.598	4466.11
837.783	4642.23
837.968	4140.48
838.152	4007.36
838.337	3921.35
838.522	4619.71
838.707	4638.14
838.891	4343.23
839.076	4396.48
839.261	4646.33
839.445	4142.53
839.63	4181.44
839.815	4795.83
839.999	4283.84
840.184	3960.26
840.368	4054.47
840.553	4595.13
840.737	4527.55
840.922	3986.88
841.106	3788.23
841.291	3952.07
841.475	4410.81
841.66	4097.47
841.844	4126.15
842.029	5078.45
842.213	4019.65
842.397	4142.53
842.582	3804.61
842.766	4697.53
842.951	4517.31
843.135	4109.76
843.319	4050.37
843.504	4322.75
843.688	4410.81
843.872	3829.19
844.056	4013.51
844.241	4484.54
844.425	4322.75
844.609	4369.85
844.793	3745.22
844.977	4435.39
845.161	4355.52
845.346	3706.31
845.53	4091.33
845.714	4230.59
845.898	4457.92
846.082	3780.04
846.266	4033.99
846.45	4349.37
846.634	4341.18
846.818	3993.03
847.002	4064.71
847.186	4511.16
847.37	4091.33
847.554	4003.27
847.738	4120
847.922	4275.65
848.106	4449.72
848.29	3829.19
848.473	4023.75
848.657	4531.64
848.841	4316.61
849.025	3997.12
849.209	3816.9
849.392	4574.65
849.576	4339.13
849.76	3864.01
849.944	4019.65
850.127	4634.04
850.311	4009.41
850.495	3894.72
850.678	3808.71
850.862	4560.31
851.046	4734.39
851.229	4138.43
851.413	3861.96
851.596	4435.39
851.78	4289.98
851.964	4171.2
852.147	3892.68
852.331	4908.47
852.514	4486.59
852.698	4005.31
852.881	3857.86
853.065	4441.53
853.248	4382.14
853.431	4029.89
853.615	4062.66
853.798	4765.11
853.982	4273.6
854.165	4103.62
854.348	4091.33
854.532	3835.33
854.715	4099.52
854.898	3880.39
855.081	3978.69
855.265	4392.38
855.448	4742.58
855.631	3771.85
855.814	3894.72
855.997	4539.83
856.181	4062.66
856.364	3966.4
856.547	3837.38
856.73	4222.4
856.913	4380.09
857.096	3880.39
857.279	3915.2
857.462	4023.75
857.645	4474.3
857.828	4015.55
858.011	3921.35
858.194	3999.17
858.377	4380.09
858.56	3677.64
858.743	3976.64
858.926	3958.21
859.109	4525.5
859.292	3956.16
859.475	3919.3
859.658	4558.27
859.841	4330.94
860.023	3741.13
860.206	3669.45
860.389	4330.94
860.572	4292.03
860.755	3777.99
860.937	3685.83
861.12	4140.48
861.303	4144.58
861.486	3829.19
861.668	3571.15
861.851	4246.98
862.034	4177.34
862.216	3923.4
862.399	3489.23
862.581	4163.01
862.764	4490.68
862.947	3741.13
863.129	3700.17
863.312	3780.04
863.494	4451.77
863.677	4238.78
863.859	3575.24
864.042	4218.3
864.224	4332.99
864.406	3798.47
864.589	3603.91
864.771	4134.34
864.954	3874.24
865.136	3784.13
865.318	3407.31
865.501	4173.25
865.683	3485.13
865.865	3792.33
866.048	3784.13
866.23	4124.1
866.412	3954.12
866.594	3663.3
866.777	3886.53
866.959	4158.91
867.141	3915.2
867.323	3878.34
867.505	3939.78
867.687	3894.72
867.869	3925.44
868.052	3829.19
868.234	3636.68
868.416	3839.43
868.598	4128.19
868.78	3821
868.962	3534.28
869.144	4246.98
869.326	4253.12
869.508	3640.78
869.69	3571.15
869.872	3802.57
870.054	4154.82
870.236	3556.81
870.417	3605.96
870.599	3780.04
870.781	4369.85
870.963	3804.61
871.145	3511.75
871.327	3691.98
871.508	4064.71
871.69	3706.31
871.872	3681.74
872.054	3986.88
872.235	4036.03
872.417	3769.8
872.599	3581.39
872.78	4308.41
872.962	4167.1
873.144	3501.51
873.325	3667.4
873.507	4216.26
873.689	4132.29
873.87	3653.06
874.052	3798.47
874.233	3880.39
874.415	4283.84
874.596	3786.18
874.778	3642.82
874.959	4046.27
875.141	4206.02
875.322	3624.39
875.503	3657.16
875.685	4074.95
875.866	3466.7
876.048	3581.39
876.229	3634.63
876.41	3917.25
876.592	4115.91
876.773	3630.54
876.954	3544.52
877.136	4363.71
877.317	3884.48
877.498	3554.76
877.679	3812.81
877.86	4158.91
878.042	4033.99
878.223	3706.31
878.404	4093.38
878.585	4146.62
878.766	4502.97
878.947	4160.96
879.128	3962.31
879.309	4259.26
879.49	4425.15
879.672	3857.86
879.853	3841.48
880.034	3933.64
880.215	4101.57
880.396	4048.32
880.576	4031.94
880.757	3868.1
880.938	4373.95
881.119	3855.81
881.3	3818.95
881.481	3900.87
881.662	4963.76
881.843	3782.09
882.023	3679.69
882.204	4265.41
882.385	4130.24
882.566	3861.96
882.747	3821
882.927	4085.19
883.108	4169.15
883.289	4023.75
883.469	4222.4
883.65	4171.2
883.831	4199.87
884.011	4263.36
884.192	3886.53
884.373	4431.29
884.553	4353.47
884.734	4099.52
884.914	4476.35
885.095	4935.09
885.275	4699.58
885.456	4316.61
885.636	3911.11
885.817	4406.72
885.997	4355.52
886.178	3757.51
886.358	4218.3
886.538	4218.3
886.719	5273.01
886.899	3993.03
887.08	4158.91
887.26	4638.14
887.44	4255.17
887.621	3982.79
887.801	4191.68
887.981	4953.52
888.161	4679.1
888.342	4163.01
888.522	4300.22
888.702	4675
888.882	4847.03
889.062	4261.31
889.242	3886.53
889.423	4965.81
889.603	4666.81
889.783	4347.33
889.963	4337.09
890.143	4709.82
890.323	4763.06
890.503	4330.94
890.683	4218.3
890.863	4541.88
891.043	4599.23
891.223	4382.14
891.403	4396.48
891.583	4468.16
891.763	4687.29
891.943	4335.04
892.122	4296.13
892.302	4638.14
892.482	4636.09
892.662	4640.19
892.842	4414.91
893.022	4623.8
893.201	4347.33
893.381	4382.14
893.561	4423.1
893.741	4828.6
893.92	4681.14
894.1	4429.24
894.28	4470.2
894.459	4871.61
894.639	4775.35
894.819	4439.48
894.998	4410.81
895.178	4748.73
895.357	4668.86
895.537	4431.29
895.716	4115.91
895.896	4568.51
896.075	4914.61
896.255	4486.59
896.434	4017.6
896.614	4769.21
896.793	5027.25
896.973	4464.06
897.152	4386.24
897.331	4631.99
897.511	4816.31
897.69	4214.21
897.87	4431.29
898.049	4988.34
898.228	4844.98
898.407	4533.69
898.587	4535.74
898.766	4464.06
898.945	4756.92
899.124	4601.27
899.304	4586.94
899.483	4863.41
899.662	4971.96
899.841	4349.37
900.02	4197.82
900.199	5037.49
900.378	4656.57
900.557	4103.62
900.737	4279.74
900.916	4701.62
901.095	4822.45
901.274	4560.31
901.453	4232.64
901.632	4429.24
901.811	4371.9
901.989	4171.2
902.168	4242.88
902.347	4912.57
902.526	4611.51
902.705	4287.93
902.884	4287.93
903.063	5049.78
903.242	4965.81
903.42	4152.77
903.599	4425.15
903.778	4867.51
903.957	4890.04
904.135	4447.68
904.314	4335.04
904.493	4675
904.672	4713.91
904.85	4357.57
905.029	4289.98
905.207	4724.15
905.386	5152.18
905.565	4156.86
905.743	4339.13
905.922	4525.5
906.1	4691.38
906.279	4169.15
906.457	4046.27
906.636	4349.37
906.814	4414.91
906.993	4158.91
907.171	4332.99
907.35	4607.42
907.528	4785.59
907.707	4472.25
907.885	4091.33
908.063	4984.24
908.242	4310.46
908.42	4210.11
908.598	4062.66
908.777	4541.88
908.955	4222.4
909.133	4494.78
909.311	4085.19
909.49	4285.89
909.668	4611.51
909.846	4185.54
910.024	4036.03
910.202	4433.34
910.38	4480.44
910.559	3866.05
910.737	3984.84
910.915	4416.96
911.093	4402.62
911.271	3935.68
911.449	4206.02
911.627	4525.5
911.805	4715.96
911.983	4132.29
912.161	4042.18
912.339	4464.06
912.517	4556.22
912.695	4275.65
912.872	3984.84
913.05	4107.71
913.228	4500.92
913.406	3956.16
913.584	4001.22
913.762	4531.64
913.939	4005.31
914.117	3919.3
914.295	3995.08
914.473	4451.77
914.65	4271.55
914.828	3845.57
915.006	3814.85
915.184	3907.01
915.361	4232.64
915.539	4054.47
915.716	4085.19
915.894	4300.22
916.072	4363.71
916.249	4052.42
916.427	3937.73
916.604	3734.98
916.782	4269.5
916.959	3759.56
917.137	3898.82
917.314	4079.04
917.492	4271.55
917.669	3821
917.847	3929.54
918.024	4255.17
918.201	3831.24
918.379	3968.45
918.556	3972.55
918.733	4367.81
918.911	3939.78
919.088	3898.82
919.265	3677.64
919.442	4210.11
919.62	3866.05
919.797	3597.77
919.974	3546.57
920.151	4046.27
920.328	3980.74
920.506	3810.76
920.683	3988.93
920.86	3636.68
921.037	3868.1
921.214	3804.61
921.391	3630.54
921.568	4167.1
921.745	3741.13
921.922	3714.5
922.099	3636.68
922.276	4079.04
922.453	3980.74
922.63	3552.71
922.807	3958.21
922.984	3952.07
923.161	3624.39
923.338	3591.63
923.514	3612.1
923.691	3771.85
923.868	3923.4
924.045	3558.86
924.222	3380.68
924.399	3841.48
924.575	3966.4
924.752	3587.53
924.929	3466.7
925.105	3837.38
925.282	3554.76
925.459	3501.51
925.635	3640.78
925.812	3821
925.989	3712.46
926.165	3481.03
926.342	3218.89
926.518	3501.51
926.695	3739.08
926.871	3243.47
927.048	3134.93
927.224	3821
927.401	3497.42
927.577	3501.51
927.754	3132.88
927.93	3890.63
928.107	3747.27
928.283	3225.04
928.459	3411.4
928.636	3691.98
928.812	3466.7
928.988	3292.62
929.165	3036.63
929.341	3536.33
929.517	3583.43
929.693	3497.42
929.87	3053.01
930.046	3395.02
930.222	3311.05
930.398	3085.78
930.574	3249.61
930.751	3411.4
930.927	3192.27
931.103	3141.07
931.279	3042.77
931.455	3087.82
931.631	3448.27
931.807	2805.21
931.983	2979.28
932.159	3024.34
932.335	3044.82
932.511	3001.81
932.687	3005.91
932.863	3198.42
933.039	3106.26
933.215	2797.01
933.391	2747.86
933.566	3108.3
933.742	3034.58
933.918	2985.43
934.094	2702.81
934.27	3020.24
934.445	3005.91
934.621	2923.99
934.797	2706.9
934.973	3130.83
935.148	3018.19
935.324	2604.5
935.5	2383.32
935.675	3089.87
935.851	2887.12
936.027	2541.02
936.202	2409.95
936.378	2854.36
936.553	2690.52
936.729	2737.62
936.904	2338.27
937.08	2371.04
937.255	2444.76
937.431	2199.01
937.606	2012.64
937.782	2418.14
937.957	2518.49
938.133	2311.64
938.308	2012.64
938.483	2405.85
938.659	2143.71
938.834	2084.32
939.009	1938.91
939.185	2115.04
939.36	2014.69
939.535	1762.79
939.71	1973.73
939.886	2313.69
940.061	2217.44
940.236	1936.87
940.411	1813.99
940.586	2133.47
940.761	2041.31
940.937	1818.08
941.112	1482.22
941.287	2078.18
941.462	1932.77
941.637	1478.12
941.812	1715.69
941.987	1959.39
942.162	1715.69
942.337	1601
942.512	1510.89
942.687	2127.33
942.862	1969.63
943.037	1494.51
943.212	1099.25
943.386	1805.8
943.561	1775.08
943.736	1621.48
943.911	1889.76
944.086	1834.47
944.26	1854.95
944.435	1523.18
944.61	1603.05
944.785	2078.18
944.959	2190.81
945.134	1551.85
945.309	1402.35
945.483	1553.9
945.658	2022.88
945.833	1275.37
946.007	1285.61
946.182	2115.04
946.357	1514.98
946.531	1445.35
946.706	1422.83
946.88	1220.08
947.055	1754.6
947.229	1535.46
947.404	1377.77
947.578	1887.72
947.752	1510.89
947.927	1345
948.101	1318.38
948.276	1744.36
948.45	1754.6
948.624	1652.2
948.799	1365.48
948.973	1830.37
949.147	1523.18
949.321	1572.33
949.496	1375.72
949.67	2029.03
949.844	1662.44
950.018	1578.47
950.193	1418.73
950.367	2211.29
950.541	1629.67
950.715	1578.47
950.889	1465.83
951.063	1523.18
951.237	1902.05
951.411	1207.79
951.585	1314.28
951.759	1830.37
951.933	1773.03
952.107	1396.2
952.281	1562.09
952.455	2078.18
952.629	1859.04
952.803	1347.05
952.977	1488.36
953.151	1811.94
953.325	1789.41
953.499	1560.04
953.672	1367.53
953.846	1617.38
954.02	1639.91
954.194	1304.04
954.368	1355.24
954.541	1719.78
954.715	1621.48
954.889	1564.14
955.062	1379.82
955.236	1684.97
955.41	1633.77
955.583	1621.48
955.757	1361.39
955.93	1551.85
956.104	1451.5
956.278	1367.53
956.451	1494.51
956.625	1637.86
956.798	2215.39
956.972	1680.87
957.145	1385.96
957.319	1627.62
957.492	1699.3
957.665	1535.46
957.839	1375.72
958.012	1730.02
958.185	1590.76
958.359	1582.57
958.532	1560.04
958.705	1859.04
958.879	1840.61
959.052	1592.81
959.225	1181.17
959.398	1641.96
959.572	1658.34
959.745	1308.14
959.918	1361.39
960.091	1605.1
960.264	1732.07
960.438	1336.81
960.611	1398.25
960.784	1871.33
960.957	1494.51
961.13	1816.04
961.303	1437.16
961.476	1654.25
961.649	1766.89
961.822	1299.95
961.995	1420.78
962.168	1805.8
962.341	1711.59
962.514	1338.86
962.686	1445.35
962.859	1738.21
963.032	1852.9
963.205	1371.63
963.378	1263.08
963.551	1670.63
963.723	1670.63
963.896	1580.52
964.069	1566.18
964.242	1570.28
964.414	1947.11
964.587	1471.98
964.76	1531.37
964.932	1764.84
965.105	1535.46
965.278	1443.31
965.45	1220.08
965.623	1568.23
965.795	1652.2
965.968	1302
966.14	1332.72
966.313	1594.86
966.485	1641.96
966.658	1408.49
966.83	1291.76
967.003	1828.32
967.175	1883.62
967.348	1383.91
967.52	1398.25
967.692	1990.11
967.865	1680.87
968.037	1353.2
968.209	1502.7
968.382	1551.85
968.554	1785.32
968.726	1302
968.898	1273.32
969.071	1658.34
969.243	1609.19
969.415	1293.8
969.587	1455.59
969.759	2055.65
969.932	1627.62
970.104	1369.58
970.276	1072.62
970.448	1400.3
970.62	1404.39
970.792	1469.93
970.964	1250.8
971.136	1953.25
971.308	1629.67
971.48	1232.37
971.652	1297.9
971.824	2055.65
971.996	1557.99
972.168	1279.47
972.339	1275.37
972.511	1787.36
972.683	1514.98
972.855	1539.56
973.027	1355.24
973.199	1512.94
973.37	1715.69
973.542	1347.05
973.714	1461.74
973.886	1570.28
974.057	1717.73
974.229	1220.08
974.401	1166.83
974.572	1340.91
974.744	1125.87
974.915	1193.45
975.087	1283.56
975.259	1879.52
975.43	1330.67
975.602	1201.65
975.773	1187.31
975.945	1304.04
976.116	1584.62
976.288	1230.32
976.459	1420.78
976.63	1420.78
976.802	1537.51
976.973	1185.26
977.145	1457.64
977.316	1988.07
977.487	1488.36
977.659	1338.86
977.83	1283.56
978.001	1916.39
978.172	1641.96
978.344	1136.11
978.515	1275.37
978.686	1256.94
978.857	1787.36
979.028	1310.19
979.2	1185.26
979.371	1687.01
979.542	1457.64
979.713	1291.76
979.884	957.94
980.055	1302
980.226	1256.94
980.397	1244.65
980.568	1084.91
980.739	1727.97
980.91	1291.76
981.081	1404.39
981.252	1179.12
981.423	1533.42
981.594	1644.01
981.765	1091.06
981.936	1261.04
982.106	1445.35
982.277	1773.03
982.448	1134.06
982.619	1285.61
982.79	1273.32
982.96	1715.69
983.131	1248.75
983.302	959.99
983.472	1332.72
983.643	1365.48
983.814	1369.58
983.984	1084.91
984.155	1355.24
984.326	1580.52
984.496	1256.94
984.667	1168.88
984.837	1234.41
985.008	1670.63
985.178	1316.33
985.349	1222.13
985.519	1379.82
985.69	1140.21
985.86	1115.63
986.031	992.75
986.201	1461.74
986.371	1402.35
986.542	1023.47
986.712	894.45
986.882	1439.21
987.053	1414.63
987.223	1035.76
987.393	1314.28
987.563	1134.06
987.734	1326.57
987.904	1347.05
988.074	1076.72
988.244	1349.1
988.414	1183.21
988.585	1007.09
988.755	1140.21
988.925	1228.27
989.095	1695.21
989.265	1021.42
989.435	990.7
989.605	1437.16
989.775	1510.89
989.945	1291.76
990.115	898.55
990.285	1314.28
990.455	1246.7
990.625	1175.02
990.795	890.35
990.965	1674.73
991.134	1084.91
991.304	1019.38
991.474	1035.76
991.644	1357.29
991.814	1658.34
991.984	939.51
992.153	882.16
992.323	1154.54
992.493	1324.52
992.662	794.1
992.832	1226.22
993.002	1203.69
993.171	1412.59
993.341	904.69
993.511	1185.26
993.68	1086.96
993.85	1392.11
994.019	790
994.189	896.5
994.358	1277.42
994.528	1097.2
994.697	732.66
994.867	898.55
995.036	1373.68
995.206	1252.84
995.375	892.4
995.544	1056.24
995.714	1121.77
995.883	1191.41
996.052	1136.11
996.222	660.98
996.391	1594.86
996.56	1179.12
996.73	708.09
996.899	642.55
997.068	1381.87
997.237	1183.21
997.406	759.28
997.576	675.32
997.745	1283.56
997.914	1203.69
998.083	667.13
998.252	863.73
998.421	1162.73
998.59	1019.38
998.759	755.19
998.928	687.61
999.097	1451.5
999.266	1332.72
999.435	900.59
999.604	638.45
999.773	1615.34
999.942	1062.38
1000.111	613.88
1000.28	615.93
1000.448	904.69
1000.617	892.4
1000.786	912.88
1000.955	757.24
1001.124	1113.58
1001.292	1736.17
1001.461	759.28
1001.63	630.26
1001.798	1414.63
1001.967	1371.63
1002.136	667.13
1002.304	679.41
1002.473	1197.55
1002.642	1121.77
1002.81	837.11
1002.979	589.3
1003.147	1199.6
1003.316	1666.53
1003.484	759.28
1003.653	652.79
1003.821	1285.61
1003.99	1027.57
1004.158	736.76
1004.327	822.77
1004.495	1136.11
1004.663	781.81
1004.832	843.25
1005	622.07
1005.168	1185.26
1005.337	1019.38
1005.505	562.68
1005.673	830.96
1005.842	1166.83
1006.01	1101.3
1006.178	554.49
1006.346	671.22
1006.514	1113.58
1006.683	1283.56
1006.851	656.89
1007.019	462.33
1007.187	777.72
1007.355	464.38
1007.523	431.61
1007.691	529.91
1007.859	726.52
1008.027	1248.75
1008.195	626.17
1008.363	486.9
1008.531	1193.45
1008.699	749.04
1008.867	488.95
1009.035	562.68
1009.203	1263.08
1009.37	974.32
1009.538	622.07
1009.706	1078.77
1009.874	929.27
1010.042	972.27
1010.209	460.28
1010.377	523.77
1010.545	1166.83
1010.713	910.83
1010.88	548.34
1011.048	626.17
1011.216	826.87
1011.383	1250.8
1011.551	562.68
1011.718	470.52
1011.886	1046
1012.054	845.3
1012.221	513.53
1012.389	517.62
1012.556	888.31
1012.724	1291.76
1012.891	527.86
1013.058	384.51
1013.226	1046
1013.393	1082.86
1013.561	359.93
1013.728	413.18
1013.895	1111.54
1014.063	1033.71
1014.23	345.59
1014.397	478.71
1014.565	955.89
1014.732	810.48
1014.899	462.33
1015.066	386.55
1015.233	884.21
1015.401	1029.62
1015.568	654.84
1015.735	472.57
1015.902	910.83
1016.069	876.02
1016.236	450.04
1016.403	429.56
1016.57	599.54
1016.737	1037.81
1016.904	482.81
1017.071	425.47
1017.238	642.55
1017.405	1041.9
1017.572	523.77
1017.739	677.37
1017.906	894.45
1018.073	994.8
1018.24	462.33
1018.407	488.95
1018.573	1037.81
1018.74	751.09
1018.907	488.95
1019.074	249.34
1019.241	974.32
1019.407	859.63
1019.574	402.94
1019.741	353.79
1019.907	808.44
1020.074	873.97
1020.241	232.96
1020.407	290.3
1020.574	869.87
1020.74	900.59
1020.907	472.57
1021.073	327.16
1021.24	1269.23
1021.406	1101.3
1021.573	304.64
1021.739	378.36
1021.906	900.59
1022.072	660.98
1022.239	462.33
1022.405	351.74
1022.571	845.3
1022.738	511.48
1022.904	349.69
1023.07	454.14
1023.237	826.87
1023.403	1060.34
1023.569	382.46
1023.735	366.07
1023.902	781.81
1024.068	871.92
1024.234	314.88
1024.4	290.3
1024.566	798.2
1024.732	904.69
1024.898	331.26
1025.065	192
1025.231	970.23
1025.397	669.17
1025.563	366.07
1025.729	288.25
1025.895	294.4
1026.061	433.66
1026.227	237.05
1026.392	454.14
1026.558	1023.47
1026.724	742.9
1026.89	202.24
1027.056	437.75
1027.222	742.9
1027.388	505.34
1027.553	413.18
1027.719	290.3
1027.885	1060.34
1028.051	771.57
1028.216	42.5
1028.382	333.31
1028.548	933.36
1028.713	542.2
1028.879	99.84
1029.045	400.89
1029.21	937.46
1029.376	835.06
1029.541	298.49
1029.707	263.68
1029.873	751.09
1030.038	833.01
1030.204	206.33
1030.369	345.59
1030.534	855.54
1030.7	536.06
1030.865	292.35
1031.031	206.33
1031.196	769.52
1031.361	679.41
1031.527	196.09
1031.692	202.24
1031.857	310.78
1032.023	753.14
1032.188	169.47
1032.353	282.11
1032.518	1005.04
1032.684	749.04
1032.849	42.5
1033.014	269.82
1033.179	724.47
1033.344	851.44
1033.509	392.7
1033.674	232.96
1033.839	816.63
1034.004	814.58
1034.17	282.11
1034.335	138.75
1034.5	470.52
1034.664	531.96
1034.829	226.81
1034.994	253.44
1035.159	716.28
1035.324	681.46
1035.489	196.09
1035.654	255.48
1035.819	943.6
1035.984	701.94
1036.148	257.53
1036.313	228.86
1036.478	896.5
1036.643	452.09
1036.807	103.93
1036.972	79.36
1037.137	886.26
1037.301	572.92
1037.466	17.92
1037.631	275.96
1037.795	900.59
1037.96	570.87
1038.124	357.88
1038.289	116.22
1038.454	699.89
1038.618	728.56
1038.783	284.16
1038.947	275.96
1039.111	620.02
1039.276	572.92
1039.44	167.42
1039.605	708.09
1039.769	542.2
1039.933	511.48
1040.098	196.09
1040.262	396.79
1040.426	695.8
1040.591	699.89
1040.755	93.69
1040.919	153.09
1041.083	658.93
1041.248	388.6
1041.412	-92.67
1041.576	79.36
1041.74	574.97
1041.904	773.62
1042.068	157.18
1042.232	226.81
1042.397	728.56
1042.561	624.12
1042.725	-45.57
1042.889	263.68
1043.053	697.85
1043.217	622.07
1043.381	235
1043.544	48.64
1043.708	798.2
1043.872	239.1
1044.036	-88.57
1044.2	38.4
1044.364	822.77
1044.528	857.59
1044.691	3483.08
1044.855	79.36
1045.019	749.04
1045.183	642.55
1045.346	181.76
1045.51	13.82
1045.674	626.17
1045.837	714.23
1046.001	130.56
1046.165	144.89
1046.328	1009.14
1046.492	507.38
1046.655	284.16
1046.819	181.76
1046.983	333.31
1047.146	622.07
1047.31	161.28
1047.473	-6.66
1047.636	558.58
1047.8	210.43
1047.963	153.09
1048.127	87.55
1048.29	241.15
