Data from Ink_Intensity_USB4F045381__94__00094.txt Node

Date: Mon Jul 17 11:02:37 EDT 2023
User: mmckonesweet
Spectrometer: USB4F04538
Trigger mode: 4
Integration Time (sec): 9.000000E-1
Scans to average: 1
Electric dark correction enabled: true
Nonlinearity correction enabled: false
Boxcar width: 0
XAxis mode: Wavelengths
Number of Pixels in Spectrum: 3648
>>>>>Begin Spectral Data<<<<<
345.52	-1086.79
345.736	-1086.79
345.952	-1086.79
346.168	-978.25
346.384	-1037.64
346.6	-140.63
346.816	-236.88
347.032	-206.16
347.248	326.31
347.464	-173.39
347.68	-181.59
347.896	51.88
348.112	438.95
348.328	-79.19
348.544	-48.47
348.76	8.87
348.975	240.3
349.191	-240.98
349.407	-189.78
349.623	-23.89
349.839	10.92
350.055	-91.48
350.27	43.69
350.486	207.53
350.702	287.4
350.918	268.97
351.133	-175.44
351.349	178.86
351.565	436.9
351.781	-204.11
351.996	-9.56
352.212	314.02
352.428	-34.13
352.644	-208.21
352.859	-142.68
353.075	248.49
353.291	80.55
353.506	-66.9
353.722	-273.75
353.938	10.92
354.153	481.96
354.369	70.31
354.584	-216.4
354.8	223.91
355.016	-353.62
355.231	-220.5
355.447	-107.86
355.662	166.57
355.878	793.25
356.093	-341.33
356.309	-3.41
356.524	-243.03
356.74	213.67
356.955	-220.5
357.171	-50.52
357.386	215.72
357.602	-208.21
357.817	-101.72
358.033	-118.1
358.248	309.93
358.464	123.56
358.679	-157.01
358.895	-267.6
359.11	41.64
359.325	324.26
359.541	58.03
359.756	60.07
359.972	-292.18
360.187	185
360.402	-200.02
360.618	-81.24
360.833	981.66
361.048	137.9
361.264	-105.81
361.479	-42.32
361.694	4.78
361.909	289.45
362.125	-171.35
362.34	-54.61
362.555	277.16
362.77	148.14
362.986	-191.83
363.201	-173.39
363.416	127.66
363.631	6.83
363.847	-193.87
364.062	-142.68
364.277	191.14
364.492	101.03
364.707	-75.09
364.922	-372.05
365.138	244.39
365.353	350.89
365.568	-279.89
365.783	-138.58
365.998	107.18
366.213	567.97
366.428	-216.4
366.643	74.41
366.858	197.29
367.073	268.97
367.288	-109.91
367.503	-236.88
367.718	125.61
367.933	350.89
368.148	-286.03
368.363	-3.41
368.578	2.73
368.793	502.43
369.008	-144.72
369.223	-261.46
369.438	279.21
369.653	314.02
369.868	-163.15
370.083	-214.35
370.298	41.64
370.513	397.99
370.728	55.98
370.943	-191.83
371.157	-54.61
371.372	617.12
371.587	-202.07
371.802	-249.17
372.017	101.03
372.232	524.96
372.446	-50.52
372.661	-243.03
372.876	219.82
373.091	111.27
373.306	-68.95
373.52	-234.83
373.735	-183.63
373.95	426.66
374.165	-97.62
374.379	-95.57
374.594	-120.15
374.809	144.04
375.023	-32.08
375.238	-161.11
375.453	262.82
375.667	-255.31
375.882	-103.76
376.097	-234.83
376.311	84.65
376.526	64.17
376.741	-177.49
376.955	135.85
377.17	506.53
377.384	531.11
377.599	-126.29
377.813	-281.94
378.028	592.55
378.242	158.38
378.457	-52.56
378.672	-357.71
378.886	150.18
379.101	113.32
379.315	-298.32
379.53	-144.72
379.744	176.81
379.958	162.47
380.173	-177.49
380.387	-161.11
380.602	209.58
380.816	-27.99
381.031	-163.15
381.245	-118.1
381.459	260.77
381.674	2660.99
381.888	-165.2
382.103	148.14
382.317	-134.48
382.531	473.76
382.746	-23.89
382.96	-93.52
383.174	-73.04
383.388	453.28
383.603	117.42
383.817	-308.56
384.031	156.33
384.246	580.26
384.46	-13.65
384.674	377.51
384.888	47.79
385.103	121.51
385.317	-212.31
385.531	27.31
385.745	389.8
385.959	359.08
386.174	-169.3
386.388	-247.12
386.602	70.31
386.816	-34.13
387.03	-71
387.244	-48.47
387.458	160.42
387.672	379.56
387.887	-249.17
388.101	-259.41
388.315	371.36
388.529	187.05
388.743	-114
388.957	-193.87
389.171	365.22
389.385	-64.85
389.599	-60.76
389.813	92.84
390.027	189.1
390.241	656.03
390.455	-7.51
390.669	-77.14
390.883	-50.52
391.097	436.9
391.311	76.46
391.525	-175.44
391.738	203.43
391.952	271.01
392.166	-7.51
392.38	-189.78
392.594	314.02
392.808	352.93
393.022	-25.94
393.236	-54.61
393.449	281.25
393.663	213.67
393.877	-165.2
394.091	-40.28
394.305	-79.19
394.518	-42.32
394.732	-306.51
394.946	-7.51
395.16	400.04
395.373	150.18
395.587	-85.33
395.801	-124.24
396.015	348.84
396.228	289.45
396.442	-122.2
396.656	-341.33
396.869	414.37
397.083	580.26
397.297	2.73
397.51	-52.56
397.724	416.42
397.938	158.38
398.151	-275.79
398.365	-277.84
398.578	371.36
398.792	436.9
399.005	129.7
399.219	-71
399.433	211.62
399.646	219.82
399.86	127.66
400.073	148.14
400.287	322.21
400.5	113.32
400.714	-1.37
400.927	27.31
401.141	316.07
401.354	1172.12
401.567	266.92
401.781	-40.28
401.994	324.26
402.208	600.74
402.421	55.98
402.635	-15.7
402.848	70.31
403.061	383.65
403.275	39.59
403.488	-144.72
403.701	539.3
403.915	326.31
404.128	62.12
404.341	-48.47
404.555	301.73
404.768	125.61
404.981	70.31
405.195	-159.06
405.408	582.31
405.621	264.87
405.834	123.56
406.048	-126.29
406.261	563.87
406.474	527.01
406.687	-173.39
406.9	39.59
407.114	135.85
407.327	314.02
407.54	-240.98
407.753	-197.97
407.966	-136.53
408.179	207.53
408.392	-83.28
408.605	-302.42
408.819	303.78
409.032	305.83
409.245	-103.76
409.458	152.23
409.671	287.4
409.884	383.65
410.097	-183.63
410.31	129.7
410.523	230.06
410.736	64.17
410.949	39.59
411.162	10.92
411.375	518.82
411.588	445.09
411.801	88.75
412.014	-124.24
412.227	248.49
412.44	133.8
412.653	-44.37
412.865	80.55
413.078	334.5
413.291	365.22
413.504	-5.46
413.717	10.92
413.93	397.99
414.143	25.26
414.356	45.74
414.568	-181.59
414.781	414.37
414.994	293.54
415.207	51.88
415.42	55.98
415.632	438.95
415.845	686.75
416.058	-124.24
416.271	-68.95
416.483	221.86
416.696	699.04
416.909	8.87
417.121	-58.71
417.334	332.45
417.547	617.12
417.759	-52.56
417.972	-91.48
418.185	86.7
418.397	303.78
418.61	35.5
418.823	-85.33
419.035	506.53
419.248	187.05
419.46	107.18
419.673	74.41
419.885	391.84
420.098	182.95
420.311	-1.37
420.523	-222.55
420.736	354.98
420.948	266.92
421.161	-46.42
421.373	-144.72
421.586	328.36
421.798	25.26
422.01	-173.39
422.223	47.79
422.435	191.14
422.648	469.67
422.86	27.31
423.073	-52.56
423.285	469.67
423.497	-50.52
423.71	-1.37
423.922	-21.85
424.134	326.31
424.347	545.44
424.559	158.38
424.771	297.64
424.984	180.9
425.196	326.31
425.408	-101.72
425.621	-109.91
425.833	373.41
426.045	527.01
426.257	-71
426.47	21.16
426.682	428.71
426.894	350.89
427.106	58.03
427.318	103.08
427.531	195.24
427.743	395.94
427.955	-42.32
428.167	496.29
428.379	412.32
428.591	158.38
428.804	60.07
429.016	-19.8
429.228	187.05
429.44	416.42
429.652	285.35
429.864	-17.75
430.076	158.38
430.288	154.28
430.5	195.24
430.712	133.8
430.924	524.96
431.136	395.94
431.348	-73.04
431.56	41.64
431.772	338.6
431.984	228.01
432.196	-5.46
432.408	76.46
432.62	250.53
432.832	393.89
433.044	295.59
433.256	158.38
433.468	416.42
433.679	35.5
433.891	-38.23
434.103	328.36
434.315	672.42
434.527	447.14
434.739	248.49
434.95	154.28
435.162	461.48
435.374	266.92
435.586	195.24
435.798	152.23
436.009	47.79
436.221	297.64
436.433	217.77
436.645	84.65
436.856	174.76
437.068	690.85
437.28	111.27
437.491	445.09
437.703	537.25
437.915	522.91
438.126	211.62
438.338	430.76
438.55	326.31
438.761	547.49
438.973	207.53
439.184	250.53
439.396	391.84
439.608	649.89
439.819	-1.37
440.031	260.77
440.242	684.7
440.454	656.03
440.665	203.43
440.877	268.97
441.088	561.83
441.3	346.79
441.511	64.17
441.723	189.1
441.934	527.01
442.146	479.91
442.357	352.93
442.569	506.53
442.78	549.54
442.991	932.51
443.203	606.88
443.414	160.42
443.626	783.01
443.837	281.25
444.048	158.38
444.26	41.64
444.471	545.44
444.682	645.79
444.894	64.17
445.105	62.12
445.316	762.53
445.528	600.74
445.739	406.18
445.95	371.36
446.161	543.39
446.373	807.58
446.584	346.79
446.795	303.78
447.006	670.37
447.217	936.6
447.429	33.45
447.64	203.43
447.851	889.5
448.062	582.31
448.273	33.45
448.484	182.95
448.695	682.66
448.907	547.49
449.118	383.65
449.329	549.54
449.54	461.48
449.751	348.84
449.962	301.73
450.173	348.84
450.384	856.73
450.595	912.03
450.806	373.41
451.017	400.04
451.228	799.39
451.439	711.33
451.65	330.41
451.861	131.75
452.072	373.41
452.283	584.35
452.494	506.53
452.705	203.43
452.915	1024.67
453.126	625.31
453.337	488.1
453.548	258.73
453.759	883.36
453.97	1135.26
454.181	633.5
454.391	324.26
454.602	668.32
454.813	815.77
455.024	524.96
455.235	357.03
455.445	762.53
455.656	699.04
455.867	649.89
456.078	449.19
456.288	572.07
456.499	764.57
456.71	404.13
456.921	727.71
457.131	768.67
457.342	756.38
457.553	473.76
457.763	363.17
457.974	928.41
458.184	1077.91
458.395	404.13
458.606	334.5
458.816	998.04
459.027	1264.28
459.237	690.85
459.448	371.36
459.659	924.32
459.869	1340.05
460.08	412.32
460.29	699.04
460.501	1227.42
460.711	715.42
460.922	416.42
461.132	584.35
461.343	1462.93
461.553	576.16
461.764	549.54
461.974	590.5
462.184	1014.43
462.395	1028.76
462.605	643.74
462.816	514.72
463.026	1006.24
463.236	1168.02
463.447	580.26
463.657	709.28
463.867	1108.63
464.078	862.88
464.288	740
464.498	723.62
464.709	1084.06
464.919	973.47
465.129	674.46
465.339	682.66
465.55	1125.02
465.76	1192.6
465.97	723.62
466.18	694.94
466.391	1176.22
466.601	1168.02
466.811	733.86
467.021	754.34
467.231	1233.56
467.441	1360.53
467.651	932.51
467.862	610.98
468.072	1079.96
468.282	1464.98
468.492	891.55
468.702	971.42
468.912	1139.35
469.122	1831.57
469.332	1266.33
469.542	871.07
469.752	1510.04
469.962	1215.13
470.172	869.02
470.382	1016.48
470.592	1477.27
470.802	1602.19
471.012	1114.78
471.222	1077.91
471.432	1647.25
471.642	1467.03
471.852	1192.6
472.062	1051.29
472.272	1364.63
472.482	1133.21
472.691	1094.3
472.901	1063.58
473.111	1483.41
473.321	2022.03
473.531	1223.32
473.741	1321.62
473.95	1661.59
474.16	1692.3
474.37	1481.36
474.58	1196.7
474.79	2030.22
474.999	1735.31
475.209	1264.28
475.419	1438.36
475.628	1563.28
475.838	1940.11
476.048	1567.38
476.258	1268.38
476.467	2069.13
476.677	1673.87
476.886	1833.61
477.096	1604.24
477.306	1651.35
477.515	2216.58
477.725	1585.81
477.935	1716.88
478.144	2198.15
478.354	1821.33
478.563	1690.26
478.773	1602.19
478.982	2239.11
479.192	2372.23
479.401	2017.93
479.611	1706.64
479.82	1864.33
480.03	2144.91
480.239	1919.63
480.449	1712.78
480.658	2550.4
480.868	2056.84
481.077	2169.48
481.287	1938.06
481.496	2400.9
481.705	2687.62
481.915	2298.5
482.124	2288.26
482.333	2413.19
482.543	2687.62
482.752	2253.45
482.961	2142.86
483.171	2630.27
483.38	2396.81
483.589	2333.32
483.799	2132.62
484.008	2441.86
484.217	2749.06
484.426	2478.72
484.636	2189.96
484.845	2724.48
485.054	2335.37
485.263	2648.71
485.472	2407.05
485.682	3003
485.891	2761.34
486.1	2386.57
486.309	2663.04
486.518	3021.44
486.727	3193.47
486.936	2517.64
487.146	2763.39
487.355	3320.44
487.564	2638.47
487.773	2767.49
487.982	2744.96
488.191	2830.98
488.4	3082.88
488.609	2689.67
488.818	2853.5
489.027	3779.18
489.236	3431.03
489.445	2984.57
489.654	2767.49
489.863	3474.04
490.072	3277.43
490.281	3209.85
490.49	3039.87
490.698	3615.35
490.907	3582.58
491.116	3029.63
491.325	2888.32
491.534	3637.88
491.743	3406.45
491.952	3172.99
492.16	3238.52
492.369	3558
492.578	3742.32
492.787	3306.1
492.996	3177.08
493.204	3365.5
493.413	3940.97
493.622	3119.74
493.831	3179.13
494.039	4145.77
494.248	3254.9
494.457	3474.04
494.665	3281.53
494.874	3885.68
495.083	4371.05
495.291	3465.85
495.5	3498.61
495.709	4033.13
495.917	3639.92
496.126	3457.65
496.335	3517.05
496.543	3746.42
496.752	3893.87
496.96	3814
497.169	3566.2
497.377	3836.53
497.586	4119.15
497.794	3988.08
498.003	3543.67
498.211	4039.28
498.42	4379.24
498.628	3879.54
498.837	3664.5
499.045	4233.83
499.254	4276.84
499.462	3900.02
499.671	3914.35
499.879	4829.79
500.087	4485.73
500.296	3926.64
500.504	3951.21
500.713	4332.14
500.921	4833.89
501.129	4033.13
501.338	3930.73
501.546	4610.66
501.754	4495.97
501.962	4082.28
502.171	4156.01
502.379	4627.04
502.587	4860.51
502.795	4194.92
503.004	4258.41
503.212	4485.73
503.42	4825.7
503.628	4391.53
503.837	4561.51
504.045	4799.07
504.253	5028.45
504.461	4442.73
504.669	4282.99
504.877	4973.15
505.085	5059.17
505.294	4332.14
505.502	4635.24
505.71	4971.1
505.918	5180
506.126	4344.42
506.334	4364.9
506.542	4893.28
506.75	4864.61
506.958	4772.45
507.166	4629.09
507.374	4909.66
507.582	5501.53
507.79	4788.83
507.998	4657.76
508.206	5165.66
508.414	5196.38
508.622	4887.14
508.83	4954.72
509.037	5515.86
509.245	5016.16
509.453	4655.72
509.661	4754.02
509.869	5411.42
510.077	5188.19
510.285	5204.57
510.492	4670.05
510.7	5939.79
510.908	5163.61
511.116	5053.02
511.324	4858.46
511.531	5280.35
511.739	5325.4
511.947	5288.54
512.155	5263.96
512.362	5435.99
512.57	5112.41
512.778	4969.05
512.985	4911.71
513.193	5739.09
513.401	5743.19
513.608	5435.99
513.816	5139.04
514.024	5737.04
514.231	5900.88
514.439	5294.68
514.646	5384.79
514.854	5968.46
515.061	5954.13
515.269	5343.83
515.477	5286.49
515.684	5372.5
515.892	5866.07
516.099	5280.35
516.307	5433.94
516.514	5993.04
516.722	6259.28
516.929	5694.04
517.136	5362.26
517.344	6150.73
517.551	6113.87
517.759	5610.07
517.966	5720.66
518.173	5794.39
518.381	6015.57
518.588	5728.85
518.796	5788.24
519.003	6273.61
519.21	5864.02
519.418	5714.52
519.625	6136.4
519.832	6197.84
520.039	6232.65
520.247	5657.17
520.454	5962.32
520.661	6421.06
520.868	6408.78
521.076	5954.13
521.283	5943.89
521.49	6971.97
521.697	6441.54
521.904	6099.53
522.112	6064.72
522.319	6599.24
522.526	6490.7
522.733	6208.08
522.94	6038.09
523.147	6482.5
523.354	6621.77
523.561	6079.05
523.768	6484.55
523.975	6804.03
524.183	6752.84
524.39	6392.39
524.597	6335.05
524.804	6797.89
525.011	6593.09
525.218	6333
525.425	6535.75
525.632	7021.12
525.838	6294.09
526.045	6314.57
526.252	6685.25
526.459	7918.13
526.666	7633.46
526.873	6531.65
527.08	6580.81
527.287	7469.62
527.494	7195.2
527.701	6632.01
527.907	6711.88
528.114	7367.23
528.321	6992.45
528.528	6836.8
528.735	6914.63
528.941	7141.95
529.148	6931.01
529.355	7004.74
529.562	6713.92
529.768	7580.22
529.975	7057.98
530.182	7100.99
530.388	6838.85
530.595	7645.75
530.802	6976.06
531.008	7250.49
531.215	7084.61
531.422	7764.53
531.628	8043.06
531.835	7195.2
532.042	7299.64
532.248	7420.47
532.455	7522.87
532.661	7395.9
532.868	7402.04
533.074	7932.47
533.281	7871.03
533.487	7512.63
533.694	7244.35
533.9	7715.38
534.107	7907.89
534.313	7328.31
534.52	7447.1
534.726	7887.41
534.933	8278.57
535.139	7504.44
535.345	7670.33
535.552	8104.49
535.758	7983.66
535.965	7690.81
536.171	7684.66
536.377	8208.94
536.584	8434.22
536.79	7662.13
536.996	8028.72
537.203	8086.06
537.409	8268.33
537.615	8075.82
537.821	8096.3
538.028	8473.13
538.234	8684.07
538.44	7899.7
538.646	8186.41
538.853	8514.09
539.059	8362.54
539.265	8210.99
539.471	7856.69
539.677	8585.77
539.883	8325.68
540.09	8225.33
540.296	8809
540.502	8507.94
540.708	8430.12
540.914	8374.83
541.12	8383.02
541.326	8628.77
541.532	8575.53
541.738	8499.75
541.944	8538.66
542.15	9126.43
542.356	8868.39
542.562	8469.03
542.768	8579.62
542.974	9386.52
543.18	9533.98
543.386	8786.47
543.592	8530.47
543.798	9361.95
544.004	9286.17
544.21	8919.59
544.415	8843.81
544.621	9177.63
544.827	9165.34
545.033	8743.46
545.239	9218.59
545.445	9155.1
545.651	9429.53
545.856	8942.11
546.062	8858.15
546.268	9212.45
546.474	9157.15
546.679	8880.68
546.885	9267.74
547.091	9261.6
547.297	9720.34
547.502	9179.68
547.708	8952.35
547.914	9351.71
548.119	9515.55
548.325	8901.15
548.531	8993.31
548.736	10037.78
548.942	9161.25
549.147	9292.32
549.353	9542.17
549.559	9759.25
549.764	9615.9
549.97	9095.71
550.175	9482.78
550.381	10101.26
550.586	9499.16
550.792	9583.13
550.997	9415.19
551.203	9757.21
551.408	9974.29
551.614	9390.62
551.819	9601.56
552.025	10426.89
552.23	10447.37
552.435	9806.36
552.641	9978.39
552.846	9769.49
553.052	10435.08
553.257	9974.29
553.462	9744.92
553.668	10013.2
553.873	10588.68
554.078	9875.99
554.283	10000.91
554.489	10320.4
554.694	10381.84
554.899	9740.82
555.105	10179.09
555.31	10590.73
555.515	10525.19
555.72	10383.88
555.925	9884.18
556.131	10623.5
556.336	10369.55
556.541	10277.39
556.746	10201.61
556.951	10578.44
557.156	10981.89
557.361	10357.26
557.567	10578.44
557.772	11158.02
557.977	10656.26
558.182	10414.6
558.387	10439.18
558.592	10545.67
558.797	11026.95
559.002	10615.3
559.207	10635.78
559.412	11082.24
559.617	11448.83
559.822	10603.02
560.027	10564.11
560.232	10875.4
560.437	11299.33
560.642	10433.04
560.847	10627.59
561.051	10967.56
561.256	11262.46
561.461	10789.38
561.666	10664.46
561.871	11186.69
562.076	11176.45
562.281	10752.52
562.485	10805.77
562.69	11258.37
562.895	11295.23
563.1	11086.34
563.305	10877.44
563.509	11371.01
563.714	11676.15
563.919	10910.21
564.123	11074.05
564.328	11198.98
564.533	11839.99
564.737	11057.67
564.942	10906.12
565.147	11839.99
565.351	12175.86
565.556	11258.37
565.761	11344.38
565.965	11608.57
566.17	11307.52
566.374	11338.24
566.579	10988.03
566.784	11627
566.988	11481.6
567.193	11104.77
567.397	11434.49
567.602	11375.1
567.806	11563.51
568.011	11602.43
568.215	11645.43
568.42	11831.8
568.624	11809.27
568.828	11375.1
569.033	11553.27
569.237	12122.61
569.442	12122.61
569.646	11438.59
569.85	11551.23
570.055	12173.81
570.259	11999.73
570.463	11917.81
570.668	11624.95
570.872	11874.81
571.076	12206.58
571.281	11819.51
571.485	11983.35
571.689	12339.69
571.893	12513.77
572.098	11969.01
572.302	12018.16
572.506	12356.08
572.71	12184.05
572.914	11979.25
573.119	12282.35
573.323	12802.54
573.527	12876.26
573.731	12153.33
573.935	12065.27
574.139	12503.53
574.343	12114.42
574.547	12151.28
574.751	12075.51
574.955	12923.37
575.159	12937.7
575.364	11983.35
575.568	12167.66
575.772	12823.01
575.976	12888.55
576.18	12284.4
576.383	12261.87
576.587	13154.79
576.791	12812.78
576.995	12380.65
577.199	12331.5
577.403	12829.16
577.607	13103.59
577.811	12614.12
578.015	12825.06
578.219	13199.84
578.422	13052.39
578.626	12773.86
578.83	12962.28
579.034	13251.04
579.238	12970.47
579.442	12888.55
579.645	13267.42
579.849	13048.29
580.053	13464.03
580.257	12947.94
580.46	13062.63
580.664	13345.25
580.868	13236.7
581.071	13216.22
581.275	13404.64
581.479	12968.42
581.682	13437.41
581.886	13124.07
582.09	13326.82
582.293	13722.07
582.497	13623.77
582.7	13511.13
582.904	13146.59
583.107	13785.56
583.311	13648.35
583.515	13601.24
583.718	13707.74
583.922	13685.21
584.125	14322.13
584.329	13199.84
584.532	13773.27
584.735	14115.28
584.939	14037.46
585.142	13234.66
585.346	13480.41
585.549	14033.36
585.753	13736.41
585.956	13650.39
586.159	14197.2
586.363	14455.25
586.566	14387.66
586.769	13797.85
586.973	13627.87
587.176	14203.35
587.379	14250.45
587.582	14162.39
587.786	14014.93
587.989	14414.29
588.192	14731.72
588.395	13867.48
588.599	14285.26
588.802	14346.7
589.005	14438.86
589.208	14197.2
589.411	14047.7
589.615	14643.66
589.818	14760.39
590.021	14387.66
590.224	14455.25
590.427	14727.63
590.63	14909.9
590.833	14117.33
591.036	14119.38
591.239	14752.2
591.442	14531.02
591.645	14778.83
591.848	14414.29
592.051	14768.59
592.254	15098.31
592.457	14645.71
592.66	14705.1
592.863	14957
593.066	14911.94
593.269	14621.13
593.472	14797.26
593.675	14664.14
593.878	15466.94
594.081	15063.49
594.284	14619.08
594.486	15325.63
594.689	15454.65
594.892	14823.88
595.095	14723.53
595.298	15397.31
595.5	15114.69
595.703	15450.56
595.906	15188.42
596.109	15735.23
596.311	15647.16
596.514	14989.77
596.717	15430.08
596.92	15780.28
597.122	15571.39
597.325	15073.73
597.528	15178.18
597.73	16097.72
597.933	15358.4
598.136	15448.51
598.338	15174.08
598.541	16009.65
598.743	16169.4
598.946	15546.81
599.148	15542.72
599.351	15878.58
599.554	16007.61
599.756	15686.08
599.959	15636.92
600.161	16148.92
600.363	16337.33
600.566	15765.95
600.768	15444.42
600.971	16155.06
601.173	16179.64
601.376	15722.94
601.578	15886.78
601.78	16271.79
601.983	16406.96
602.185	15532.48
602.388	16103.86
602.59	16169.4
602.792	16069.05
602.995	16116.15
603.197	15727.03
603.399	16439.73
603.601	16923.05
603.804	15997.37
604.006	16181.68
604.208	16159.16
604.41	16036.28
604.613	16130.48
604.815	15925.69
605.017	17007.02
605.219	16067
605.421	16505.26
605.623	15868.34
605.826	17060.26
606.028	16755.11
606.23	16169.4
606.432	16124.34
606.634	17070.5
606.836	17007.02
607.038	16458.16
607.24	16361.9
607.442	16472.5
607.644	16863.66
607.846	16552.37
608.048	16329.14
608.25	16908.71
608.452	16578.99
608.654	16675.24
608.856	16239.03
609.058	16763.31
609.26	17047.97
609.462	16587.18
609.664	16650.67
609.866	16849.32
610.067	17056.17
610.269	16865.71
610.471	16783.79
610.673	16830.89
610.875	17312.16
611.077	16560.56
611.278	16855.47
611.48	17162.66
611.682	17455.52
611.884	17021.35
612.085	16720.3
612.287	16818.6
612.489	17123.75
612.69	16507.31
612.892	17209.76
613.094	17408.42
613.295	17369.51
613.497	16658.86
613.699	17224.1
613.9	17457.57
614.102	17432.99
614.304	16945.58
614.505	16689.58
614.707	17459.62
614.908	17185.19
615.11	16808.36
615.311	17189.28
615.513	17224.1
615.714	17625.5
615.916	17011.11
616.117	17136.04
616.319	17506.72
616.52	17596.83
616.722	17113.51
616.923	17019.3
617.124	17586.59
617.326	17820.06
617.527	17314.21
617.729	17621.41
617.93	17572.25
618.131	17947.03
618.333	17381.79
618.534	17476
618.735	17340.83
618.937	17957.27
619.138	17058.21
619.339	17504.67
619.54	17779.1
619.742	17650.08
619.943	17459.62
620.144	17650.08
620.345	17979.8
620.546	18098.58
620.748	17496.48
620.949	17488.29
621.15	17801.63
621.351	17660.32
621.552	17285.54
621.753	17535.39
621.954	17535.39
622.155	18282.9
622.356	17492.38
622.558	17738.14
622.759	17795.48
622.96	18401.68
623.161	17678.75
623.362	17650.08
623.563	17865.11
623.764	17940.89
623.965	17785.24
624.166	18012.57
624.366	18018.71
624.567	18063.77
624.768	17490.34
624.969	17492.38
625.17	18221.46
625.371	18319.76
625.572	17871.26
625.773	17795.48
625.973	18424.21
626.174	18377.11
626.375	18274.71
626.576	18102.68
626.777	18444.69
626.977	18545.04
627.178	18004.38
627.379	18203.03
627.58	18223.51
627.78	18262.42
627.981	18071.96
628.182	18284.95
628.382	18604.43
628.583	18112.92
628.784	18080.15
628.984	18241.94
629.185	18801.04
629.386	18624.91
629.586	18434.45
629.787	18346.39
629.987	18975.11
630.188	18751.88
630.388	18450.83
630.589	18330
630.79	19321.22
630.99	18600.33
631.191	18567.57
631.391	18811.28
631.591	18733.45
631.792	18946.44
631.992	18436.5
632.193	18731.4
632.393	19173.77
632.594	18782.6
632.794	18538.9
632.994	18753.93
633.195	18971.02
633.395	19149.19
633.595	18547.09
633.796	19052.94
633.996	18516.37
634.196	19376.51
634.397	18696.59
634.597	18602.38
634.797	18782.6
634.997	19188.1
635.198	18928.01
635.398	18715.02
635.598	19257.73
635.798	19501.44
635.998	19229.06
636.199	18676.11
636.399	19122.57
636.599	18921.87
636.799	19118.47
636.999	18983.31
637.199	19284.36
637.399	19575.17
637.599	19179.91
637.799	19093.9
637.999	19247.49
638.199	19564.93
638.399	18655.63
638.599	18803.08
638.799	19536.26
638.999	20058.49
639.199	19550.59
639.399	19175.81
639.599	19898.75
639.799	19224.97
639.999	19186.05
640.199	19231.11
640.399	19845.5
640.599	19208.58
640.799	19534.21
640.998	19218.82
641.198	19601.79
641.398	19519.87
641.598	19747.2
641.798	19560.83
641.997	20705.65
642.197	19491.2
642.397	19511.68
642.597	19452.29
642.796	20101.5
642.996	19917.18
643.196	19667.33
643.395	19319.17
643.595	19900.79
643.795	19648.89
643.994	19616.13
644.194	19405.19
644.394	19880.32
644.593	19980.67
644.793	19749.25
644.992	19913.08
645.192	20347.25
645.392	19763.58
645.591	19882.36
645.791	20070.78
645.99	20449.65
646.19	20146.55
646.389	19921.27
646.589	19761.53
646.788	20242.81
646.987	20210.04
647.187	20371.83
647.386	20091.26
647.586	20357.49
647.785	20570.48
647.984	20341.11
648.184	20167.03
648.383	19728.77
648.582	20449.65
648.782	20164.98
648.981	20216.18
649.18	19865.98
649.38	20420.98
649.579	20279.67
649.778	20308.34
649.977	20896.11
650.177	20806
650.376	20138.36
650.575	20195.7
650.774	20990.31
650.973	20525.43
651.173	20011.39
651.372	20457.84
651.571	20828.52
651.77	20945.26
651.969	20277.62
652.168	20670.83
652.367	20607.34
652.566	20498.8
652.765	20566.38
652.964	21043.56
653.163	21350.76
653.362	20853.1
653.561	20486.51
653.76	20857.2
653.959	20644.21
654.158	21238.12
654.357	20863.34
654.556	20744.56
654.755	20742.51
654.954	21094.76
655.153	20582.77
655.352	20957.55
655.551	21326.18
655.749	20730.22
655.948	21117.29
656.147	20949.35
656.346	21072.23
656.545	21043.56
656.743	20930.92
656.942	20863.34
657.141	20955.5
657.34	20986.22
657.538	20900.2
657.737	21139.82
657.936	21221.73
658.135	21211.49
658.333	20930.92
658.532	21281.13
658.731	21627.23
658.929	21748.06
659.128	21313.89
659.326	21074.28
659.525	21780.83
659.724	21490.02
659.922	20994.41
660.121	21057.9
660.319	21455.2
660.518	20941.16
660.716	20930.92
660.915	21117.29
661.113	21748.06
661.312	21174.63
661.51	21254.5
661.709	21305.7
661.907	21629.28
662.105	21981.53
662.304	21422.44
662.502	21291.37
662.701	21877.08
662.899	21442.92
663.097	21496.16
663.296	21188.97
663.494	22096.22
663.692	22088.03
663.891	21600.61
664.089	21246.31
664.287	21723.49
664.485	22337.88
664.684	21539.17
664.882	21328.23
665.08	21741.92
665.278	21666.14
665.476	21639.52
665.675	21666.14
665.873	22028.63
666.071	21813.6
666.269	21346.66
666.467	21471.59
666.665	21633.38
666.863	21518.69
667.061	21533.03
667.259	21629.28
667.457	21786.97
667.655	21983.58
667.853	21254.5
668.051	21563.75
668.249	21487.97
668.447	21864.8
668.645	20980.07
668.843	21950.81
669.041	22067.55
669.239	21772.64
669.437	21803.36
669.635	21922.14
669.833	21784.93
670.031	22020.44
670.229	21449.06
670.426	22094.17
670.624	21627.23
670.822	21784.93
671.02	21858.65
671.218	21463.4
671.415	21764.45
671.613	21832.03
671.811	21801.31
672.009	21784.93
672.206	22393.17
672.404	21971.29
672.602	21948.76
672.799	21817.69
672.997	21932.38
673.195	22329.69
673.392	21924.19
673.59	21649.76
673.788	21913.95
673.985	21100.9
674.183	21707.1
674.38	21946.72
674.578	22640.98
674.775	21623.14
674.973	21485.92
675.17	21928.28
675.368	22440.28
675.565	21772.64
675.763	21911.9
675.96	21703.01
676.158	22040.92
676.355	21791.07
676.553	22045.02
676.75	21561.7
676.947	22022.49
677.145	21762.4
677.342	22042.97
677.539	21743.97
677.737	22225.24
677.934	22339.93
678.131	21987.68
678.329	21832.03
678.526	22610.26
678.723	22276.44
678.92	21924.19
679.118	21776.73
679.315	21780.83
679.512	22276.44
679.709	21793.12
679.906	21576.03
680.104	22374.74
680.301	22188.38
680.498	21461.35
680.695	21705.06
680.892	21670.24
681.089	22018.39
681.286	21887.32
681.483	21338.47
681.68	21997.91
681.877	22237.53
682.075	21993.82
682.272	21983.58
682.469	22286.68
682.665	21997.91
682.862	21680.48
683.059	21471.59
683.256	21963.1
683.453	22094.17
683.65	21694.82
683.847	22057.31
684.044	21901.66
684.241	21737.82
684.438	21967.2
684.635	21330.28
684.831	21950.81
685.028	22595.92
685.225	21498.21
685.422	21766.49
685.619	22053.21
685.815	21711.2
686.012	22024.54
686.209	21500.26
686.405	21782.88
686.602	21985.63
686.799	21440.87
686.996	21662.05
687.192	21455.2
687.389	22215
687.586	21461.35
687.782	21741.92
687.979	22337.88
688.175	22042.97
688.372	21707.1
688.568	21707.1
688.765	21672.29
688.962	22264.15
689.158	21680.48
689.355	21653.86
689.551	22004.06
689.748	21805.41
689.944	21903.71
690.14	21608.8
690.337	21911.9
690.533	21895.52
690.73	21985.63
690.926	21944.67
691.123	22004.06
691.319	21686.62
691.515	21520.74
691.712	21612.9
691.908	21856.61
692.104	21854.56
692.301	21864.8
692.497	21657.95
692.693	21739.87
692.889	21952.86
693.086	21535.07
693.282	21508.45
693.478	21801.31
693.674	22258.01
693.87	21561.7
694.067	21633.38
694.263	21989.72
694.459	21860.7
694.655	21729.63
694.851	21789.02
695.047	22186.33
695.243	22298.97
695.439	21616.99
695.635	21449.06
695.831	22077.79
696.027	21801.31
696.224	21317.99
696.42	22057.31
696.615	21983.58
696.811	22169.94
697.007	21322.09
697.203	21954.91
697.399	21678.43
697.595	22059.35
697.791	21510.5
697.987	21965.15
698.183	21578.08
698.379	21520.74
698.575	21735.77
698.77	21350.76
698.966	21641.57
699.162	22081.88
699.358	21707.1
699.554	21395.81
699.749	22264.15
699.945	21852.51
700.141	21735.77
700.337	21453.16
700.532	21680.48
700.728	21383.52
700.924	21434.72
701.119	21320.04
701.315	21557.6
701.511	21156.2
701.706	21614.94
701.902	21260.65
702.097	21582.18
702.293	21956.96
702.489	21584.23
702.684	21377.38
702.88	21850.46
703.075	21627.23
703.271	21430.63
703.466	21408.1
703.662	21625.18
703.857	21971.29
704.053	21555.55
704.248	21561.7
704.443	21748.06
704.639	21688.67
704.834	21389.67
705.03	21438.82
705.225	22221.14
705.42	21852.51
705.616	21471.59
705.811	21186.92
706.006	21567.84
706.202	21416.29
706.397	21428.58
706.592	21334.37
706.787	21451.11
706.983	21719.39
707.178	21711.2
707.373	21442.92
707.568	21758.3
707.763	21596.51
707.959	21465.44
708.154	21580.13
708.349	21795.17
708.544	21868.89
708.739	21535.07
708.934	21229.93
709.129	21903.71
709.324	21813.6
709.519	21272.93
709.714	20982.12
709.909	21784.93
710.104	21922.14
710.299	21451.11
710.494	21371.24
710.689	21752.16
710.884	21571.94
711.079	21336.42
711.274	21504.35
711.469	21735.77
711.664	21557.6
711.859	21272.93
712.054	21592.42
712.249	21492.07
712.443	21561.7
712.638	21336.42
712.833	21211.49
713.028	21571.94
713.223	21334.37
713.417	21616.99
713.612	21236.07
713.807	21727.58
714.002	22223.19
714.196	21666.14
714.391	20992.36
714.586	21752.16
714.78	21680.48
714.975	21180.78
715.17	21274.98
715.364	21705.06
715.559	21959
715.754	20785.52
715.948	21025.13
716.143	21795.17
716.337	21330.28
716.532	21592.42
716.726	21260.65
716.921	21580.13
717.115	21899.61
717.31	21023.08
717.504	21784.93
717.699	21596.51
717.893	21555.55
718.088	20762.99
718.282	20978.03
718.476	21156.2
718.671	21408.1
718.865	20949.35
719.059	20732.27
719.254	20873.58
719.448	21500.26
719.642	22378.84
719.837	20525.43
720.031	21262.69
720.225	21301.61
720.419	21086.57
720.614	20695.41
720.808	21336.42
721.002	20982.12
721.196	20793.71
721.39	20963.69
721.585	21563.75
721.779	21182.82
721.973	20844.91
722.167	20306.29
722.361	20984.17
722.555	21160.3
722.749	20722.03
722.943	20793.71
723.137	20779.37
723.331	21008.75
723.525	20617.58
723.719	20842.86
723.913	20869.48
724.107	21301.61
724.301	20605.3
724.495	20525.43
724.689	21561.7
724.883	21025.13
725.077	20795.76
725.271	21000.55
725.465	21225.83
725.659	20875.63
725.853	20820.33
726.046	20652.4
726.24	20674.93
726.434	21000.55
726.628	20814.19
726.822	20748.65
727.015	21469.54
727.209	21285.22
727.403	20838.76
727.596	20517.23
727.79	21287.27
727.984	20754.8
728.177	20959.59
728.371	20980.07
728.565	21008.75
728.758	20683.12
728.952	20609.39
729.146	20525.43
729.339	21447.01
729.533	20693.36
729.726	20736.37
729.92	20613.49
730.113	21633.38
730.307	20975.98
730.5	20795.76
730.694	20619.63
730.887	20709.74
731.081	21115.24
731.274	20863.34
731.468	20892.01
731.661	21105
731.854	20965.74
732.048	20494.71
732.241	20681.07
732.435	20789.61
732.628	21059.95
732.821	20787.57
733.014	20760.94
733.208	20875.63
733.401	21186.92
733.594	20681.07
733.788	20623.73
733.981	21408.1
734.174	21137.77
734.367	20730.22
734.56	20748.65
734.754	21158.25
734.947	20973.93
735.14	20576.62
735.333	20658.54
735.526	21442.92
735.719	20783.47
735.912	20797.81
736.105	20740.46
736.298	21008.75
736.491	20990.31
736.684	20715.89
736.877	20631.92
737.07	20939.12
737.263	21170.54
737.456	21231.97
737.649	20668.78
737.842	20674.93
738.035	21123.43
738.228	20580.72
738.421	20978.03
738.614	21356.9
738.807	21240.17
739	20502.9
739.192	20470.13
739.385	20941.16
739.578	21039.47
739.771	21111.14
739.964	20564.34
740.156	21217.64
740.349	20963.69
740.542	20896.11
740.735	20607.34
740.927	20638.06
741.12	20762.99
741.313	20359.54
741.505	20965.74
741.698	20965.74
741.891	21148.01
742.083	20803.95
742.276	21051.75
742.468	20990.31
742.661	21006.7
742.854	20717.93
743.046	20396.4
743.239	21254.5
743.431	20785.52
743.624	20562.29
743.816	20296.05
744.009	21197.16
744.201	21221.73
744.393	20859.24
744.586	20603.25
744.778	21213.54
744.971	20937.07
745.163	20814.19
745.355	20701.55
745.548	20672.88
745.74	20816.24
745.932	20670.83
746.125	20517.23
746.317	21242.21
746.509	20836.72
746.702	20205.94
746.894	20566.38
747.086	20777.33
747.278	21330.28
747.471	20806
747.663	20754.8
747.855	20650.35
748.047	21283.17
748.239	20449.65
748.431	20627.82
748.623	21260.65
748.815	21088.62
749.008	20228.47
749.2	20687.22
749.392	21031.27
749.584	20783.47
749.776	20629.87
749.968	20588.91
750.16	21471.59
750.352	20513.14
750.544	20511.09
750.736	20541.81
750.928	20986.22
751.12	20730.22
751.311	19923.32
751.503	20724.08
751.695	20724.08
751.887	20535.67
752.079	20404.6
752.271	20433.27
752.463	21479.78
752.654	20783.47
752.846	20472.18
753.038	20427.12
753.23	20244.85
753.421	20681.07
753.613	20121.98
753.805	20502.9
753.997	20789.61
754.188	20801.9
754.38	20156.79
754.572	20236.66
754.763	20257.14
754.955	20506.99
755.146	20142.46
755.338	20072.82
755.53	20304.24
755.721	20242.81
755.913	19812.73
756.104	19898.75
756.296	20162.93
756.487	20476.27
756.679	19943.8
756.87	19665.28
757.062	20230.52
757.253	20375.92
757.445	19861.88
757.636	19865.98
757.827	20404.6
758.019	20795.76
758.21	19968.38
758.401	19988.86
758.593	20588.91
758.784	20558.19
758.975	19593.6
759.167	19556.74
759.358	20220.28
759.549	20236.66
759.74	19448.19
759.932	19876.22
760.123	20435.31
760.314	20156.79
760.505	19581.31
760.696	19657.09
760.888	20472.18
761.079	19786.11
761.27	19722.62
761.461	19661.18
761.652	20380.02
761.843	19536.26
762.034	19497.35
762.225	19820.92
762.416	19642.75
762.607	19753.34
762.798	19536.26
762.989	19710.33
763.18	20388.21
763.371	19691.9
763.562	19474.82
763.753	19560.83
763.944	19990.91
764.135	19892.6
764.326	19335.56
764.517	19540.35
764.708	19788.16
764.899	19648.89
765.089	19376.51
765.28	19001.74
765.471	19794.3
765.662	19526.02
765.853	19485.06
766.043	19108.23
766.234	19605.89
766.425	19509.63
766.615	19306.88
766.806	19069.32
766.997	19960.19
767.187	19370.37
767.378	18940.3
767.569	18555.28
767.759	19147.14
767.95	19372.42
768.141	19163.53
768.331	18983.31
768.522	19145.09
768.712	19282.31
768.903	19112.33
769.093	19071.37
769.284	19659.13
769.474	19374.47
769.665	18801.04
769.855	18557.33
770.046	19564.93
770.236	19237.25
770.426	19112.33
770.617	18686.35
770.807	19521.92
770.998	18944.39
771.188	19141
771.378	18520.46
771.569	19345.8
771.759	19016.07
771.949	18983.31
772.139	18684.3
772.33	18635.15
772.52	19362.18
772.71	18661.77
772.9	18608.53
773.09	19431.81
773.281	19245.44
773.471	18420.11
773.661	18493.84
773.851	19100.04
774.041	18682.25
774.231	18356.63
774.421	18751.88
774.611	19042.7
774.802	18426.26
774.992	18506.13
775.182	18448.79
775.372	18653.58
775.562	19018.12
775.752	18573.71
775.942	18264.47
776.131	19110.28
776.321	18655.63
776.511	18289.04
776.701	18463.12
776.891	18946.44
777.081	18383.25
777.271	18299.28
777.461	18225.56
777.651	18743.69
777.84	18844.04
778.03	18243.99
778.22	18151.83
778.41	18708.88
778.599	17983.9
778.789	18395.54
778.979	18033.05
779.169	18487.7
779.358	18461.07
779.548	18360.72
779.738	17965.46
779.927	18229.65
780.117	18100.63
780.307	17844.63
780.496	17619.36
780.686	18325.91
780.875	18557.33
781.065	18035.1
781.254	17729.95
781.444	18008.47
781.633	18389.39
781.823	17813.91
782.012	17459.62
782.202	17887.64
782.391	18088.34
782.581	17607.07
782.77	17990.04
782.96	18379.15
783.149	17727.9
783.338	17551.77
783.528	17291.68
783.717	18274.71
783.906	18418.07
784.096	17611.17
784.285	17691.04
784.474	17703.32
784.663	17721.76
784.853	17662.37
785.042	17609.12
785.231	17674.65
785.42	18315.67
785.61	17844.63
785.799	17349.03
785.988	17801.63
786.177	17588.64
786.366	17394.08
786.555	17500.58
786.744	18026.9
786.933	17920.41
787.122	17441.18
787.312	17445.28
787.501	17637.79
787.69	17826.2
787.879	17439.14
788.068	17320.35
788.257	17312.16
788.445	17439.14
788.634	17205.67
788.823	17349.03
789.012	18180.5
789.201	17787.29
789.39	17220
789.579	16990.63
789.768	17535.39
789.957	17705.37
790.145	17121.7
790.334	17234.34
790.523	17172.9
790.712	17299.87
790.9	17250.72
791.089	17088.93
791.278	17545.63
791.467	17574.3
791.655	17181.09
791.844	17643.93
792.033	16998.82
792.221	17330.59
792.41	17027.49
792.599	16730.54
792.787	17418.66
792.976	17811.87
793.164	16990.63
793.353	17156.52
793.541	17222.05
793.73	17162.66
793.918	17097.13
794.107	16781.74
794.295	17119.65
794.484	17283.49
794.672	16751.02
794.861	16728.49
795.049	17246.63
795.238	17414.56
795.426	16609.71
795.614	16626.09
795.803	17093.03
795.991	17527.2
796.179	16472.5
796.368	16789.93
796.556	17387.94
796.744	16837.03
796.932	16574.89
797.121	16607.66
797.309	16714.16
797.497	17215.91
797.685	16480.69
797.874	16490.93
798.062	17000.87
798.25	16923.05
798.438	16480.69
798.626	16695.72
798.814	16994.73
799.002	17549.73
799.19	16851.37
799.378	16798.12
799.566	17127.85
799.755	17359.27
799.943	16841.13
800.131	16961.96
800.318	17072.55
800.506	17043.88
800.694	16525.74
800.882	16943.53
801.07	17471.9
801.258	16753.07
801.446	16452.02
801.634	16630.19
801.822	16929.19
802.01	17037.73
802.197	16736.68
802.385	16898.47
802.573	17236.39
802.761	16607.66
802.949	16839.08
803.136	16910.76
803.324	17318.31
803.512	17205.67
803.699	16996.78
803.887	16378.29
804.075	17363.36
804.262	17045.93
804.45	16734.64
804.638	17047.97
804.825	17041.83
805.013	16966.06
805.201	17068.45
805.388	16714.16
805.576	17070.5
805.763	17727.9
805.951	17009.06
806.138	17050.02
806.326	17762.72
806.513	17510.82
806.701	17121.7
806.888	16996.78
807.075	17492.38
807.263	17678.75
807.45	16894.38
807.638	17033.64
807.825	17852.83
808.012	17289.63
808.2	17222.05
808.387	17324.45
808.574	17480.1
808.761	17770.91
808.949	16923.05
809.136	17418.66
809.323	17336.74
809.51	17193.38
809.698	17447.33
809.885	17019.3
810.072	17732
810.259	17963.42
810.446	17181.09
810.633	17062.31
810.82	17674.65
811.008	17959.32
811.195	17379.75
811.382	17447.33
811.569	17478.05
811.756	17129.89
811.943	17271.2
812.13	17236.39
812.317	17697.18
812.504	17461.66
812.691	17361.31
812.878	17418.66
813.064	17928.6
813.251	17584.54
813.438	17365.41
813.625	17394.08
813.812	17672.6
813.999	17987.99
814.186	17207.72
814.372	17326.5
814.559	17625.5
814.746	17879.45
814.933	17271.2
815.12	17559.97
815.306	17539.49
815.493	17213.86
815.68	17185.19
815.866	17230.24
816.053	17842.59
816.24	18153.88
816.426	17154.47
816.613	17299.87
816.799	17574.3
816.986	17779.1
817.173	17252.77
817.359	17172.9
817.546	17686.94
817.732	17121.7
817.919	17039.78
818.105	17213.86
818.292	17512.86
818.478	17576.35
818.665	17541.53
818.851	17232.29
819.037	17969.56
819.224	17504.67
819.41	17328.55
819.597	17023.4
819.783	17795.48
819.969	17516.96
820.156	17435.04
820.342	17426.85
820.528	18295.19
820.714	17389.99
820.901	17525.15
821.087	17113.51
821.273	17820.06
821.459	17416.61
821.646	17113.51
821.832	17140.13
822.018	17320.35
822.204	17213.86
822.39	17052.07
822.576	17095.08
822.762	17551.77
822.948	17361.31
823.134	17207.72
823.32	16808.36
823.507	17054.12
823.693	17385.89
823.879	17377.7
824.065	16988.58
824.25	16892.33
824.436	16939.43
824.622	16812.46
824.808	17029.54
824.994	16587.18
825.18	17029.54
825.366	16744.88
825.552	16886.18
825.738	16980.39
825.923	17238.44
826.109	16902.57
826.295	16763.31
826.481	16865.71
826.667	16953.77
826.852	16830.89
827.038	16554.41
827.224	17318.31
827.409	17463.71
827.595	16849.32
827.781	16798.12
827.966	17095.08
828.152	17080.74
828.338	16540.08
828.523	15962.55
828.709	16560.56
828.894	17066.41
829.08	16771.5
829.266	16488.88
829.451	16726.44
829.637	16744.88
829.822	16425.39
830.008	16067
830.193	16787.88
830.378	16857.51
830.564	16366
830.749	16214.45
830.935	16757.16
831.12	16509.36
831.305	16011.7
831.491	16140.72
831.676	16173.49
831.861	16441.78
832.047	16310.71
832.232	15925.69
832.417	16642.48
832.602	16660.91
832.788	15976.89
832.973	16083.38
833.158	16464.3
833.343	16282.03
833.528	16400.82
833.714	15909.3
833.899	16361.9
834.084	16767.4
834.269	16247.22
834.454	15966.65
834.639	16378.29
834.824	16243.12
835.009	16101.81
835.194	16171.44
835.379	16193.97
835.564	16398.77
835.749	15767.99
835.934	15851.96
836.119	16292.27
836.304	16282.03
836.489	15702.46
836.674	16093.62
836.859	15927.74
837.044	16497.07
837.228	15911.35
837.413	15673.79
837.598	16089.53
837.783	16097.72
837.968	16087.48
838.152	15434.18
838.337	15516.09
838.522	16351.67
838.707	16425.39
838.891	15733.18
839.076	15819.19
839.261	16028.09
839.445	15497.66
839.63	15608.25
839.815	16116.15
839.999	15557.05
840.184	15509.95
840.368	15661.5
840.553	15985.08
840.737	15956.41
840.922	15221.19
841.106	15223.23
841.291	15315.39
841.475	15598.01
841.66	15509.95
841.844	15194.56
842.029	16454.06
842.213	15350.21
842.397	15376.83
842.582	15024.58
842.766	15907.26
842.951	15950.26
843.135	15092.16
843.319	15311.3
843.504	15471.04
843.688	15657.4
843.872	14977.48
844.056	15079.88
844.241	15727.03
844.425	15389.12
844.609	15532.48
844.793	14840.26
844.977	15460.8
845.161	15284.67
845.346	15143.36
845.53	15075.78
845.714	15335.87
845.898	15655.36
846.082	14830.02
846.266	15180.23
846.45	15186.37
846.634	15290.82
846.818	14692.81
847.002	14938.57
847.186	15217.09
847.37	14797.26
847.554	14780.87
847.738	15032.77
847.922	15075.78
848.106	15440.32
848.29	14539.21
848.473	14764.49
848.657	14895.56
848.841	14979.53
849.025	14860.74
849.209	14662.09
849.392	14930.37
849.576	15032.77
849.76	14324.18
849.944	14842.31
850.127	15186.37
850.311	14772.68
850.495	14647.76
850.678	14109.14
850.862	15284.67
851.046	15227.33
851.229	14662.09
851.413	14240.21
851.596	14725.58
851.78	14926.28
851.964	14870.98
852.147	14547.4
852.331	15399.36
852.514	14805.45
852.698	14612.94
852.881	14031.32
853.065	14698.95
853.248	14518.73
853.431	14328.27
853.615	14471.63
853.798	15247.81
853.982	14590.41
854.165	14313.94
854.348	14414.29
854.532	14475.73
854.715	14385.62
854.898	14311.89
855.081	13984.21
855.265	14692.81
855.448	14744.01
855.631	14047.7
855.814	14146
855.997	14512.59
856.181	14174.67
856.364	14285.26
856.547	13908.44
856.73	14088.66
856.913	14391.76
857.096	13912.53
857.279	14027.22
857.462	14227.92
857.645	14447.05
857.828	14293.46
858.011	14201.3
858.194	14033.36
858.377	14395.85
858.56	13855.19
858.743	13973.97
858.926	13763.03
859.109	14019.03
859.292	13504.99
859.475	13584.86
859.658	14408.14
859.841	14084.56
860.023	13572.57
860.206	13529.56
860.389	13820.38
860.572	14152.15
860.755	13611.48
860.937	13599.2
861.12	13582.81
861.303	13840.86
861.486	13697.5
861.668	13394.4
861.851	13984.21
862.034	13978.07
862.216	13517.28
862.399	13154.79
862.581	13656.54
862.764	13771.22
862.947	13578.72
863.129	13306.34
863.312	13482.46
863.494	13941.21
863.677	13531.61
863.859	13025.76
864.042	13654.49
864.224	13756.89
864.406	13279.71
864.589	12751.34
864.771	13447.65
864.954	13181.41
865.136	13011.43
865.318	12816.87
865.501	13365.73
865.683	12888.55
865.865	12906.98
866.048	12825.06
866.23	13003.24
866.412	13298.14
866.594	12892.65
866.777	13079.01
866.959	13287.9
867.141	12919.27
867.323	13064.68
867.505	13175.27
867.687	12982.76
867.869	13132.26
868.052	13072.87
868.234	12806.63
868.416	12990.95
868.598	13556.19
868.78	12685.8
868.962	12595.69
869.144	13353.44
869.326	13328.86
869.508	12657.13
869.69	12636.65
869.872	12962.28
870.054	13046.24
870.236	12534.25
870.417	12433.9
870.599	12874.21
870.781	13439.45
870.963	12876.26
871.145	12388.85
871.327	12665.32
871.508	13201.89
871.69	12798.44
871.872	12628.46
872.054	12976.61
872.235	13138.4
872.417	12788.2
872.599	12517.87
872.78	13576.67
872.962	13031.91
873.144	12261.87
873.325	12622.31
873.507	13214.18
873.689	12995.04
873.87	12491.24
874.052	12935.65
874.233	13117.92
874.415	13265.38
874.596	12798.44
874.778	12628.46
874.959	12859.88
875.141	13076.96
875.322	12900.84
875.503	12530.16
875.685	13023.72
875.866	12855.78
876.048	12673.51
876.229	12499.44
876.41	12870.12
876.592	13109.73
876.773	12655.08
876.954	12532.2
877.136	13390.3
877.317	12956.13
877.498	12524.01
877.679	12814.82
877.86	13228.51
878.042	13083.11
878.223	12657.13
878.404	13208.03
878.585	13257.18
878.766	13318.62
878.947	13322.72
879.128	12980.71
879.309	13365.73
879.49	13341.15
879.672	12954.08
879.853	13021.67
880.034	12974.56
880.215	13257.18
880.396	13074.92
880.576	13273.57
880.757	13052.39
880.938	13566.43
881.119	12962.28
881.3	13126.11
881.481	13310.43
881.662	13949.4
881.843	13033.96
882.023	13105.63
882.204	13330.91
882.385	13169.12
882.566	13005.28
882.747	13036
882.927	13259.23
883.108	13558.24
883.289	13199.84
883.469	13269.47
883.65	13324.77
883.831	13509.08
884.011	13292
884.192	13357.53
884.373	13863.38
884.553	13779.42
884.734	13466.08
884.914	13545.95
885.095	14348.75
885.275	13941.21
885.456	13957.59
885.636	13275.62
885.817	13654.49
885.997	13816.28
886.178	13392.35
886.358	13371.87
886.538	13703.64
886.719	14715.34
886.899	13537.76
887.08	13711.83
887.26	14016.98
887.44	13355.49
887.621	13378.01
887.801	13527.52
887.981	14457.29
888.161	14115.28
888.342	13631.96
888.522	13769.18
888.702	14092.76
888.882	14297.55
889.062	13838.81
889.242	13584.86
889.423	14514.64
889.603	14006.74
889.783	13896.15
889.963	13580.76
890.143	14033.36
890.323	14211.54
890.503	13709.79
890.683	13832.66
890.863	13953.49
891.043	14080.47
891.223	13824.47
891.403	14103
891.583	14184.91
891.763	13953.49
891.943	14031.32
892.122	13941.21
892.302	14205.39
892.482	13947.35
892.662	13803.99
892.842	13873.62
893.022	14240.21
893.201	13990.36
893.381	13941.21
893.561	13773.27
893.741	14244.31
893.92	14215.63
894.1	13881.81
894.28	13994.45
894.459	14272.98
894.639	14266.83
894.819	13867.48
894.998	13971.93
895.178	14397.9
895.357	14395.85
895.537	13803.99
895.716	13572.57
895.896	14186.96
896.075	14485.97
896.255	13697.5
896.434	13574.62
896.614	14535.12
896.793	14428.62
896.973	13947.35
897.152	13892.05
897.331	14287.31
897.511	14324.18
897.69	13539.8
897.87	13924.82
898.049	14143.95
898.228	14125.52
898.407	13461.98
898.587	13750.74
898.766	13914.58
898.945	14289.36
899.124	13943.25
899.304	13662.68
899.483	14137.81
899.662	14612.94
899.841	13642.2
900.02	13439.45
900.199	14438.86
900.378	13890.01
900.557	13591
900.737	13500.89
900.916	13881.81
901.095	14084.56
901.274	13795.8
901.453	13482.46
901.632	13640.15
901.811	13457.89
901.989	13316.58
902.168	13408.73
902.347	14113.24
902.526	13433.31
902.705	13423.07
902.884	13406.69
903.063	14053.84
903.242	13947.35
903.42	13103.59
903.599	13515.23
903.778	13965.78
903.957	13791.7
904.135	13601.24
904.314	13603.29
904.493	13701.59
904.672	13509.08
904.85	13199.84
905.029	13371.87
905.207	13570.52
905.386	14107.09
905.565	13091.3
905.743	13052.39
905.922	13322.72
906.1	13527.52
906.279	12906.98
906.457	12859.88
906.636	13283.81
906.814	13296.1
906.993	13089.25
907.171	12835.3
907.35	13300.19
907.528	13406.69
907.707	13257.18
907.885	12689.9
908.063	13404.64
908.242	12931.56
908.42	12931.56
908.598	12415.47
908.777	13060.58
908.955	12855.78
909.133	12874.21
909.311	12474.86
909.49	12663.27
909.668	12718.57
909.846	12802.54
910.024	12284.4
910.202	12722.66
910.38	12896.74
910.559	12583.4
910.737	12302.83
910.915	12874.21
911.093	12939.75
911.271	12540.4
911.449	12454.38
911.627	12888.55
911.805	12870.12
911.983	12374.51
912.161	12134.9
912.339	12524.01
912.517	12782.06
912.695	12169.71
912.872	12354.03
913.05	12128.75
913.228	12554.73
913.406	12030.45
913.584	12093.94
913.762	12460.52
913.939	12114.42
914.117	12089.84
914.295	11942.39
914.473	12354.03
914.65	12466.67
914.828	11878.9
915.006	11657.72
915.184	11653.62
915.361	12243.44
915.539	11899.38
915.716	11878.9
915.894	11975.16
916.072	12114.42
916.249	11848.18
916.427	11770.36
916.604	11704.82
916.782	12042.74
916.959	11457.02
917.137	11493.88
917.314	11858.42
917.492	11950.58
917.669	11536.89
917.847	11217.41
918.024	11803.13
918.201	11606.52
918.379	11467.26
918.556	11495.93
918.733	11768.31
918.911	11508.22
919.088	11596.28
919.265	11061.76
919.442	11469.31
919.62	11194.88
919.797	11098.63
919.974	10916.36
920.151	11411.96
920.328	11336.19
920.506	11137.54
920.683	11227.65
920.86	10859.01
921.037	10988.03
921.214	10973.7
921.391	10803.72
921.568	11305.47
921.745	11096.58
921.922	10719.75
922.099	10535.43
922.276	11188.74
922.453	11135.49
922.63	10623.5
922.807	10797.57
922.984	11004.42
923.161	10732.04
923.338	10557.96
923.514	10428.94
923.691	10867.2
923.868	10895.88
924.045	10338.83
924.222	10222.09
924.399	10701.32
924.575	10877.44
924.752	10387.98
924.929	10390.03
925.105	10506.76
925.282	10117.65
925.459	10191.38
925.635	10127.89
925.812	10406.41
925.989	10066.45
926.165	10136.08
926.342	9820.69
926.518	10021.39
926.695	9992.72
926.871	9646.62
927.048	9585.18
927.224	10080.78
927.401	9939.47
927.577	9740.82
927.754	9300.51
927.93	9949.71
928.107	9988.63
928.283	9540.12
928.459	9722.39
928.636	9996.82
928.812	9560.6
928.988	9187.87
929.165	9091.62
929.341	9441.82
929.517	9511.45
929.693	9482.78
929.87	8962.59
930.046	9515.55
930.222	9032.22
930.398	8999.46
930.574	9146.91
930.751	9191.97
930.927	8931.87
931.103	8890.91
931.279	8886.82
931.455	8618.54
931.631	8940.07
931.807	8694.31
931.983	8682.02
932.159	8546.86
932.335	8983.07
932.511	8690.21
932.687	8151.6
932.863	8706.6
933.039	8649.25
933.215	8346.16
933.391	8118.83
933.566	8272.43
933.742	8415.79
933.918	7965.23
934.094	7860.79
934.27	8366.64
934.445	8239.66
934.621	7866.93
934.797	7705.14
934.973	8112.69
935.148	8032.82
935.324	7453.24
935.5	7369.27
935.675	7932.47
935.851	7602.74
936.027	7289.4
936.202	7352.89
936.378	7531.06
936.553	7051.84
936.729	7277.12
936.904	6683.2
937.08	6666.82
937.255	6656.58
937.431	6408.78
937.606	6306.38
937.782	6337.1
937.957	6296.14
938.133	6085.2
938.308	5927.5
938.483	6027.85
938.659	5818.96
938.834	5759.57
939.009	5663.32
939.185	5888.59
939.36	5513.81
939.535	5057.12
939.71	5581.4
939.886	5706.32
940.061	5669.46
940.236	5431.9
940.411	5237.34
940.586	5386.84
940.761	5442.14
940.937	5024.35
941.112	4915.81
941.287	5096.03
941.462	5268.06
941.637	4770.4
941.812	4854.37
941.987	5034.59
942.162	4952.67
942.337	4655.72
942.512	4645.48
942.687	4901.47
942.862	4899.42
943.037	4221.55
943.212	4031.09
943.386	4534.89
943.561	4627.04
943.736	4590.18
943.911	4641.38
944.086	4665.96
944.26	4612.71
944.435	4323.94
944.61	4487.78
944.785	4792.93
944.959	4889.18
945.134	4242.03
945.309	4246.12
945.483	4246.12
945.658	4534.89
945.833	4002.41
946.007	4049.52
946.182	4915.81
946.357	4274.79
946.531	4239.98
946.706	4067.95
946.88	3969.65
947.055	4690.53
947.229	4258.41
947.404	4110.96
947.578	4567.65
947.752	4239.98
947.927	3922.54
948.101	4026.99
948.276	4633.19
948.45	4364.9
948.624	4504.17
948.799	4074.09
948.973	4639.33
949.147	4239.98
949.321	4178.54
949.496	4143.72
949.67	4610.66
949.844	4430.44
950.018	4186.73
950.193	4160.11
950.367	4885.09
950.541	4330.09
950.715	4379.24
950.889	4434.53
951.063	4248.17
951.237	4526.69
951.411	4008.56
951.585	3885.68
951.759	4493.93
951.933	4262.51
952.107	4143.72
952.281	4340.33
952.455	4756.07
952.629	4704.87
952.803	4176.49
952.977	4182.63
953.151	4717.15
953.325	4440.68
953.499	4369
953.672	4115.05
953.846	4184.68
954.02	4221.55
954.194	3983.98
954.368	4158.06
954.541	4655.72
954.715	4395.62
954.889	4332.14
955.062	4000.37
955.236	4524.65
955.41	4254.31
955.583	4319.85
955.757	3897.97
955.93	4344.42
956.104	4156.01
956.278	4008.56
956.451	4102.76
956.625	4465.25
956.798	5048.93
956.972	4248.17
957.145	3965.55
957.319	4317.8
957.492	4156.01
957.665	4455.01
957.839	3936.88
958.012	4479.59
958.185	4172.39
958.359	4092.52
958.532	4063.85
958.705	4436.58
958.879	4584.04
959.052	4018.8
959.225	3877.49
959.398	4356.71
959.572	4282.99
959.745	3965.55
959.918	4014.7
960.091	4164.2
960.264	4311.66
960.438	3795.57
960.611	3963.5
960.784	4301.42
960.957	4065.9
961.13	4278.89
961.303	3852.91
961.476	4160.11
961.649	4256.36
961.822	3830.38
961.995	4029.04
962.168	4389.48
962.341	4213.35
962.514	3828.34
962.686	3934.83
962.859	4254.31
963.032	4348.52
963.205	4020.85
963.378	3824.24
963.551	4442.73
963.723	4184.68
963.896	4047.47
964.069	3967.6
964.242	4235.88
964.414	4401.77
964.587	3947.12
964.76	4029.04
964.932	4282.99
965.105	4065.9
965.278	3871.34
965.45	3940.97
965.623	4072.04
965.795	4139.63
965.968	4055.66
966.14	3799.66
966.313	3959.41
966.485	4096.62
966.658	3906.16
966.83	3736.18
967.003	4287.08
967.175	4233.83
967.348	3848.82
967.52	3861.1
967.692	4387.43
967.865	4184.68
968.037	3836.53
968.209	3928.69
968.382	3949.17
968.554	4199.02
968.726	3758.71
968.898	3668.59
969.071	3961.45
969.243	3967.6
969.415	3809.9
969.587	3740.27
969.759	4504.17
969.932	4158.06
970.104	3635.83
970.276	3457.65
970.448	3820.14
970.62	3883.63
970.792	3633.78
970.964	3730.03
971.136	4432.49
971.308	3986.03
971.48	3488.37
971.652	3598.96
971.824	4307.56
971.996	3791.47
972.168	3701.36
972.339	3713.65
972.511	4205.16
972.683	3779.18
972.855	3900.02
973.027	3662.45
973.199	3799.66
973.37	3811.95
973.542	3635.83
973.714	3715.7
973.886	3861.1
974.057	4164.2
974.229	3373.69
974.401	3609.2
974.572	3672.69
974.744	3330.68
974.915	3353.21
975.087	3394.17
975.259	3988.08
975.43	3383.93
975.602	3334.78
975.773	3334.78
975.945	3478.13
976.116	3916.4
976.288	3476.09
976.459	3562.1
976.63	3488.37
976.802	3826.29
976.973	3388.02
977.145	3654.26
977.316	4035.18
977.487	3920.49
977.659	3459.7
977.83	3431.03
978.001	4108.91
978.172	3627.64
978.344	3402.36
978.515	3447.41
978.686	3377.78
978.857	3879.54
979.028	3328.63
979.2	3385.97
979.371	3756.66
979.542	3545.72
979.713	3433.08
979.884	2886.27
980.055	3242.62
980.226	3420.79
980.397	3308.15
980.568	3185.27
980.739	3711.6
980.91	3517.05
981.081	3332.73
981.252	3332.73
981.423	3566.2
981.594	3791.47
981.765	3308.15
981.936	3388.02
982.106	3400.31
982.277	3754.61
982.448	3211.9
982.619	3494.52
982.79	3293.82
982.96	3654.26
983.131	3160.7
983.302	2941.57
983.472	3224.19
983.643	3410.55
983.814	3318.39
983.984	3105.4
984.155	3211.9
984.326	3476.09
984.496	3189.37
984.667	2931.33
984.837	3203.71
985.008	3590.77
985.178	3170.94
985.349	3058.3
985.519	3244.67
985.69	3054.2
985.86	2992.76
986.031	3013.24
986.201	3373.69
986.371	3402.36
986.542	2822.78
986.712	2652.8
986.882	3222.14
987.053	3357.3
987.223	2865.79
987.393	2964.09
987.563	3082.88
987.734	3299.96
987.904	3267.19
988.074	2802.3
988.244	3144.31
988.414	3089.02
988.585	2867.84
988.755	2960
988.925	3121.79
989.095	3560.05
989.265	2781.82
989.435	2937.47
989.605	3263.1
989.775	3084.92
989.945	3177.08
990.115	2583.17
990.285	2978.43
990.455	3140.22
990.625	2783.87
990.795	2566.79
990.965	3394.17
991.134	2855.55
991.304	2726.53
991.474	2730.62
991.644	3244.67
991.814	3406.45
991.984	2554.5
992.153	2624.13
992.323	3066.49
992.493	2929.28
992.662	2364.04
992.832	2779.78
993.002	2970.24
993.171	2951.81
993.341	2605.7
993.511	2701.95
993.68	2738.82
993.85	3000.96
994.019	2538.12
994.189	2458.25
994.358	2898.56
994.528	2888.32
994.697	2302.6
994.867	2482.82
995.036	2910.85
995.206	2843.26
995.375	2570.88
995.544	2595.46
995.714	2857.6
995.883	2583.17
996.052	2744.96
996.222	2206.34
996.391	3424.89
996.56	2706.05
996.73	2525.83
996.899	2349.7
997.068	3099.26
997.237	2765.44
997.406	2429.57
997.576	2370.18
997.745	2830.98
997.914	2701.95
998.083	2146.95
998.252	2595.46
998.421	2763.39
998.59	2691.71
998.759	2321.03
998.928	2175.63
999.097	3013.24
999.266	2714.24
999.435	2562.69
999.604	2050.7
999.773	3021.44
999.942	2507.4
1000.111	2230.92
1000.28	2155.15
1000.448	2394.76
1000.617	2247.3
1000.786	2484.87
1000.955	2314.89
1001.124	2615.94
1001.292	3242.62
1001.461	2224.78
1001.63	2218.63
1001.798	2953.85
1001.967	2847.36
1002.136	2103.95
1002.304	2245.26
1002.473	2554.5
1002.642	2579.08
1002.81	2243.21
1002.979	2161.29
1003.147	2654.85
1003.316	3095.16
1003.484	2136.71
1003.653	2151.05
1003.821	2744.96
1003.99	2321.03
1004.158	2183.82
1004.327	2202.25
1004.495	2626.18
1004.663	2216.58
1004.832	2341.51
1005	1925.77
1005.168	2501.25
1005.337	2355.85
1005.505	1864.33
1005.673	2316.94
1005.842	2484.87
1006.01	2466.44
1006.178	1981.07
1006.346	2056.84
1006.514	2392.71
1006.683	2550.4
1006.851	2009.74
1007.019	2009.74
1007.187	2165.39
1007.355	1745.55
1007.523	1712.78
1007.691	1780.37
1007.859	2015.88
1008.027	2554.5
1008.195	1907.34
1008.363	1825.42
1008.531	2419.33
1008.699	2095.75
1008.867	1714.83
1009.035	1915.53
1009.203	2366.09
1009.37	2171.53
1009.538	1907.34
1009.706	2288.26
1009.874	2327.18
1010.042	2050.7
1010.209	1817.23
1010.377	1788.56
1010.545	2347.65
1010.713	2216.58
1010.88	1718.93
1011.048	1696.4
1011.216	2108.04
1011.383	2413.19
1011.551	1743.5
1011.718	1608.34
1011.886	2339.46
1012.054	2060.94
1012.221	1806.99
1012.389	1727.12
1012.556	1968.78
1012.724	2452.1
1012.891	1761.94
1013.058	1561.23
1013.226	2304.65
1013.393	2171.53
1013.561	1473.17
1013.728	1647.25
1013.895	2251.4
1014.063	2103.95
1014.23	1475.22
1014.397	1602.19
1014.565	2120.33
1014.732	1954.44
1014.899	1602.19
1015.066	1432.21
1015.233	2048.65
1015.401	2161.29
1015.568	1653.39
1015.735	1723.02
1015.902	1921.68
1016.069	1944.2
1016.236	1473.17
1016.403	1469.08
1016.57	1665.68
1016.737	1997.45
1016.904	1596.05
1017.071	1370.77
1017.238	1657.49
1017.405	2067.08
1017.572	1481.36
1017.739	1739.41
1017.906	1911.44
1018.073	1897.1
1018.24	1350.29
1018.407	1503.89
1018.573	2062.99
1018.74	1673.87
1018.907	1555.09
1019.074	1247.9
1019.241	1909.39
1019.407	1806.99
1019.574	1381.01
1019.741	1200.79
1019.907	1845.9
1020.074	1821.33
1020.241	1122.97
1020.407	1235.61
1020.574	1780.37
1020.74	1870.48
1020.907	1407.64
1021.073	1251.99
1021.24	2181.77
1021.406	1993.36
1021.573	1282.71
1021.739	1432.21
1021.906	1917.58
1022.072	1616.53
1022.239	1387.16
1022.405	1256.09
1022.571	1718.93
1022.738	1436.31
1022.904	1295
1023.07	1340.05
1023.237	1594
1023.403	1968.78
1023.569	1274.52
1023.735	1272.47
1023.902	1585.81
1024.068	1727.12
1024.234	1024.67
1024.4	1149.59
1024.566	1649.3
1024.732	1907.34
1024.898	1206.94
1025.065	1122.97
1025.231	1761.94
1025.397	1387.16
1025.563	1270.42
1025.729	1090.2
1025.895	1106.59
1026.061	1368.73
1026.227	1032.86
1026.392	1215.13
1026.558	1843.85
1026.724	1544.85
1026.89	1108.63
1027.056	1155.74
1027.222	1464.98
1027.388	1503.89
1027.553	1118.87
1027.719	1012.38
1027.885	1860.24
1028.051	1645.2
1028.216	889.5
1028.382	1010.33
1028.548	1647.25
1028.713	1378.97
1028.879	979.61
1029.045	1241.75
1029.21	1794.7
1029.376	1667.73
1029.541	1186.46
1029.707	1061.53
1029.873	1495.7
1030.038	1585.81
1030.204	1008.28
1030.369	1041.05
1030.534	1444.5
1030.7	1217.18
1030.865	1043.1
1031.031	873.12
1031.196	1430.16
1031.361	1381.01
1031.527	883.36
1031.692	879.26
1031.857	1036.95
1032.023	1458.84
1032.188	846.49
1032.353	989.85
1032.518	1731.22
1032.684	1290.9
1032.849	694.94
1033.014	916.12
1033.179	1428.12
1033.344	1315.48
1033.509	879.26
1033.674	848.54
1033.839	1454.74
1034.004	1411.73
1034.17	834.21
1034.335	719.52
1034.5	1204.89
1034.664	1057.43
1034.829	823.97
1034.994	891.55
1035.159	1280.66
1035.324	1290.9
1035.489	830.11
1035.654	832.16
1035.819	1542.8
1035.984	1215.13
1036.148	873.12
1036.313	893.6
1036.478	1430.16
1036.643	1153.69
1036.807	834.21
1036.972	723.62
1037.137	1530.52
1037.301	1219.22
1037.466	633.5
1037.631	813.73
1037.795	1393.3
1037.96	1182.36
1038.124	965.28
1038.289	664.22
1038.454	1260.18
1038.618	1215.13
1038.783	811.68
1038.947	766.62
1039.111	1129.11
1039.276	977.56
1039.44	701.09
1039.605	1192.6
1039.769	959.13
1039.933	1108.63
1040.098	834.21
1040.262	848.54
1040.426	1338.01
1040.591	1184.41
1040.755	666.27
1040.919	674.46
1041.083	1180.31
1041.248	977.56
1041.412	457.38
1041.576	608.93
1041.74	936.6
1041.904	1288.86
1042.068	629.41
1042.232	590.5
1042.397	1184.41
1042.561	1159.83
1042.725	397.99
1042.889	963.23
1043.053	1178.26
1043.217	1112.73
1043.381	694.94
1043.544	475.81
1043.708	1327.77
1043.872	789.15
1044.036	420.52
1044.2	504.48
1044.364	1268.38
1044.528	1272.47
1044.691	2046.6
1044.855	504.48
1045.019	1147.55
1045.183	1122.97
1045.346	633.5
1045.51	539.3
1045.674	1082.01
1045.837	1055.39
1046.001	643.74
1046.165	574.11
1046.328	1405.59
1046.492	1088.15
1046.655	715.42
1046.819	469.67
1046.983	864.93
1047.146	979.61
1047.31	623.27
1047.473	424.61
1047.636	920.22
1047.8	703.14
1047.963	561.83
1048.127	486.05
1048.29	735.9
