Data from Ink_Intensity_USB4F045381__75__00075.txt Node

Date: Mon Jul 17 10:53:26 EDT 2023
User: mmckonesweet
Spectrometer: USB4F04538
Trigger mode: 4
Integration Time (sec): 9.000000E-1
Scans to average: 1
Electric dark correction enabled: true
Nonlinearity correction enabled: false
Boxcar width: 0
XAxis mode: Wavelengths
Number of Pixels in Spectrum: 3648
>>>>>Begin Spectral Data<<<<<
345.52	-983.88
345.736	-983.88
345.952	-983.88
346.168	-1000.26
346.384	-1043.27
346.6	-162.64
346.816	-238.42
347.032	-193.36
347.248	265.38
347.464	-174.93
347.68	-146.26
347.896	140.46
348.112	394.4
348.328	-78.68
348.544	-107.35
348.76	46.25
348.975	255.14
349.191	-256.85
349.407	-150.36
349.623	175.27
349.839	1.19
350.055	-29.52
350.27	130.22
350.486	162.98
350.702	400.55
350.918	324.77
351.133	-148.31
351.349	197.8
351.565	529.57
351.781	-205.65
351.996	17.58
352.212	429.22
352.428	-84.82
352.644	-99.16
352.859	-168.79
353.075	332.97
353.291	187.56
353.506	-142.16
353.722	-236.37
353.938	13.48
354.153	455.84
354.369	162.98
354.584	-129.88
354.8	330.92
355.016	-213.84
355.231	-109.4
355.447	29.87
355.662	132.26
355.878	812.19
356.093	-306
356.309	74.92
356.524	-152.4
356.74	351.4
356.955	-111.44
357.171	87.21
357.386	226.47
357.602	-205.65
357.817	-0.85
358.033	-52.05
358.248	382.12
358.464	271.53
358.679	-138.07
358.895	-222.03
359.11	76.97
359.325	468.13
359.541	72.87
359.756	66.73
359.972	-244.56
360.187	238.76
360.402	-103.25
360.618	-113.49
360.833	1053.85
361.048	175.27
361.264	-52.05
361.479	17.58
361.694	85.16
361.909	244.9
362.125	-43.86
362.34	-43.86
362.555	388.26
362.77	113.83
362.986	-209.75
363.201	-99.16
363.416	349.35
363.631	74.92
363.847	-203.6
364.062	-80.72
364.277	326.82
364.492	220.33
364.707	-84.82
364.922	-334.67
365.138	421.03
365.353	392.36
365.568	-203.6
365.783	-41.81
365.998	146.6
366.213	720.03
366.428	-37.72
366.643	181.42
366.858	400.55
367.073	312.49
367.288	42.15
367.503	-150.36
367.718	205.99
367.933	431.27
368.148	-168.79
368.363	52.39
368.578	68.78
368.793	603.3
369.008	-13.14
369.223	-107.35
369.438	384.16
369.653	509.09
369.868	-166.74
370.083	-160.59
370.298	267.43
370.513	515.23
370.728	156.84
370.943	-68.44
371.157	-97.11
371.372	548
371.587	-215.89
371.802	-64.34
372.017	160.94
372.232	611.49
372.446	62.63
372.661	-123.73
372.876	388.26
373.091	373.92
373.306	21.67
373.52	-144.21
373.735	29.87
373.95	601.25
374.165	46.25
374.379	64.68
374.594	-0.85
374.809	287.91
375.023	197.8
375.238	-60.24
375.453	382.12
375.667	-82.77
375.882	5.29
376.097	-27.48
376.311	138.41
376.526	210.09
376.741	-27.48
376.955	345.25
377.17	638.11
377.384	644.26
377.599	25.77
377.813	-148.31
378.028	746.66
378.242	421.03
378.457	95.4
378.672	-172.88
378.886	230.57
379.101	101.55
379.315	-211.79
379.53	7.34
379.744	378.02
379.958	386.21
380.173	97.45
380.387	-56.15
380.602	408.74
380.816	97.45
381.031	54.44
381.245	25.77
381.459	382.12
381.674	2843.78
381.888	-52.05
382.103	324.77
382.317	33.96
382.531	595.11
382.746	132.26
382.96	-7
383.174	115.88
383.388	623.78
383.603	320.68
383.817	-54.1
384.031	365.73
384.246	652.45
384.46	242.85
384.674	591.01
384.888	267.43
385.103	267.43
385.317	-17.24
385.531	205.99
385.745	615.59
385.959	500.9
386.174	93.35
386.388	40.11
386.602	283.81
386.816	87.21
387.03	228.52
387.244	160.94
387.458	337.06
387.672	621.73
387.887	-15.19
388.101	-35.67
388.315	605.35
388.529	468.13
388.743	146.6
388.957	40.11
389.171	615.59
389.385	89.26
389.599	93.35
389.813	402.6
390.027	507.04
390.241	906.4
390.455	187.56
390.669	236.71
390.883	218.28
391.097	631.97
391.311	337.06
391.525	50.35
391.738	548
391.952	474.28
392.166	255.14
392.38	115.88
392.594	656.54
392.808	570.53
393.022	279.72
393.236	193.7
393.449	545.95
393.663	472.23
393.877	70.83
394.091	335.01
394.305	304.29
394.518	257.19
394.732	62.63
394.946	210.09
395.16	783.52
395.373	451.75
395.587	156.84
395.801	150.7
396.015	656.54
396.228	545.95
396.442	87.21
396.656	44.2
396.869	730.27
397.083	851.1
397.297	326.82
397.51	269.48
397.724	697.5
397.938	599.2
398.151	-7
398.365	107.69
398.578	611.49
398.792	783.52
399.005	425.12
399.219	306.34
399.433	619.68
399.646	652.45
399.86	484.52
400.073	386.21
400.287	638.11
400.5	412.84
400.714	386.21
400.927	277.67
401.141	582.82
401.354	1518.74
401.567	732.32
401.781	187.56
401.994	715.94
402.208	1055.9
402.421	529.57
402.635	425.12
402.848	545.95
403.061	738.46
403.275	431.27
403.488	251.05
403.701	943.26
403.915	691.36
404.128	525.47
404.341	425.12
404.555	652.45
404.768	541.86
404.981	484.52
405.195	412.84
405.408	963.74
405.621	711.84
405.834	535.71
406.048	283.81
406.261	957.6
406.474	1004.7
406.687	388.26
406.9	609.44
407.114	576.67
407.327	654.5
407.54	326.82
407.753	251.05
407.966	326.82
408.179	865.44
408.392	367.78
408.605	214.18
408.819	769.18
409.032	730.27
409.245	365.73
409.458	672.93
409.671	867.49
409.884	965.79
410.097	412.84
410.31	687.26
410.523	890.01
410.736	603.3
410.949	439.46
411.162	574.63
411.375	1070.23
411.588	945.31
411.801	660.64
412.014	414.88
412.227	722.08
412.44	648.35
412.653	509.09
412.865	697.5
413.078	1041.56
413.291	1025.18
413.504	634.02
413.717	607.39
413.93	1012.89
414.143	548
414.356	621.73
414.568	468.13
414.781	1035.42
414.994	1088.67
415.207	705.7
415.42	691.36
415.632	1039.51
415.845	1369.24
416.058	447.65
416.271	488.61
416.483	949.4
416.696	1277.08
416.909	582.82
417.121	599.2
417.334	1096.86
417.547	1367.19
417.759	697.5
417.972	613.54
418.185	734.37
418.397	1084.57
418.61	556.19
418.823	634.02
419.035	1207.45
419.248	885.92
419.46	779.42
419.673	844.96
419.885	1031.32
420.098	947.36
420.311	619.68
420.523	566.43
420.736	1133.72
420.948	943.26
421.161	781.47
421.373	556.19
421.586	1105.05
421.798	947.36
422.01	640.16
422.223	939.16
422.435	832.67
422.648	1074.33
422.86	779.42
423.073	775.33
423.285	1258.65
423.497	736.42
423.71	787.61
423.922	758.94
424.134	1180.82
424.347	1397.91
424.559	996.51
424.771	1209.5
424.984	863.39
425.196	1211.54
425.408	732.32
425.621	773.28
425.833	1328.28
426.045	1578.13
426.257	824.48
426.47	971.93
426.682	1217.69
426.894	1254.55
427.106	918.68
427.318	1006.75
427.531	1049.75
427.743	1363.09
427.955	955.55
428.167	1465.49
428.379	1430.68
428.591	1221.78
428.804	1143.96
429.016	998.56
429.228	1174.68
429.44	1330.33
429.652	1283.22
429.864	916.64
430.076	1148.06
430.288	1207.45
430.5	1156.25
430.712	1219.74
430.924	1713.3
431.136	1260.7
431.348	947.36
431.56	1043.61
431.772	1387.67
431.984	1244.31
432.196	1111.19
432.408	1217.69
432.62	1350.81
432.832	1539.22
433.044	1500.31
433.256	1287.32
433.468	1588.37
433.679	1107.1
433.891	1123.48
434.103	1397.91
434.315	1911.95
434.527	1799.31
434.739	1463.44
434.95	1373.33
435.162	1799.31
435.374	1287.32
435.586	1309.85
435.798	1356.95
436.009	1373.33
436.221	1598.61
436.433	1334.42
436.645	1416.34
436.856	1541.27
437.068	2071.69
437.28	1348.76
437.491	1703.06
437.703	1803.41
437.915	1864.85
438.126	1619.09
438.338	1709.2
438.55	1674.39
438.761	1889.42
438.973	1614.99
439.184	1545.36
439.396	1668.24
439.608	1942.67
439.819	1402.01
440.031	1619.09
440.242	2024.59
440.454	1891.47
440.665	1531.03
440.877	1842.32
441.088	2098.31
441.3	1844.37
441.511	1459.35
441.723	1639.57
441.934	1942.67
442.146	1887.37
442.357	1807.5
442.569	1840.27
442.78	1891.47
442.991	2323.59
443.203	2028.68
443.414	1569.94
443.626	2223.24
443.837	1895.57
444.048	1696.91
444.26	1610.9
444.471	2038.92
444.682	2163.85
444.894	1526.93
445.105	1600.66
445.316	2210.95
445.528	2100.36
445.739	1936.53
445.95	1821.84
446.161	2116.75
446.373	2327.69
446.584	2049.16
446.795	1883.28
447.006	2204.81
447.217	2679.94
447.429	1735.82
447.64	1825.93
447.851	2368.65
448.062	2202.76
448.273	1614.99
448.484	1901.71
448.695	2278.54
448.907	2126.99
449.118	2075.79
449.329	2045.07
449.54	2086.03
449.751	1914
449.962	1971.34
450.173	2014.35
450.384	2559.11
450.595	2612.35
450.806	2251.91
451.017	2057.36
451.228	2784.38
451.439	2622.59
451.65	2194.57
451.861	1897.61
452.072	2202.76
452.283	2307.21
452.494	2368.65
452.705	2194.57
452.915	2884.73
453.126	2528.39
453.337	2286.73
453.548	2210.95
453.759	2802.82
453.97	3054.72
454.181	2575.49
454.391	2342.02
454.602	2602.11
454.813	2845.82
455.024	2417.8
455.235	2294.92
455.445	2653.31
455.656	2790.53
455.867	2595.97
456.078	2479.24
456.288	2651.27
456.499	2888.83
456.71	2516.1
456.921	2718.85
457.131	2790.53
457.342	2905.21
457.553	2684.03
457.763	2489.48
457.974	3085.44
458.184	2942.08
458.395	2514.05
458.606	2481.28
458.816	3251.32
459.027	3470.45
459.237	3062.91
459.448	2675.84
459.659	3193.98
459.869	3587.19
460.08	2698.37
460.29	3196.03
460.501	3566.71
460.711	3204.22
460.922	2835.58
461.132	3167.35
461.343	3853.42
461.553	3021.95
461.764	3032.19
461.974	3105.92
462.184	3474.55
462.395	3527.8
462.605	3290.23
462.816	2999.42
463.026	3552.37
463.236	3693.68
463.447	3200.12
463.657	3296.38
463.867	3904.62
464.078	3527.8
464.288	3421.3
464.498	3515.51
464.709	3800.18
464.919	3773.55
465.129	3611.76
465.339	3390.58
465.55	4078.7
465.76	4070.51
465.97	3671.15
466.18	3587.19
466.391	4310.12
466.601	4107.37
466.811	3935.34
467.021	3732.59
467.231	4203.63
467.441	4428.9
467.651	4062.32
467.862	3916.91
468.072	4387.94
468.282	4605.03
468.492	3994.73
468.702	4220.01
468.912	4422.76
469.122	5123.16
469.332	4781.15
469.542	4283.5
469.752	4650.08
469.962	4867.17
470.172	4447.33
470.382	4586.6
470.592	5215.32
470.802	5155.93
471.012	4717.67
471.222	4746.34
471.432	5295.19
471.642	5325.91
471.852	5135.45
472.062	4813.92
472.272	5262.43
472.482	4949.09
472.691	5028.96
472.901	4967.52
473.111	5512.28
473.321	6186.06
473.531	5491.8
473.741	5352.54
473.95	5919.82
474.16	5782.61
474.37	5610.58
474.58	5489.75
474.79	6542.41
474.999	6155.34
475.209	5753.94
475.419	5954.64
475.628	6165.58
475.838	6442.06
476.048	6050.89
476.258	5981.26
476.467	6804.55
476.677	6489.16
476.886	6474.82
477.096	6689.86
477.306	6638.66
477.515	7173.18
477.725	6777.92
477.935	6650.95
478.144	7347.26
478.354	6915.14
478.563	6952
478.773	7017.54
478.982	7613.49
479.192	7652.41
479.401	7304.25
479.611	7124.03
479.82	7281.72
480.03	7566.39
480.239	7363.64
480.449	7248.96
480.658	8041.52
480.868	7978.03
481.077	7734.32
481.287	7883.83
481.496	8231.98
481.705	8573.99
481.915	8311.85
482.124	8152.11
482.333	8459.31
482.543	8668.2
482.752	8102.96
482.961	8254.51
483.171	8942.63
483.38	8610.86
483.589	8688.68
483.799	8660.01
484.008	9124.9
484.217	9255.97
484.426	8801.32
484.636	8864.8
484.845	9202.72
485.054	9004.07
485.263	9456.67
485.472	9249.82
485.682	10071.06
485.891	9577.5
486.1	9090.08
486.309	9516.06
486.518	9991.19
486.727	10071.06
486.936	9671.7
487.146	9915.41
487.355	10419.21
487.564	9860.12
487.773	10007.57
487.982	10013.71
488.191	10312.72
488.4	10490.89
488.609	10257.42
488.818	10398.73
489.027	10976.26
489.236	11301.89
489.445	10560.52
489.654	10466.31
489.863	11191.3
490.072	10947.59
490.281	10900.48
490.49	10810.37
490.698	11416.57
490.907	11607.03
491.116	11181.06
491.325	11009.03
491.534	11559.93
491.743	11545.59
491.952	11422.72
492.16	11387.9
492.369	11801.59
492.578	11834.36
492.787	11629.56
492.996	11389.95
493.204	11916.28
493.413	12360.69
493.622	11500.54
493.831	11719.67
494.039	12641.26
494.248	11893.75
494.457	11994.1
494.665	11871.22
494.874	12530.67
495.083	12905.45
495.291	12336.11
495.5	12116.98
495.709	12895.21
495.917	12639.21
496.126	12719.08
496.335	12585.96
496.543	12839.91
496.752	13095.91
496.96	12913.64
497.169	12620.78
497.377	13102.05
497.586	13243.36
497.794	13042.66
498.003	12768.23
498.211	13237.22
498.42	13687.77
498.628	13356
498.837	13235.17
499.045	13743.06
499.254	13538.27
499.462	13466.59
499.671	13575.13
499.879	14275.54
500.087	14115.8
500.296	13755.35
500.504	13564.89
500.713	14040.02
500.921	14769.1
501.129	13870.04
501.338	13867.99
501.546	14447.57
501.754	14035.92
501.962	14398.41
502.171	13972.44
502.379	14676.94
502.587	14668.75
502.795	14160.85
503.004	14279.63
503.212	14730.19
503.42	15059.91
503.628	14564.3
503.837	14607.31
504.045	14932.93
504.253	15551.42
504.461	14844.87
504.669	14709.71
504.877	15090.63
505.085	15496.13
505.294	14869.45
505.502	15135.68
505.71	15383.49
505.918	15463.36
506.126	15203.27
506.334	14908.36
506.542	15571.9
506.75	15629.24
506.958	15360.96
507.166	15209.41
507.374	15453.12
507.582	16245.68
507.79	15602.62
507.998	15459.26
508.206	15924.15
508.414	16133.04
508.622	15594.43
508.83	15592.38
509.037	16409.52
509.245	15940.54
509.453	15561.66
509.661	15946.68
509.869	16417.71
510.077	15942.58
510.285	16008.12
510.492	15825.85
510.7	17099.69
510.908	16085.94
511.116	16225.2
511.324	16178.1
511.531	16090.04
511.739	16503.73
511.947	16235.44
512.155	16593.84
512.362	16759.72
512.57	16403.38
512.778	16479.15
512.985	16632.75
513.193	16944.04
513.401	17357.73
513.608	16724.91
513.816	16759.72
514.024	17210.28
514.231	17159.08
514.439	16726.96
514.646	16919.46
514.854	17693.6
515.061	17277.86
515.269	17007.53
515.477	16962.47
515.684	17126.31
515.892	17779.61
516.099	17095.59
516.307	17335.2
516.514	18008.98
516.722	18162.58
516.929	17202.08
517.136	17292.19
517.344	17884.06
517.551	17957.78
517.759	17525.66
517.966	17689.5
518.173	17834.91
518.381	18201.49
518.588	17773.47
518.796	17462.18
519.003	18502.54
519.21	17931.16
519.418	17699.74
519.625	18133.91
519.832	18211.73
520.039	18592.65
520.247	17800.09
520.454	18344.85
520.661	18895.75
520.868	18553.74
521.076	18293.65
521.283	18344.85
521.49	19037.06
521.697	18899.85
521.904	18377.62
522.112	18391.95
522.319	19096.46
522.526	18903.95
522.733	18748.3
522.94	18842.51
523.147	18873.23
523.354	19467.14
523.561	18666.38
523.768	19100.55
523.975	19481.47
524.183	19444.61
524.39	19100.55
524.597	18891.66
524.804	19655.55
525.011	19338.12
525.218	19153.8
525.425	19549.06
525.632	20177.78
525.838	19587.97
526.045	19452.8
526.252	19528.58
526.459	21003.11
526.666	20700.01
526.873	19827.58
527.08	19919.74
527.287	20648.82
527.494	20128.63
527.701	20013.95
527.907	19815.29
528.114	20626.29
528.321	20300.66
528.528	20306.8
528.735	20372.34
528.941	20239.22
529.148	20075.38
529.355	20095.86
529.562	20030.33
529.768	21099.37
529.975	20231.03
530.182	20120.44
530.388	20241.27
530.595	20796.27
530.802	20382.58
531.008	20687.73
531.215	21005.16
531.422	21656.42
531.628	21754.72
531.835	20806.51
532.042	20958.06
532.248	21404.52
532.455	21398.37
532.661	21078.89
532.868	21125.99
533.074	21449.57
533.281	21533.54
533.487	21273.45
533.694	21230.44
533.9	21832.54
534.107	21742.43
534.313	21361.51
534.52	21554.02
534.726	21961.56
534.933	22299.48
535.139	21492.58
535.345	21637.98
535.552	22242.14
535.758	22235.99
535.965	22070.11
536.171	21924.7
536.377	22580.05
536.584	22782.8
536.79	22049.63
536.996	22340.44
537.203	22809.42
537.409	22473.56
537.615	22125.4
537.821	22307.67
538.028	23032.65
538.234	22928.2
538.44	22446.93
538.646	22641.49
538.853	23065.42
539.059	22805.33
539.265	22911.82
539.471	22479.7
539.677	23300.94
539.883	22932.3
540.09	22819.66
540.296	23276.36
540.502	23130.95
540.708	23151.43
540.914	23343.94
541.12	23417.67
541.326	23573.31
541.532	23679.81
541.738	23534.4
541.944	23434.05
542.15	24144.7
542.356	23878.46
542.562	23386.95
542.768	23739.2
542.974	24429.37
543.18	24648.5
543.386	23616.32
543.592	23698.24
543.798	24425.27
544.004	24433.46
544.21	24060.73
544.415	24363.83
544.621	24640.31
544.827	24906.54
545.033	24226.62
545.239	24449.85
545.445	24787.76
545.651	24548.15
545.856	24214.33
546.062	24427.32
546.268	24519.48
546.474	24818.48
546.679	24144.7
546.885	24619.83
547.091	24394.55
547.297	25023.28
547.502	24877.87
547.708	24324.92
547.914	24476.47
548.119	25197.35
548.325	24431.41
548.531	24324.92
548.736	25158.44
548.942	24687.41
549.147	24904.49
549.353	25309.99
549.559	25678.63
549.764	25281.32
549.97	24679.22
550.175	25178.92
550.381	25443.11
550.586	25090.86
550.792	25330.47
550.997	25119.53
551.203	25609
551.408	25764.64
551.614	25400.1
551.819	25381.67
552.025	26172.19
552.23	26362.65
552.435	25604.9
552.641	26309.4
552.846	26112.8
553.052	26477.33
553.257	25901.86
553.462	26516.25
553.668	26266.39
553.873	26549.01
554.078	25924.38
554.283	26141.47
554.489	26403.61
554.694	26751.76
554.899	26520.34
555.105	26571.54
555.31	26688.28
555.515	27183.88
555.72	26524.44
555.925	26575.64
556.131	27147.02
556.336	26972.94
556.541	26917.65
556.746	26551.06
556.951	27509.51
557.156	27407.11
557.361	27278.09
557.567	27155.21
557.772	27927.3
557.977	27333.39
558.182	26604.31
558.387	27136.78
558.592	27372.3
558.797	27388.68
559.002	27282.19
559.207	27319.05
559.412	27366.15
559.617	27982.59
559.822	27347.72
560.027	26927.89
560.232	27583.24
560.437	27812.61
560.642	27550.47
560.847	27196.17
561.051	27927.3
561.256	27570.95
561.461	27521.8
561.666	27380.49
561.871	28076.8
562.076	28209.92
562.281	27835.14
562.485	27142.92
562.69	28171
562.895	28136.19
563.1	27560.71
563.305	27636.48
563.509	28467.96
563.714	28830.45
563.919	27945.73
564.123	27835.14
564.328	27919.1
564.533	28566.26
564.737	27689.73
564.942	27796.23
565.147	28887.79
565.351	28957.42
565.556	27982.59
565.761	28365.56
565.965	28775.16
566.17	28119.81
566.374	28128
566.579	28396.28
566.784	28642.04
566.988	28791.54
567.193	28191.48
567.397	28545.78
567.602	28506.87
567.806	28795.64
568.011	28711.67
568.215	28902.13
568.42	29268.72
568.624	29016.82
568.828	28752.63
569.033	28951.28
569.237	29590.25
569.442	29129.45
569.646	28959.47
569.85	29211.37
570.055	29338.35
570.259	29104.88
570.463	29569.77
570.668	28881.65
570.872	28828.4
571.076	29254.38
571.281	29176.56
571.485	29311.72
571.689	29453.03
571.893	29756.13
572.098	29602.53
572.302	29555.43
572.506	29993.7
572.71	29450.99
572.914	29465.32
573.119	29512.42
573.323	30415.58
573.527	30122.72
573.731	29723.37
573.935	29522.66
574.139	30110.43
574.343	29483.75
574.547	29821.67
574.751	29948.64
574.955	30370.52
575.159	30372.57
575.364	29817.57
575.568	29928.16
575.772	30069.47
575.976	30952.15
576.18	29692.65
576.383	30274.27
576.587	30915.28
576.791	30657.24
576.995	30190.3
577.199	30190.3
577.403	30481.11
577.607	30993.11
577.811	30489.31
578.015	30698.2
578.219	30837.46
578.422	30995.15
578.626	30898.9
578.83	30554.84
579.034	31163.09
579.238	30917.33
579.442	30814.93
579.645	30706.39
579.849	31310.54
580.053	31673.03
580.257	31087.31
580.46	30782.16
580.664	31304.4
580.868	31064.78
581.071	31189.71
581.275	31062.74
581.479	31029.97
581.682	31804.1
581.886	30917.33
582.09	31449.8
582.293	31699.65
582.497	32006.85
582.7	31941.32
582.904	31439.56
583.107	31754.95
583.311	31791.81
583.515	31658.7
583.718	31728.33
583.922	31892.16
584.125	32410.3
584.329	31347.4
584.532	31589.06
584.735	32725.69
584.939	32047.81
585.142	32049.86
585.346	31761.09
585.549	32056
585.753	32213.7
585.956	32111.3
586.159	32242.37
586.363	32852.66
586.566	32830.13
586.769	32195.26
586.973	31910.6
587.176	32299.71
587.379	32627.38
587.582	32592.57
587.786	32580.28
587.989	33077.94
588.192	33471.15
588.395	32531.13
588.599	32623.29
588.802	33106.61
589.005	32989.88
589.208	32883.38
589.411	32723.64
589.615	33028.79
589.818	33704.62
590.021	33155.76
590.224	33016.5
590.427	33491.63
590.63	33563.31
590.833	32920.24
591.036	33200.82
591.239	33602.22
591.442	33180.34
591.645	33395.37
591.848	33813.16
592.051	33872.55
592.254	34132.64
592.457	33520.3
592.66	33378.99
592.863	33733.29
593.066	34093.73
593.269	33284.78
593.472	33929.89
593.675	34232.99
593.878	34071.2
594.081	33657.51
594.284	33929.89
594.486	34439.84
594.689	34529.95
594.892	33802.92
595.095	34433.69
595.298	34380.45
595.5	34566.81
595.703	34413.21
595.906	34087.59
596.109	34710.17
596.311	35043.99
596.514	33987.24
596.717	34327.2
596.92	35191.44
597.122	35031.7
597.325	34079.39
597.528	34351.77
597.73	35013.27
597.933	34720.41
598.136	34249.38
598.338	34370.21
598.541	34925.21
598.743	35740.3
598.946	34796.18
599.148	35125.91
599.351	35152.53
599.554	35547.79
599.756	35134.1
599.959	35007.12
600.161	35242.64
600.363	35680.91
600.566	35455.63
600.768	35058.32
600.971	35721.87
601.173	35537.55
601.376	34955.93
601.578	35242.64
601.78	35828.36
601.983	35734.15
602.185	35074.71
602.388	35459.73
602.59	35984.01
602.792	35408.53
602.995	35773.06
603.197	35627.66
603.399	36272.77
603.601	35607.18
603.804	35207.83
604.006	35390.09
604.208	35685
604.41	35443.34
604.613	35885.7
604.815	35289.74
605.017	36393.6
605.219	35512.97
605.421	35666.57
605.623	35627.66
605.826	36381.31
606.028	36201.09
606.23	35754.63
606.432	35394.19
606.634	36973.17
606.836	36459.13
607.038	35863.18
607.24	35791.5
607.442	36084.36
607.644	36340.35
607.846	36113.03
608.048	35756.68
608.25	36530.81
608.452	36358.78
608.654	36147.84
608.856	35723.91
609.058	36223.62
609.26	36301.44
609.462	35881.61
609.664	36086.4
609.866	36985.46
610.067	36704.89
610.269	36504.19
610.471	36317.82
610.673	36371.07
610.875	36856.44
611.077	35857.03
611.278	36117.12
611.48	36670.08
611.682	36854.39
611.884	36719.23
612.085	36186.75
612.287	36489.85
612.489	36862.58
612.69	36178.56
612.892	36319.87
613.094	36989.56
613.295	36778.62
613.497	36412.03
613.699	36489.85
613.9	37161.59
614.102	37053.05
614.304	36567.68
614.505	36014.73
614.707	36596.35
614.908	36655.74
615.11	36350.59
615.311	36565.63
615.513	36713.08
615.714	37055.09
615.916	36133.51
616.117	36899.45
616.319	36983.41
616.52	37040.76
616.722	36340.35
616.923	36545.15
617.124	37208.69
617.326	36967.03
617.527	36665.98
617.729	36311.68
617.93	37061.24
618.131	37464.69
618.333	36911.74
618.534	37194.36
618.735	36721.27
618.937	37253.75
619.138	36260.48
619.339	36747.9
619.54	36821.62
619.742	37321.33
619.943	36551.29
620.144	36606.59
620.345	37251.7
620.546	37272.18
620.748	36799.1
620.949	36911.74
621.15	36893.3
621.351	37370.48
621.552	36848.25
621.753	36874.87
621.954	36897.4
622.155	37679.72
622.356	36582.01
622.558	37180.02
622.759	37339.76
622.96	37497.45
623.161	36985.46
623.362	37059.19
623.563	37284.47
623.764	37046.9
623.965	37016.18
624.166	37839.47
624.366	37251.7
624.567	37458.54
624.768	36891.26
624.969	36721.27
625.17	37649
625.371	37671.53
625.572	37579.37
625.773	36811.38
625.973	37728.87
626.174	37415.54
626.375	37450.35
626.576	37460.59
626.777	37905
626.977	38120.04
627.178	37620.33
627.379	37581.42
627.58	37632.62
627.78	37476.97
627.981	37456.5
628.182	37741.16
628.382	38050.41
628.583	37210.74
628.784	37290.61
628.984	37456.5
629.185	37958.25
629.386	37622.38
629.586	37569.13
629.787	37499.5
629.987	38398.56
630.188	38124.13
630.388	37796.46
630.589	37778.03
630.79	38554.21
630.99	37970.54
631.191	37747.31
631.391	37976.68
631.591	37935.72
631.792	38392.42
631.992	38038.12
632.193	38130.28
632.393	38607.45
632.594	38001.25
632.794	37855.85
632.994	38236.77
633.195	38124.13
633.395	38500.96
633.595	37642.86
633.796	38558.3
633.996	37857.9
634.196	38597.21
634.397	38425.18
634.597	38195.81
634.797	38353.51
634.997	38525.53
635.198	38842.97
635.398	37812.84
635.598	38507.1
635.798	38496.86
635.998	38152.8
636.199	37778.03
636.399	38185.57
636.599	38298.21
636.799	38503.01
636.999	38394.46
637.199	38593.12
637.399	38955.61
637.599	38185.57
637.799	38115.94
637.999	38709.85
638.199	39443.02
638.399	38255.2
638.599	38109.8
638.799	39094.87
638.999	39336.53
639.199	38867.55
639.399	38425.18
639.599	39150.17
639.799	38265.44
639.999	38333.03
640.199	38150.76
640.399	38933.08
640.599	37606
640.799	39064.15
640.998	38959.7
641.198	39064.15
641.398	38683.23
641.598	38797.91
641.798	38797.91
641.997	40088.13
642.197	38761.05
642.397	38904.41
642.597	38787.67
642.796	39420.5
642.996	38945.37
643.196	39172.69
643.395	38883.93
643.595	39303.76
643.795	38754.91
643.994	38873.69
644.194	39019.1
644.394	39346.77
644.593	39107.16
644.793	39131.73
644.992	39371.35
645.192	39180.88
645.392	38951.51
645.591	39129.69
645.791	39383.63
645.99	39760.46
646.19	39746.12
646.389	38879.83
646.589	39187.03
646.788	39328.34
646.987	39244.37
647.187	39535.18
647.386	39649.87
647.586	39610.96
647.785	39901.77
647.984	39602.77
648.184	39725.64
648.383	39604.81
648.582	39311.95
648.782	39359.06
648.981	39467.6
649.18	39309.91
649.38	39762.51
649.579	39352.91
649.778	39483.98
649.977	40161.86
650.177	40149.57
650.376	39242.32
650.575	39287.38
650.774	39881.29
650.973	39721.55
651.173	39451.22
651.372	39768.65
651.571	39610.96
651.77	40008.26
651.969	39670.35
652.168	39762.51
652.367	39545.42
652.566	39893.58
652.765	40137.29
652.964	40118.85
653.163	40211.01
653.362	40133.19
653.561	39922.25
653.76	39885.39
653.959	39998.02
654.158	40399.43
654.357	40061.51
654.556	39426.64
654.755	40464.96
654.954	40372.8
655.153	39668.3
655.352	39965.26
655.551	40194.63
655.749	39985.74
655.948	39856.71
656.147	40184.39
656.346	40264.26
656.545	40522.3
656.743	39879.24
656.942	40178.25
657.141	40710.72
657.34	40555.07
657.538	40153.67
657.737	40092.23
657.936	40770.11
658.135	40245.83
658.333	40014.41
658.532	40499.78
658.731	40702.53
658.929	40221.25
659.128	40229.44
659.326	40147.53
659.525	40847.93
659.724	40280.64
659.922	39862.86
660.121	40176.2
660.319	40616.51
660.518	40006.22
660.716	40284.74
660.915	40075.85
661.113	40927.8
661.312	40184.39
661.51	40247.88
661.709	40239.68
661.907	40501.82
662.105	40735.29
662.304	40448.58
662.502	40667.71
662.701	40917.56
662.899	40266.31
663.097	40954.43
663.296	39979.59
663.494	41046.58
663.692	40622.65
663.891	40387.14
664.089	40235.59
664.287	40587.84
664.485	40286.79
664.684	40301.12
664.882	40610.37
665.08	40849.98
665.278	40698.43
665.476	40565.31
665.675	40604.22
665.873	40948.28
666.071	40819.26
666.269	40583.74
666.467	40524.35
666.665	40755.77
666.863	39977.54
667.061	40352.32
667.259	40106.57
667.457	40364.61
667.655	40829.5
667.853	40411.71
668.051	40327.75
668.249	39961.16
668.447	40581.7
668.645	40534.59
668.843	40768.06
669.041	40925.75
669.239	40264.26
669.437	40659.52
669.635	40831.55
669.833	40653.37
670.031	40135.24
670.229	40407.62
670.426	40634.94
670.624	40727.1
670.822	40264.26
671.02	40434.24
671.218	40409.67
671.415	39883.34
671.613	40135.24
671.811	40479.3
672.009	40610.37
672.206	40684.09
672.404	40507.97
672.602	40297.03
672.799	40323.65
672.997	40749.63
673.195	40538.69
673.392	40520.26
673.59	40219.2
673.788	40485.44
673.985	39498.32
674.183	40374.85
674.38	40557.12
674.578	40489.54
674.775	40327.75
674.973	39602.77
675.17	40387.14
675.368	40010.31
675.565	40200.77
675.763	40176.2
675.96	39856.71
676.158	40170.05
676.355	39866.95
676.553	40335.94
676.75	39797.32
676.947	40471.11
677.145	39995.98
677.342	40077.9
677.539	39711.31
677.737	40251.97
677.934	40546.88
678.131	39920.2
678.329	39916.11
678.526	40303.17
678.723	40428.1
678.92	40096.33
679.118	39641.68
679.315	39617.1
679.512	40297.03
679.709	40045.13
679.906	39819.85
680.104	40227.4
680.301	40217.16
680.498	39363.15
680.695	39469.65
680.892	39617.1
681.089	39529.04
681.286	39613.01
681.483	38976.09
681.68	40032.84
681.877	39914.06
682.075	39449.17
682.272	39682.64
682.469	39762.51
682.665	39551.57
682.862	39238.23
683.059	39365.2
683.256	40157.77
683.453	39674.45
683.65	39746.12
683.847	39330.39
684.044	39510.61
684.241	39205.46
684.438	39402.07
684.635	39193.17
684.831	39830.09
685.028	39856.71
685.225	39301.71
685.422	39254.61
685.619	39227.99
685.815	39297.62
686.012	39137.88
686.209	39121.49
686.405	39072.34
686.602	39463.5
686.799	39015
686.996	38926.94
687.192	38910.55
687.389	39617.1
687.586	38920.79
687.782	38904.41
687.979	39588.43
688.175	39555.66
688.372	38828.63
688.568	38646.36
688.765	39357.01
688.962	39643.73
689.158	38799.96
689.355	38802.01
689.551	39121.49
689.748	38806.11
689.944	39049.81
690.14	38990.42
690.337	39113.3
690.533	38871.64
690.73	38398.56
690.926	38892.12
691.123	38675.04
691.319	38689.37
691.515	38546.01
691.712	38492.77
691.908	39031.38
692.104	38605.41
692.301	38810.2
692.497	38339.17
692.693	39176.79
692.889	38820.44
693.086	38900.31
693.282	38095.46
693.478	38384.22
693.674	38808.15
693.87	38566.49
694.067	38429.28
694.263	38900.31
694.459	38519.39
694.655	38515.29
694.851	38527.58
695.047	38781.53
695.243	38476.38
695.439	38201.96
695.635	38228.58
695.831	38361.7
696.027	38449.76
696.224	38183.52
696.42	38646.36
696.615	38785.63
696.811	38429.28
697.007	37526.13
697.203	37976.68
697.399	38259.3
697.595	38398.56
697.791	37849.71
697.987	37950.06
698.183	38126.18
698.379	37808.75
698.575	37864.04
698.77	37780.07
698.966	38328.93
699.162	38500.96
699.358	37937.77
699.554	37800.55
699.749	38320.74
699.945	38320.74
700.141	37821.03
700.337	37911.14
700.532	37780.07
700.728	37710.44
700.924	37487.21
701.119	37556.85
701.315	37745.26
701.511	37704.3
701.706	37925.48
701.902	37393.01
702.097	37577.33
702.293	37782.12
702.489	37872.23
702.684	37403.25
702.88	38031.97
703.075	37620.33
703.271	37077.62
703.466	37440.11
703.662	37675.63
703.857	37900.9
704.053	37632.62
704.248	37374.58
704.443	37892.71
704.639	37476.97
704.834	37472.88
705.03	37306.99
705.225	37573.23
705.42	37722.73
705.616	37386.86
705.811	36516.48
706.006	37528.17
706.202	37493.36
706.397	36987.51
706.592	37139.06
706.787	37007.99
706.983	37306.99
707.178	37339.76
707.373	37020.28
707.568	37526.13
707.763	37657.2
707.959	37190.26
708.154	37061.24
708.349	36989.56
708.544	37360.24
708.739	37227.12
708.934	36954.74
709.129	37300.85
709.324	37042.81
709.519	37147.25
709.714	36870.78
709.909	37649
710.104	36993.65
710.299	36584.06
710.494	36790.91
710.689	37276.27
710.884	36946.55
711.079	37067.38
711.274	36575.87
711.469	37333.62
711.664	37311.09
711.859	36803.19
712.054	37182.07
712.249	36848.25
712.443	37137.01
712.638	36809.34
712.833	36473.47
713.028	36885.11
713.223	36653.69
713.417	36751.99
713.612	36448.89
713.807	37040.76
714.002	37206.64
714.196	36506.24
714.391	36237.95
714.586	36532.86
714.78	36762.23
714.975	36342.4
715.17	36276.87
715.364	36780.67
715.559	37085.81
715.754	36086.4
715.948	36475.52
716.143	36907.64
716.337	36217.47
716.532	36293.25
716.726	36283.01
716.921	36713.08
717.115	36956.79
717.31	35873.42
717.504	36539.01
717.699	36278.91
717.893	36338.3
718.088	35689.1
718.282	35697.29
718.476	36080.26
718.671	35959.43
718.865	35734.15
719.059	35484.3
719.254	35785.35
719.448	35920.52
719.642	36969.08
719.837	35162.77
720.031	35736.2
720.225	35816.07
720.419	35439.25
720.614	35273.36
720.808	35900.04
721.002	35750.54
721.196	35095.19
721.39	35406.48
721.585	35633.8
721.779	35474.06
721.973	35023.51
722.167	34720.41
722.361	35607.18
722.555	35902.09
722.749	35201.68
722.943	35240.59
723.137	34900.63
723.331	35388.05
723.525	34777.75
723.719	34921.11
723.913	35621.52
724.107	35598.99
724.301	34597.53
724.495	35113.62
724.689	35904.13
724.883	35429.01
725.077	34742.94
725.271	35267.22
725.465	35304.08
725.659	35136.15
725.853	35254.93
726.046	34671.26
726.24	34849.43
726.434	35256.98
726.628	34953.88
726.822	34632.35
727.015	35652.23
727.209	35064.47
727.403	34845.33
727.596	34632.35
727.79	35234.45
727.984	35259.02
728.177	35107.47
728.371	35396.24
728.565	35127.95
728.758	34962.07
728.952	34812.57
729.146	34812.57
729.339	35666.57
729.533	34747.03
729.726	34441.89
729.92	34355.87
730.113	35564.17
730.307	35000.98
730.5	34849.43
730.694	34763.42
730.887	34400.93
731.081	35132.05
731.274	34595.48
731.468	34626.2
731.661	35070.61
731.854	34679.45
732.048	34695.83
732.241	33962.66
732.435	34648.73
732.628	34867.86
732.821	34568.86
733.014	34908.82
733.208	34542.24
733.401	35125.91
733.594	34429.6
733.788	34407.07
733.981	34804.38
734.174	34900.63
734.367	34384.54
734.56	34638.49
734.754	35015.32
734.947	34865.81
735.14	34476.7
735.333	34835.1
735.526	34886.29
735.719	34456.22
735.912	34701.98
736.105	34312.86
736.298	34411.17
736.491	34245.28
736.684	34325.15
736.877	34157.22
737.07	34210.46
737.263	34925.21
737.456	34210.46
737.649	34099.87
737.842	34628.25
738.035	34790.04
738.228	34155.17
738.421	34624.15
738.614	34888.34
738.807	34464.41
739	33876.65
739.192	34042.53
739.385	34527.9
739.578	34706.07
739.771	34654.87
739.964	33761.96
740.156	34656.92
740.349	34452.12
740.542	34630.3
740.735	33802.92
740.927	34335.39
741.12	34030.24
741.313	34185.89
741.505	34349.73
741.698	33882.79
741.891	34290.34
742.083	34020
742.276	34300.58
742.468	34251.42
742.661	34124.45
742.854	34030.24
743.046	33735.34
743.239	34618.01
743.431	34470.56
743.624	33647.27
743.816	33596.07
744.009	34091.68
744.201	34468.51
744.393	34071.2
744.586	33800.87
744.778	34181.79
744.971	33991.33
745.163	33657.51
745.355	33665.7
745.548	33839.78
745.74	33655.47
745.932	33813.16
746.125	33673.9
746.317	34495.13
746.509	33620.65
746.702	33364.65
746.894	33788.58
747.086	33897.13
747.278	33804.97
747.471	33968.8
747.663	33553.07
747.855	33729.19
748.047	34038.44
748.239	33284.78
748.431	33399.47
748.623	34230.94
748.815	33680.04
749.008	33313.45
749.2	33319.6
749.392	33780.39
749.584	33415.85
749.776	33733.29
749.968	33266.35
750.16	33690.28
750.352	33266.35
750.544	33163.95
750.736	33227.44
750.928	33755.82
751.12	33192.62
751.311	32867
751.503	33149.62
751.695	33362.61
751.887	33305.26
752.079	32934.58
752.271	33006.26
752.463	33739.43
752.654	33176.24
752.846	32799.41
753.038	32559.8
753.23	32940.72
753.421	33436.33
753.613	32699.06
753.805	33401.52
753.997	32934.58
754.188	33106.61
754.38	32565.95
754.572	32598.71
754.763	32893.62
754.955	32713.4
755.146	32701.11
755.338	32492.22
755.53	32633.53
755.721	32488.12
755.913	32039.62
756.104	32068.29
756.296	32545.47
756.487	32676.54
756.679	31859.4
756.87	31847.11
757.062	32088.77
757.253	32393.92
757.445	31976.13
757.636	32103.1
757.827	32457.4
758.019	33018.55
758.21	31898.31
758.401	32301.76
758.593	32393.92
758.784	32322.24
758.975	31400.65
759.167	31625.93
759.358	31898.31
759.549	32414.4
759.74	31732.42
759.932	31603.4
760.123	31537.87
760.314	31834.82
760.505	31713.99
760.696	31429.32
760.888	32443.07
761.079	31744.71
761.27	31695.56
761.461	31140.56
761.652	31947.46
761.843	31374.03
762.034	31496.91
762.225	31331.02
762.416	31701.7
762.607	31146.7
762.798	31531.72
762.989	31410.89
763.18	32336.57
763.371	31423.18
763.562	30952.15
763.753	31179.47
763.944	31292.11
764.135	31412.94
764.326	31212.24
764.517	31185.61
764.708	31337.16
764.899	30978.77
765.089	30556.89
765.28	30440.15
765.471	31312.59
765.662	30792.4
765.853	30833.36
766.043	30124.77
766.234	30880.47
766.425	30876.37
766.615	30464.73
766.806	30393.05
766.997	30943.95
767.187	30542.55
767.378	30628.57
767.569	29915.87
767.759	30622.42
767.95	30597.85
768.141	30491.35
768.331	30118.62
768.522	30313.18
768.712	30720.73
768.903	30178.01
769.093	29762.28
769.284	30548.7
769.474	30507.74
769.665	29559.53
769.855	29895.39
770.046	30743.25
770.236	30028.51
770.426	30118.62
770.617	29958.88
770.807	29858.53
770.998	29962.98
771.188	29586.15
771.378	29606.63
771.569	30190.3
771.759	30008.03
771.949	29354.73
772.139	29448.94
772.33	29506.28
772.52	30118.62
772.71	29510.38
772.9	28941.04
773.09	30110.43
773.281	30108.38
773.471	29305.58
773.661	29473.51
773.851	29686.5
774.041	29534.95
774.231	28857.07
774.421	29254.38
774.611	29508.33
774.802	29201.13
774.992	28926.71
775.182	28685.04
775.372	28869.36
775.562	29186.8
775.752	29170.41
775.942	28711.67
776.131	29629.16
776.321	29043.44
776.511	28875.51
776.701	28769.01
776.891	28957.42
777.081	28506.87
777.271	28947.18
777.461	28627.7
777.651	28820.21
777.84	28920.56
778.03	28525.3
778.22	28281.6
778.41	29059.82
778.599	28605.17
778.789	28287.74
778.979	28402.43
779.169	28459.77
779.358	28394.23
779.548	28695.28
779.738	28240.64
779.927	28791.54
780.117	27978.5
780.307	27966.21
780.496	27796.23
780.686	28465.91
780.875	28926.71
781.065	27812.61
781.254	27603.72
781.444	28027.65
781.633	28076.8
781.823	27693.83
782.012	27507.46
782.202	28082.94
782.391	27822.85
782.581	27577.09
782.77	27904.77
782.96	28365.56
783.149	27650.82
783.338	27589.38
783.528	27411.21
783.717	28013.31
783.906	28228.35
784.096	27558.66
784.285	27329.29
784.474	27519.75
784.663	27581.19
784.853	26909.46
785.042	27153.16
785.231	27595.53
785.42	27591.43
785.61	27400.97
785.799	26837.78
785.988	27314.95
786.177	27020.05
786.366	27091.73
786.555	27292.43
786.744	27544.33
786.933	27482.89
787.122	26999.57
787.312	27056.91
787.501	26993.42
787.69	27390.73
787.879	26489.62
788.068	26675.99
788.257	26501.91
788.445	26923.79
788.634	26651.41
788.823	26581.78
789.012	27540.23
789.201	26968.85
789.39	26223.39
789.579	26526.49
789.768	26774.29
789.957	26678.04
790.145	26802.96
790.334	26518.29
790.523	26571.54
790.712	26766.1
790.9	26301.21
791.089	26481.43
791.278	26831.63
791.467	26522.39
791.655	26518.29
791.844	26620.69
792.033	26327.83
792.221	26444.57
792.41	26315.55
792.599	25563.94
792.787	26864.4
792.976	26606.36
793.164	25873.18
793.353	25951.01
793.541	26407.7
793.73	26530.58
793.918	25918.24
794.107	25756.45
794.295	26161.95
794.484	26006.3
794.672	25588.52
794.861	26071.84
795.049	26487.57
795.238	26272.54
795.426	25746.21
795.614	25654.05
795.803	26258.2
795.991	26227.48
796.179	25957.15
796.368	25516.84
796.556	26137.37
796.744	25492.26
796.932	25547.56
797.121	25391.91
797.309	25807.65
797.497	26100.51
797.685	25576.23
797.874	25289.51
798.062	25697.06
798.25	25985.82
798.438	25910.05
798.626	25488.17
798.814	25627.43
799.002	26059.55
799.19	25580.32
799.378	25338.66
799.566	26002.21
799.755	25588.52
799.943	25346.86
800.131	25107.24
800.318	25846.56
800.506	25592.61
800.694	25103.15
800.882	25113.39
801.07	25938.72
801.258	25664.29
801.446	25633.57
801.634	25162.54
801.822	25647.91
802.01	26120.99
802.197	25783.07
802.385	25674.53
802.573	25791.27
802.761	25191.21
802.949	25758.5
803.136	25262.89
803.324	25994.01
803.512	25553.7
803.699	25846.56
803.887	25412.39
804.075	26092.32
804.262	25590.56
804.45	25719.59
804.638	25555.75
804.825	25793.31
805.013	25586.47
805.201	25482.02
805.388	25795.36
805.576	26075.93
805.763	26327.83
805.951	25705.25
806.138	25916.19
806.326	26407.7
806.513	26000.16
806.701	25871.14
806.888	25656.1
807.075	25639.72
807.263	26207
807.45	25518.89
807.638	25752.35
807.825	26503.96
808.012	26133.28
808.2	25445.16
808.387	26047.26
808.574	26256.15
808.761	26422.04
808.949	26032.93
809.136	25602.85
809.323	26139.42
809.51	26315.55
809.698	26096.41
809.885	26063.64
810.072	26280.73
810.259	26336.02
810.446	26264.35
810.633	26026.78
810.82	26475.29
811.008	26792.72
811.195	26454.81
811.382	26352.41
811.569	26571.54
811.756	25991.97
811.943	26143.52
812.13	26102.56
812.317	25969.44
812.504	26053.41
812.691	26260.25
812.878	26051.36
813.064	26813.2
813.251	26518.29
813.438	25871.14
813.625	26053.41
813.812	26094.36
813.999	26405.66
814.186	25821.98
814.372	26065.69
814.559	26250.01
814.746	26301.21
814.933	26032.93
815.12	26143.52
815.306	25862.94
815.493	25987.87
815.68	26180.38
815.866	25828.13
816.053	26311.45
816.24	26327.83
816.426	26069.79
816.613	25905.95
816.799	26479.38
816.986	26198.81
817.173	25795.36
817.359	25850.66
817.546	26417.94
817.732	25623.33
817.919	25787.17
818.105	26256.15
818.292	25805.6
818.478	26137.37
818.665	26008.35
818.851	25828.13
819.037	26516.25
819.224	25817.89
819.41	25463.59
819.597	25375.53
819.783	26170.14
819.969	26239.77
820.156	25551.65
820.342	25551.65
820.528	26686.23
820.714	25799.46
820.901	26026.78
821.087	25312.04
821.273	26178.33
821.459	25670.43
821.646	25635.62
821.832	25627.43
822.018	25742.11
822.204	25563.94
822.39	25101.1
822.576	25086.76
822.762	25793.31
822.948	25613.09
823.134	25140.01
823.32	25277.22
823.507	25109.29
823.693	25289.51
823.879	25545.51
824.065	25133.87
824.25	25383.72
824.436	24965.93
824.622	24810.29
824.808	24972.08
824.994	25260.84
825.18	25088.81
825.366	24607.54
825.552	24810.29
825.738	24836.91
825.923	25148.2
826.109	24859.44
826.295	24376.12
826.481	24884.01
826.667	25047.85
826.852	25072.43
827.038	24726.32
827.224	25094.96
827.409	25424.68
827.595	24775.47
827.781	24599.35
827.966	25123.63
828.152	25070.38
828.338	24472.37
828.523	24382.26
828.709	24478.52
828.894	25008.94
829.08	24421.17
829.266	24015.68
829.451	24625.97
829.637	24851.25
829.822	24783.66
830.008	24021.82
830.193	24458.04
830.378	24800.05
830.564	24372.02
830.749	24017.72
830.935	24922.93
831.12	24396.6
831.305	24048.44
831.491	23935.81
831.676	23710.53
831.861	24275.77
832.047	23888.7
832.232	23831.36
832.417	23944
832.602	24007.48
832.788	23898.94
832.973	23567.17
833.158	23710.53
833.343	23763.78
833.528	23728.96
833.714	23556.93
833.899	23997.24
834.084	24474.42
834.269	23948.09
834.454	23229.26
834.639	23780.16
834.824	23593.79
835.009	23778.11
835.194	23563.08
835.379	23982.91
835.564	23737.15
835.749	23389
835.934	23333.7
836.119	23618.37
836.304	23366.47
836.489	23268.17
836.674	23114.57
836.859	22999.88
837.044	23837.5
837.228	23044.94
837.413	22836.05
837.598	23806.78
837.783	23470.92
837.968	23278.41
838.152	22975.31
838.337	22504.28
838.522	23315.27
838.707	23180.1
838.891	23202.63
839.076	23085.9
839.261	23241.54
839.445	22979.4
839.63	22887.25
839.815	23157.58
839.999	22983.5
840.184	22750.03
840.368	22520.66
840.553	23323.46
840.737	23006.03
840.922	22385.49
841.106	22451.03
841.291	22567.76
841.475	22725.46
841.66	22831.95
841.844	22283.09
842.029	23395.14
842.213	22420.31
842.397	22322.01
842.582	22008.67
842.766	22764.37
842.951	22723.41
843.135	22215.51
843.319	22518.61
843.504	22498.13
843.688	22682.45
843.872	21742.43
844.056	22158.17
844.241	22246.23
844.425	22070.11
844.609	22010.71
844.793	21928.8
844.977	22600.53
845.161	22061.91
845.346	21730.14
845.53	21844.83
845.714	22219.61
845.898	22149.98
846.082	21558.11
846.266	21478.24
846.45	21959.52
846.634	22063.96
846.818	21748.57
847.002	21711.71
847.186	22131.54
847.37	21443.43
847.554	21162.86
847.738	21353.32
847.922	22010.71
848.106	22023
848.29	21140.33
848.473	21470.05
848.657	22184.79
848.841	21834.59
849.025	21298.02
849.209	21039.98
849.392	21840.73
849.576	21459.81
849.76	20990.83
849.944	21439.33
850.127	21803.87
850.311	21295.97
850.495	20927.34
850.678	20861.8
850.862	21640.03
851.046	21664.61
851.229	21132.14
851.413	20812.65
851.596	21089.13
851.78	21531.49
851.964	21224.29
852.147	20857.71
852.331	21724
852.514	21351.27
852.698	20642.67
852.881	20624.24
853.065	20988.78
853.248	20759.41
853.431	21011.31
853.615	20892.52
853.798	21748.57
853.982	21066.6
854.165	20781.93
854.348	20333.43
854.532	20697.97
854.715	20697.97
854.898	20661.1
855.081	20181.88
855.265	20843.37
855.448	21203.82
855.631	20315
855.814	20052.86
855.997	20947.82
856.181	20329.33
856.364	20452.21
856.547	20013.95
856.73	20446.07
856.913	20364.15
857.096	20382.58
857.279	20165.49
857.462	20157.3
857.645	20689.77
857.828	20378.48
858.011	19985.27
858.194	20063.1
858.377	20339.57
858.56	19737.47
858.743	20161.4
858.926	20009.85
859.109	20142.97
859.292	19381.12
859.475	19559.3
859.658	20355.96
859.841	20116.34
860.023	19692.41
860.206	19397.51
860.389	20278.13
860.572	20202.36
860.755	19497.86
860.937	19676.03
861.12	19792.76
861.303	19772.28
861.486	19325.83
861.668	19354.5
861.851	19891.07
862.034	19727.23
862.216	19282.82
862.399	19026.82
862.581	19325.83
862.764	19530.62
862.947	19047.3
863.129	18926.47
863.312	18846.6
863.494	19639.17
863.677	19297.16
863.859	18815.88
864.042	19309.44
864.224	19362.69
864.406	18985.86
864.589	18502.54
864.771	19196.81
864.954	18506.64
865.136	18656.14
865.318	18328.47
865.501	19061.64
865.683	18238.36
865.865	18725.77
866.048	18508.69
866.23	18824.08
866.412	18924.43
866.594	18410.39
866.777	18412.43
866.959	18920.33
867.141	18535.31
867.323	18496.4
867.505	18733.96
867.687	18772.88
867.869	18754.44
868.052	18594.7
868.234	18224.02
868.416	18332.56
868.598	18862.99
868.78	17894.3
868.962	18117.53
869.144	18930.57
869.326	18488.21
869.508	18037.66
869.69	17814.43
869.872	18113.43
870.054	18633.61
870.236	18133.91
870.417	17965.98
870.599	18430.87
870.781	18891.66
870.963	18391.95
871.145	18097.05
871.327	18174.87
871.508	18389.91
871.69	17896.35
871.872	18109.33
872.054	18531.22
872.235	18127.77
872.417	17845.15
872.599	17769.37
872.78	18879.37
872.962	18457.49
873.144	17925.02
873.325	17920.92
873.507	18611.09
873.689	18162.58
873.87	17798.04
874.052	17935.26
874.233	17933.21
874.415	18328.47
874.596	18121.62
874.778	17746.84
874.959	18279.32
875.141	18447.25
875.322	18058.14
875.503	17875.87
875.685	18111.38
875.866	17939.35
876.048	17853.34
876.229	17793.95
876.41	17796
876.592	18328.47
876.773	17943.45
876.954	17626.01
877.136	18523.02
877.317	18289.56
877.498	17822.62
877.679	18074.52
877.86	18344.85
878.042	18494.35
878.223	17865.63
878.404	18373.52
878.585	18539.41
878.766	18559.89
878.947	18252.69
879.128	18281.36
879.309	18604.94
879.49	18619.28
879.672	18183.06
879.853	17906.59
880.034	18342.8
880.215	18400.15
880.396	18447.25
880.576	18465.68
880.757	18520.98
880.938	18693.01
881.119	18394
881.3	18295.7
881.481	18361.23
881.662	19534.72
881.843	18205.59
882.023	18363.28
882.204	18766.73
882.385	18733.96
882.566	18441.11
882.747	18658.19
882.927	18865.03
883.108	19094.41
883.289	18387.86
883.469	19020.68
883.65	18924.43
883.831	18850.7
884.011	18787.21
884.192	18693.01
884.373	19164.04
884.553	19209.09
884.734	19153.8
884.914	18830.22
885.095	19792.76
885.275	19282.82
885.456	19098.5
885.636	18555.79
885.817	19088.26
885.997	19127.17
886.178	18992.01
886.358	18963.34
886.538	19096.46
886.719	20173.69
886.899	18928.52
887.08	18961.29
887.26	19772.28
887.44	19078.02
887.621	18852.75
887.801	18928.52
887.981	20089.72
888.161	19864.44
888.342	19145.61
888.522	19102.6
888.702	19473.28
888.882	19678.08
889.062	19305.35
889.242	18998.15
889.423	19909.5
889.603	19592.06
889.783	19481.47
889.963	19094.41
890.143	19788.67
890.323	19850.11
890.503	19276.68
890.683	19241.86
890.863	19340.16
891.043	19397.51
891.223	19157.89
891.403	19628.93
891.583	19547.01
891.763	19497.86
891.943	19407.75
892.122	19415.94
892.302	19555.2
892.482	19729.28
892.662	19413.89
892.842	19329.92
893.022	19362.69
893.201	19432.32
893.381	19395.46
893.561	19489.67
893.741	19749.76
893.92	19764.09
894.1	19266.44
894.28	19383.17
894.459	19805.05
894.639	19778.43
894.819	19180.42
894.998	19248
895.178	19850.11
895.357	19618.69
895.537	19141.51
895.716	19121.03
895.896	19321.73
896.075	19825.53
896.255	19215.24
896.434	19024.78
896.614	20067.19
896.793	19774.33
896.973	19405.7
897.152	19374.98
897.331	19743.61
897.511	19760
897.69	19084.17
897.87	19479.43
898.049	19446.66
898.228	19372.93
898.407	19254.15
898.587	19161.99
898.766	19207.05
898.945	19610.5
899.124	19143.56
899.304	19184.52
899.483	19280.77
899.662	19622.78
899.841	18838.41
900.02	18776.97
900.199	19600.26
900.378	19157.89
900.557	18633.61
900.737	18717.58
900.916	19299.2
901.095	19143.56
901.274	18971.53
901.453	18725.77
901.632	18951.05
901.811	19000.2
901.989	18752.4
902.168	18549.65
902.347	19305.35
902.526	18924.43
902.705	18572.18
902.884	18578.32
903.063	19229.57
903.242	19256.2
903.42	18484.11
903.599	18570.13
903.778	18828.17
903.957	19256.2
904.135	18973.58
904.314	18172.82
904.493	18686.86
904.672	18600.85
904.85	18244.5
905.029	18424.72
905.207	18596.75
905.386	19454.85
905.565	18080.66
905.743	18178.97
905.922	18430.87
906.1	18314.13
906.279	17798.04
906.457	17896.35
906.636	18228.12
906.814	18408.34
906.993	17890.2
907.171	17806.23
907.35	18348.95
907.528	18262.93
907.707	18224.02
907.885	17787.8
908.063	18226.07
908.242	17744.8
908.42	17568.67
908.598	17341.35
908.777	18013.08
908.955	17791.9
909.133	17873.82
909.311	17251.24
909.49	17748.89
909.668	17658.78
909.846	17546.14
910.024	17132.45
910.202	17607.58
910.38	17886.11
910.559	17245.09
910.737	16954.28
910.915	17587.1
911.093	17583.01
911.271	17425.31
911.449	17550.24
911.627	17818.52
911.805	17888.15
911.983	17126.31
912.161	16968.62
912.339	17183.65
912.517	17513.38
912.695	17118.12
912.872	17109.93
913.05	17036.2
913.228	17101.73
913.406	16716.72
913.584	16677.8
913.762	16993.19
913.939	17042.34
914.117	16532.4
914.295	16516.01
914.473	16874.41
914.65	16769.96
914.828	16497.58
915.006	16509.87
915.184	16481.2
915.361	16634.8
915.539	16505.77
915.716	16384.94
915.894	16440.24
916.072	16853.93
916.249	16346.03
916.427	16141.24
916.604	16339.89
916.782	16454.58
916.959	16006.07
917.137	15784.89
917.314	16333.75
917.492	16544.69
917.669	15838.14
917.847	15762.36
918.024	16149.43
918.201	15895.48
918.379	15829.95
918.556	15836.09
918.733	16327.6
918.911	15950.78
919.088	15674.3
919.265	15578.04
919.442	15875
919.62	15606.72
919.797	15184.83
919.974	15201.22
920.151	15465.41
920.328	15326.14
920.506	15252.42
920.683	15453.12
920.86	14998.47
921.037	15041.48
921.214	15072.2
921.391	14881.74
921.568	15518.65
921.745	14816.2
921.922	14642.12
922.099	14494.67
922.276	15184.83
922.453	14900.17
922.63	14625.74
922.807	14791.62
922.984	14730.19
923.161	14433.23
923.338	14631.88
923.514	14269.39
923.691	14740.43
923.868	14875.59
924.045	14418.89
924.222	14009.3
924.399	14463.95
924.575	14681.03
924.752	14062.55
924.929	14406.61
925.105	14406.61
925.282	14021.59
925.459	13745.11
925.635	13759.45
925.812	13978.58
925.989	13757.4
926.165	13773.78
926.342	13444.06
926.518	13405.15
926.695	13827.03
926.871	13251.55
927.048	13300.7
927.224	13851.61
927.401	13556.7
927.577	13312.99
927.754	13132.77
927.93	13755.35
928.107	13333.47
928.283	13075.43
928.459	13222.88
928.636	13204.45
928.812	13179.87
928.988	12887.01
929.165	12690.41
929.341	12917.73
929.517	13100
929.693	12884.97
929.87	12475.37
930.046	12846.05
930.222	12553.2
930.398	12145.65
930.574	12243.95
930.751	12502
930.927	12381.17
931.103	12159.99
931.279	12121.07
931.455	12123.12
931.631	12182.51
931.807	11772.92
931.983	11842.55
932.159	11650.04
932.335	12059.63
932.511	11752.44
932.687	11686.9
932.863	11731.96
933.039	11658.23
933.215	11367.42
933.391	11158.53
933.566	11422.72
933.742	11359.23
933.918	10994.69
934.094	10890.24
934.27	11437.05
934.445	11271.17
934.621	11002.88
934.797	10507.27
934.973	10818.57
935.148	10560.52
935.324	10306.57
935.5	9950.23
935.675	10605.58
935.851	10232.85
936.027	9841.68
936.202	9716.76
936.378	10003.47
936.553	9712.66
936.729	9731.09
936.904	9344.03
937.08	9073.7
937.255	8938.53
937.431	8924.19
937.606	8735.78
937.782	8774.69
937.957	8420.39
938.133	8455.21
938.308	8000.56
938.483	8252.46
938.659	8012.85
938.834	8016.94
939.009	7668.79
939.185	7875.63
939.36	7406.65
939.535	6986.82
939.71	7560.25
939.886	7543.86
940.061	7560.25
940.236	7306.3
940.411	6937.66
940.586	7234.62
940.761	7177.28
940.937	6745.16
941.112	6435.91
941.287	6841.41
941.462	6698.05
941.637	6300.75
941.812	6569.03
941.987	6648.9
942.162	6399.05
942.337	6317.13
942.512	6206.54
942.687	6689.86
942.862	6464.58
943.037	5796.95
943.212	5665.88
943.386	6149.2
943.561	6337.61
943.736	6001.74
943.911	6349.9
944.086	6274.12
944.26	6175.82
944.435	5815.38
944.61	5848.15
944.785	6239.31
944.959	6452.3
945.134	5891.15
945.309	6005.84
945.483	5887.06
945.658	6364.23
945.833	5534.81
946.007	5782.61
946.182	6423.62
946.357	5690.45
946.531	5706.84
946.706	5770.32
946.88	5577.81
947.055	5960.78
947.229	5768.27
947.404	5618.77
947.578	6241.36
947.752	6091.85
947.927	5600.34
948.101	5536.85
948.276	6046.8
948.45	5823.57
948.624	5862.48
948.799	5506.13
948.973	6122.57
949.147	5669.97
949.321	5684.31
949.496	5729.36
949.67	6425.67
949.844	5796.95
950.018	5893.2
950.193	5807.19
950.367	6317.13
950.541	6050.89
950.715	5973.07
950.889	6005.84
951.063	5891.15
951.237	6159.44
951.411	5518.42
951.585	5604.44
951.759	6038.61
951.933	6052.94
952.107	5532.76
952.281	5870.67
952.455	6288.46
952.629	6188.11
952.803	5725.27
952.977	5620.82
953.151	6061.13
953.325	5954.64
953.499	5848.15
953.672	5622.87
953.846	5798.99
954.02	5817.43
954.194	5626.96
954.368	5626.96
954.541	6108.24
954.715	5626.96
954.889	5569.62
955.062	5528.66
955.236	5741.65
955.41	5753.94
955.583	5874.77
955.757	5479.51
955.93	5727.32
956.104	5649.49
956.278	5624.92
956.451	5715.03
956.625	5891.15
956.798	6206.54
956.972	5891.15
957.145	5375.06
957.319	5745.75
957.492	5682.26
957.665	5645.4
957.839	5586.01
958.012	5936.21
958.185	5565.53
958.359	5305.43
958.532	5653.59
958.705	5903.44
958.879	5874.77
959.052	5526.61
959.225	5094.49
959.398	5809.23
959.572	5682.26
959.745	5307.48
959.918	5561.43
960.091	5641.3
960.264	5835.86
960.438	5469.27
960.611	5289.05
960.784	5846.1
960.957	5411.93
961.13	5647.44
961.303	5215.32
961.476	5485.65
961.649	5616.72
961.822	5221.47
961.995	5309.53
962.168	5725.27
962.341	5596.25
962.514	5303.39
962.686	5293.15
962.859	5733.46
963.032	5608.53
963.205	5379.16
963.378	5080.16
963.551	5657.68
963.723	5557.33
963.896	5473.37
964.069	5133.4
964.242	5481.56
964.414	5577.81
964.587	5305.43
964.76	5344.35
964.932	5446.74
965.105	5362.78
965.278	5168.22
965.45	5090.4
965.623	5520.47
965.795	5545.05
965.968	5145.69
966.14	5186.65
966.313	5233.75
966.485	5399.64
966.658	5010.53
966.83	5031.01
967.003	5612.63
967.175	5655.64
967.348	5227.61
967.52	5102.68
967.692	5551.19
967.865	5418.07
968.037	5186.65
968.209	5579.86
968.382	5135.45
968.554	5403.74
968.726	5078.11
968.898	5080.16
969.071	5260.38
969.243	5448.79
969.415	4959.33
969.587	5100.64
969.759	5626.96
969.932	5424.22
970.104	5090.4
970.276	4709.47
970.448	4910.18
970.62	5160.03
970.792	4957.28
970.964	5031.01
971.136	5604.44
971.308	5194.84
971.48	4789.35
971.652	4818.02
971.824	5508.18
971.996	4940.9
972.168	5008.48
972.339	4887.65
972.511	5174.36
972.683	5086.3
972.855	5028.96
973.027	4840.54
973.199	5008.48
973.37	5207.13
973.542	4906.08
973.714	5012.57
973.886	4961.37
974.057	5137.5
974.229	4711.52
974.401	4668.52
974.572	4611.17
974.744	4504.68
974.915	4576.36
975.087	4551.78
975.259	5176.41
975.43	4850.78
975.602	4672.61
975.773	4664.42
975.945	4633.7
976.116	5180.51
976.288	4353.13
976.459	4736.1
976.63	4514.92
976.802	4840.54
976.973	4482.15
977.145	4715.62
977.316	5135.45
977.487	5196.89
977.659	4527.21
977.83	4553.83
978.001	5139.55
978.172	4750.43
978.344	4521.06
978.515	4543.59
978.686	4488.29
978.857	4936.8
979.028	4349.03
979.2	4275.31
979.371	4781.15
979.542	4619.36
979.713	4619.36
979.884	4193.39
980.055	4555.88
980.226	4758.63
980.397	4367.46
980.568	4150.38
980.739	4883.55
980.91	4408.42
981.081	4383.85
981.252	4265.07
981.423	4725.86
981.594	4686.95
981.765	4244.59
981.936	4357.22
982.106	4482.15
982.277	4750.43
982.448	4203.63
982.619	4377.7
982.79	4295.79
982.96	4734.05
983.131	4199.53
983.302	3961.97
983.472	4312.17
983.643	4463.72
983.814	4166.76
983.984	4203.63
984.155	4346.98
984.326	4543.59
984.496	4277.35
984.667	4084.84
984.837	4168.81
985.008	4629.6
985.178	4179.05
985.349	4138.09
985.519	4220.01
985.69	4166.76
985.86	4105.32
986.031	3904.62
986.201	4334.7
986.371	4422.76
986.542	3777.65
986.712	3736.69
986.882	4338.79
987.053	4293.74
987.223	3712.11
987.393	4158.57
987.563	4007.02
987.734	4398.18
987.904	4240.49
988.074	3925.1
988.244	4224.11
988.414	4060.27
988.585	3818.61
988.755	3955.82
988.925	4023.41
989.095	4539.49
989.265	3671.15
989.435	3841.14
989.605	4078.7
989.775	4170.86
989.945	4060.27
990.115	3615.86
990.285	3843.18
990.455	4125.8
990.625	3748.98
990.795	3589.24
990.965	4361.32
991.134	3703.92
991.304	3687.54
991.474	3599.48
991.644	4027.5
991.814	4152.43
991.984	3488.89
992.153	3538.04
992.323	3773.55
992.493	3925.1
992.662	3351.67
992.832	3658.87
993.002	3832.94
993.171	3937.39
993.341	3351.67
993.511	3855.47
993.68	3693.68
993.85	3961.97
994.019	3386.49
994.189	3544.18
994.358	3671.15
994.528	3568.76
994.697	3161.21
994.867	3425.4
995.036	3863.66
995.206	3601.52
995.375	3316.86
995.544	3437.69
995.714	3896.43
995.883	3490.93
996.052	3521.65
996.222	3103.87
996.391	4125.8
996.56	3636.34
996.73	3245.18
996.899	3089.53
997.068	3964.01
997.237	3632.24
997.406	3097.72
997.576	3122.3
997.745	3613.81
997.914	3478.65
998.083	3083.39
998.252	2989.18
998.421	3601.52
998.59	3343.48
998.759	3122.3
998.928	2923.65
999.097	3757.17
999.266	3429.49
999.435	3290.23
999.604	2937.98
999.773	3714.16
999.942	3363.96
1000.111	2937.98
1000.28	2837.63
1000.448	3165.31
1000.617	3007.61
1000.786	3034.24
1000.955	2864.25
1001.124	3474.55
1001.292	3865.71
1001.461	2866.3
1001.63	3144.83
1001.798	3665.01
1001.967	3562.61
1002.136	2774.14
1002.304	2954.37
1002.473	3384.44
1002.642	3286.14
1002.81	3030.14
1002.979	2849.92
1003.147	3378.3
1003.316	3857.52
1003.484	2923.65
1003.653	2839.68
1003.821	3431.54
1003.99	3142.78
1004.158	2802.82
1004.327	2851.97
1004.495	3271.8
1004.663	2860.16
1004.832	2899.07
1005	2618.5
1005.168	3191.93
1005.337	3146.87
1005.505	2614.4
1005.673	2913.41
1005.842	3171.45
1006.01	3181.69
1006.178	2507.91
1006.346	2716.8
1006.514	3081.34
1006.683	3392.63
1006.851	2679.94
1007.019	2567.3
1007.187	2718.85
1007.355	2618.5
1007.523	2503.81
1007.691	2528.39
1007.859	2700.42
1008.027	3189.88
1008.195	2612.35
1008.363	2495.62
1008.531	3075.2
1008.699	2770.05
1008.867	2442.37
1009.035	2577.54
1009.203	3122.3
1009.37	2825.34
1009.538	2391.17
1009.706	3009.66
1009.874	2811.01
1010.042	2819.2
1010.209	2335.88
1010.377	2335.88
1010.545	2956.41
1010.713	2690.18
1010.88	2485.38
1011.048	2503.81
1011.216	2704.51
1011.383	3015.8
1011.551	2401.41
1011.718	2258.06
1011.886	3024
1012.054	2638.98
1012.221	2251.91
1012.389	2284.68
1012.556	2655.36
1012.724	3255.42
1012.891	2413.7
1013.058	2045.07
1013.226	2907.26
1013.393	2755.71
1013.561	2096.27
1013.728	2106.51
1013.895	2798.72
1014.063	2784.38
1014.23	2090.12
1014.397	2073.74
1014.565	2741.38
1014.732	2475.14
1014.899	2145.42
1015.066	2112.65
1015.233	2538.63
1015.401	2514.05
1015.568	2256.01
1015.735	2239.62
1015.902	2389.13
1016.069	2532.48
1016.236	2083.98
1016.403	2010.25
1016.57	2213
1016.737	2688.13
1016.904	2104.46
1017.071	1942.67
1017.238	2262.15
1017.405	2561.16
1017.572	2108.55
1017.739	2186.38
1017.906	2458.76
1018.073	2528.39
1018.24	1805.46
1018.407	1959.05
1018.573	2624.64
1018.74	2350.21
1018.907	2075.79
1019.074	1819.79
1019.241	2499.72
1019.407	2284.68
1019.574	1946.76
1019.741	1864.85
1019.907	2382.98
1020.074	2339.97
1020.241	1686.67
1020.407	1635.47
1020.574	2319.5
1020.74	2335.88
1020.907	1924.24
1021.073	1586.32
1021.24	2737.28
1021.406	2516.1
1021.573	1731.73
1021.739	1873.04
1021.906	2405.51
1022.072	2081.93
1022.239	1770.64
1022.405	1762.45
1022.571	2172.04
1022.738	1981.58
1022.904	1733.78
1023.07	1815.69
1023.237	2055.31
1023.403	2389.13
1023.569	1791.12
1023.735	1717.39
1023.902	2118.79
1024.068	2174.09
1024.234	1633.43
1024.4	1590.42
1024.566	2153.61
1024.732	2229.38
1024.898	1641.62
1025.065	1449.11
1025.231	2198.67
1025.397	1877.13
1025.563	1635.47
1025.729	1520.79
1025.895	1463.44
1026.061	1762.45
1026.227	1369.24
1026.392	1498.26
1026.558	2176.14
1026.724	1981.58
1026.89	1506.45
1027.056	1641.62
1027.222	1983.63
1027.388	1709.2
1027.553	1395.86
1027.719	1422.48
1027.885	2163.85
1028.051	1899.66
1028.216	1336.47
1028.382	1574.03
1028.548	2026.64
1028.713	1733.78
1028.879	1342.61
1029.045	1584.27
1029.21	2145.42
1029.376	2034.83
1029.541	1508.5
1029.707	1418.39
1029.873	1881.23
1030.038	1901.71
1030.204	1281.18
1030.369	1483.92
1030.534	1967.24
1030.7	1735.82
1030.865	1391.77
1031.031	1307.8
1031.196	1797.26
1031.361	1815.69
1031.527	1336.47
1031.692	1254.55
1031.857	1289.37
1032.023	1832.08
1032.188	1260.7
1032.353	1201.3
1032.518	2024.59
1032.684	1698.96
1032.849	1078.43
1033.014	1320.09
1033.179	1672.34
1033.344	1754.26
1033.509	1313.94
1033.674	1217.69
1033.839	1721.49
1034.004	1762.45
1034.17	1332.37
1034.335	1105.05
1034.5	1518.74
1034.664	1381.53
1034.829	1055.9
1034.994	1191.06
1035.159	1594.51
1035.324	1660.05
1035.489	1053.85
1035.654	1131.67
1035.819	1881.23
1035.984	1621.14
1036.148	1135.77
1036.313	1103
1036.478	1784.98
1036.643	1537.17
1036.807	935.07
1036.972	980.12
1037.137	1832.08
1037.301	1473.68
1037.466	963.74
1037.631	1094.81
1037.795	1676.43
1037.96	1557.65
1038.124	1096.86
1038.289	885.92
1038.454	1647.76
1038.618	1596.56
1038.783	965.79
1038.947	1051.8
1039.111	1508.5
1039.276	1272.98
1039.44	939.16
1039.605	1535.12
1039.769	1270.94
1039.933	1344.66
1040.098	1031.32
1040.262	1223.83
1040.426	1580.18
1040.591	1614.99
1040.755	861.34
1040.919	947.36
1041.083	1385.62
1041.248	1320.09
1041.412	865.44
1041.576	810.14
1041.74	1246.36
1041.904	1438.87
1042.068	799.9
1042.232	941.21
1042.397	1483.92
1042.561	1275.03
1042.725	785.57
1042.889	1103
1043.053	1385.62
1043.217	1383.57
1043.381	1006.75
1043.544	717.98
1043.708	1537.17
1043.872	984.22
1044.036	697.5
1044.2	730.27
1044.364	1500.31
1044.528	1561.75
1044.691	4035.69
1044.855	689.31
1045.019	1436.82
1045.183	1346.71
1045.346	920.73
1045.51	699.55
1045.674	1264.79
1045.837	1356.95
1046.001	806.05
1046.165	816.29
1046.328	1645.71
1046.492	1336.47
1046.655	963.74
1046.819	814.24
1046.983	1070.23
1047.146	1277.08
1047.31	928.92
1047.473	552.1
1047.636	1115.29
1047.8	926.88
1047.963	799.9
1048.127	642.21
1048.29	885.92
