Data from Ink_Intensity_USB4F045381__26__00026.txt Node

Date: Mon Jul 17 09:45:28 EDT 2023
User: mmckonesweet
Spectrometer: USB4F04538
Trigger mode: 4
Integration Time (sec): 9.000000E-1
Scans to average: 1
Electric dark correction enabled: true
Nonlinearity correction enabled: false
Boxcar width: 0
XAxis mode: Wavelengths
Number of Pixels in Spectrum: 3648
>>>>>Begin Spectral Data<<<<<
345.52	-945.31
345.736	-945.31
345.952	-945.31
346.168	-898.2
346.384	-955.55
346.6	-132.26
346.816	-253.09
347.032	-210.09
347.248	248.66
347.464	-177.32
347.68	-132.26
347.896	113.49
348.112	469.84
348.328	-33.96
348.544	-132.26
348.76	-44.2
348.975	283.47
349.191	-208.04
349.407	-124.07
349.623	29.52
349.839	-103.59
350.055	-60.59
350.27	84.82
350.486	60.24
350.702	361.3
350.918	242.51
351.133	-58.54
351.349	105.3
351.565	267.09
351.781	-154.79
351.996	70.48
352.212	310.1
352.428	-150.7
352.644	-154.79
352.859	-175.27
353.075	340.82
353.291	-46.25
353.506	-64.68
353.722	-134.31
353.938	-117.93
354.153	379.73
354.369	121.68
354.584	-158.89
354.8	254.8
355.016	-277.67
355.231	-249
355.447	-46.25
355.662	64.34
355.878	887.62
356.093	-320.68
356.309	-62.63
356.524	-228.52
356.74	215.89
356.955	-183.46
357.171	-15.53
357.386	138.07
357.602	-257.19
357.817	-23.72
358.033	-173.22
358.248	318.29
358.464	211.79
358.679	-117.93
358.895	-298.15
359.11	-52.39
359.325	297.81
359.541	326.48
359.756	-1.19
359.972	-271.53
360.187	166.74
360.402	-169.13
360.618	-214.18
360.833	944.97
361.048	191.31
361.264	-72.87
361.479	-9.39
361.694	-70.83
361.909	138.07
362.125	-173.22
362.34	-103.59
362.555	275.28
362.77	-1.19
362.986	-273.57
363.201	-107.69
363.416	203.6
363.631	15.19
363.847	-173.22
364.062	-177.32
364.277	209.75
364.492	47.96
364.707	-97.45
364.922	-283.81
365.138	262.99
365.353	318.29
365.568	-275.62
365.783	-91.31
365.998	62.29
366.213	574.28
366.428	-107.69
366.643	-29.87
366.858	297.81
367.073	203.6
367.288	-83.11
367.503	-179.37
367.718	125.78
367.933	279.38
368.148	-341.16
368.363	-44.2
368.578	-72.87
368.793	414.54
369.008	-44.2
369.223	-267.43
369.438	144.21
369.653	473.93
369.868	-201.9
370.083	-165.03
370.298	19.29
370.513	322.38
370.728	54.1
370.943	-222.38
371.157	-177.32
371.372	545.61
371.587	-263.33
371.802	-160.94
372.017	7
372.232	426.83
372.446	7
372.661	-283.81
372.876	256.85
373.091	154.45
373.306	-38.06
373.52	-244.9
373.735	-226.47
373.95	451.41
374.165	-107.69
374.379	-87.21
374.594	-81.07
374.809	58.2
375.023	21.33
375.238	-124.07
375.453	232.27
375.667	-337.06
375.882	-99.5
376.097	-212.14
376.311	2.9
376.526	-25.77
376.741	-232.62
376.955	76.63
377.17	533.33
377.384	543.57
377.599	-160.94
377.813	-193.7
378.028	555.85
378.242	107.35
378.457	-27.82
378.672	-265.38
378.886	88.92
379.101	15.19
379.315	-259.24
379.53	-72.87
379.744	129.88
379.958	252.75
380.173	-181.42
380.387	-212.14
380.602	158.55
380.816	-109.74
381.031	-142.5
381.245	-36.01
381.459	217.94
381.674	2458.42
381.888	-197.8
382.103	76.63
382.317	-113.83
382.531	443.21
382.746	-115.88
382.96	-111.78
383.174	-181.42
383.388	457.55
383.603	105.3
383.817	-281.77
384.031	133.97
384.246	523.09
384.46	0.85
384.674	322.38
384.888	-13.48
385.103	29.52
385.317	-251.05
385.531	-81.07
385.745	322.38
385.959	355.15
386.174	-240.81
386.388	-193.7
386.602	-9.39
386.816	-212.14
387.03	7
387.244	-62.63
387.458	58.2
387.672	443.21
387.887	-275.62
388.101	-304.29
388.315	346.96
388.529	58.2
388.743	-191.66
388.957	-234.66
389.171	230.23
389.385	-160.94
389.599	-40.11
389.813	64.34
390.027	152.4
390.241	600.91
390.455	-99.5
390.669	-109.74
390.883	-89.26
391.097	410.45
391.311	15.19
391.525	-148.65
391.738	203.6
391.952	52.05
392.166	-1.19
392.38	-144.55
392.594	275.28
392.808	338.77
393.022	-62.63
393.236	-95.4
393.449	176.98
393.663	193.36
393.877	-222.38
394.091	-36.01
394.305	-52.39
394.518	-115.88
394.732	-261.29
394.946	-203.94
395.16	367.44
395.373	88.92
395.587	-205.99
395.801	-165.03
396.015	244.56
396.228	236.37
396.442	-261.29
396.656	-294.05
396.869	404.3
397.083	490.32
397.297	-40.11
397.51	-38.06
397.724	349.01
397.938	138.07
398.151	-285.86
398.365	-185.51
398.578	201.55
398.792	365.39
399.005	-36.01
399.219	-87.21
399.433	82.77
399.646	256.85
399.86	107.35
400.073	19.29
400.287	138.07
400.5	-17.58
400.714	-36.01
400.927	-72.87
401.141	232.27
401.354	1102.66
401.567	240.47
401.781	-255.14
401.994	224.08
402.208	514.89
402.421	-109.74
402.635	-66.73
402.848	56.15
403.061	324.43
403.275	-3.24
403.488	-214.18
403.701	467.79
403.915	224.08
404.128	62.29
404.341	-128.17
404.555	99.16
404.768	13.14
404.981	68.44
405.195	-167.08
405.408	527.18
405.621	291.66
405.834	76.63
406.048	-173.22
406.261	457.55
406.474	416.59
406.687	-179.37
406.9	64.34
407.114	39.76
407.327	129.88
407.54	-261.29
407.753	-179.37
407.966	-115.88
408.179	324.43
408.392	-193.7
408.605	-253.09
408.819	222.03
409.032	199.51
409.245	-228.52
409.458	64.34
409.671	269.14
409.884	222.03
410.097	-238.76
410.31	52.05
410.523	248.66
410.736	39.76
410.949	-5.29
411.162	-74.92
411.375	443.21
411.588	295.76
411.801	90.96
412.014	-136.36
412.227	84.82
412.44	-95.4
412.653	-134.31
412.865	47.96
413.078	269.14
413.291	156.5
413.504	4.95
413.717	-179.37
413.93	236.37
414.143	-99.5
414.356	-68.78
414.568	-275.62
414.781	238.42
414.994	162.64
415.207	-29.87
415.42	-19.63
415.632	328.53
415.845	449.36
416.058	-304.29
416.271	-154.79
416.483	80.72
416.696	494.41
416.909	-138.41
417.121	-156.84
417.334	211.79
417.547	568.14
417.759	-87.21
417.972	-136.36
418.185	-89.26
418.397	275.28
418.61	-126.12
418.823	-97.45
419.035	396.11
419.248	47.96
419.46	-38.06
419.673	2.9
419.885	314.19
420.098	15.19
420.311	-68.78
420.523	-335.01
420.736	232.27
420.948	117.59
421.161	-52.39
421.373	-330.92
421.586	101.2
421.798	-83.11
422.01	-281.77
422.223	-9.39
422.435	-9.39
422.648	267.09
422.86	-93.35
423.073	-60.59
423.285	359.25
423.497	-152.74
423.71	-113.83
423.922	-162.98
424.134	131.92
424.347	428.88
424.559	103.25
424.771	250.71
424.984	-44.2
425.196	144.21
425.408	-255.14
425.621	-156.84
425.833	369.49
426.045	416.59
426.257	-150.7
426.47	-138.41
426.682	168.79
426.894	164.69
427.106	-95.4
427.318	-58.54
427.531	45.91
427.743	326.48
427.955	-183.46
428.167	381.78
428.379	262.99
428.591	54.1
428.804	-13.48
429.016	-152.74
429.228	35.67
429.44	115.54
429.652	150.36
429.864	-208.04
430.076	-9.39
430.288	68.44
430.5	66.39
430.712	-1.19
430.924	357.2
431.136	47.96
431.348	-308.39
431.56	-107.69
431.772	133.97
431.984	-33.96
432.196	-81.07
432.408	-54.44
432.62	-23.72
432.832	222.03
433.044	179.03
433.256	41.81
433.468	209.75
433.679	-242.85
433.891	-134.31
434.103	78.68
434.315	416.59
434.527	265.04
434.739	52.05
434.95	-81.07
435.162	289.62
435.374	15.19
435.586	-52.39
435.798	-25.77
436.009	-142.5
436.221	7
436.433	-128.17
436.645	2.9
436.856	-29.87
437.068	406.35
437.28	-87.21
437.491	293.71
437.703	246.61
437.915	193.36
438.126	-119.98
438.338	213.84
438.55	52.05
438.761	244.56
438.973	13.14
439.184	-27.82
439.396	187.22
439.608	363.34
439.819	-162.98
440.031	-3.24
440.242	338.77
440.454	242.51
440.665	-70.83
440.877	23.38
441.088	265.04
441.3	56.15
441.511	-210.09
441.723	-138.41
441.934	131.92
442.146	52.05
442.357	84.82
442.569	201.55
442.78	86.87
442.991	590.67
443.203	314.19
443.414	-208.04
443.626	523.09
443.837	4.95
444.048	-25.77
444.26	-240.81
444.471	164.69
444.682	369.49
444.894	-242.85
445.105	-156.84
445.316	367.44
445.528	281.43
445.739	76.63
445.95	-36.01
446.161	140.12
446.373	367.44
446.584	-1.19
446.795	-17.58
447.006	357.2
447.217	574.28
447.429	-238.76
447.64	-160.94
447.851	422.73
448.062	181.07
448.273	-269.48
448.484	-64.68
448.695	234.32
448.907	95.06
449.118	29.52
449.329	201.55
449.54	-19.63
449.751	-93.35
449.962	-19.63
450.173	27.48
450.384	406.35
450.595	369.49
450.806	-103.59
451.017	-3.24
451.228	465.74
451.439	299.86
451.65	43.86
451.861	-230.57
452.072	-17.58
452.283	148.31
452.494	127.83
452.705	-5.29
452.915	480.08
453.126	213.84
453.337	-115.88
453.548	-54.44
453.759	420.69
453.97	602.96
454.181	117.59
454.391	-19.63
454.602	277.33
454.813	371.54
455.024	93.01
455.235	58.2
455.445	172.88
455.656	250.71
455.867	101.2
456.078	-70.83
456.288	97.11
456.499	189.27
456.71	-140.46
456.921	176.98
457.131	279.38
457.342	338.77
457.553	45.91
457.763	27.48
457.974	404.3
458.184	406.35
458.395	-54.44
458.606	-48.3
458.816	531.28
459.027	621.39
459.237	86.87
459.448	-179.37
459.659	564.04
459.869	758.6
460.08	-173.22
460.29	115.54
460.501	709.45
460.711	199.51
460.922	-128.17
461.132	33.62
461.343	854.86
461.553	-13.48
461.764	-42.15
461.974	115.54
462.184	461.65
462.395	359.25
462.605	72.53
462.816	-13.48
463.026	281.43
463.236	525.13
463.447	-29.87
463.657	27.48
463.867	400.21
464.078	242.51
464.288	170.83
464.498	56.15
464.709	279.38
464.919	224.08
465.129	72.53
465.339	39.76
465.55	328.53
465.76	432.97
465.97	103.25
466.18	19.29
466.391	496.46
466.601	402.26
466.811	199.51
467.021	13.14
467.231	422.73
467.441	576.33
467.651	101.2
467.862	-122.02
468.072	273.23
468.282	602.96
468.492	86.87
468.702	142.16
468.912	406.35
469.122	936.78
469.332	381.78
469.542	90.96
469.752	449.36
469.962	439.12
470.172	58.2
470.382	76.63
470.592	473.93
470.802	637.77
471.012	252.75
471.222	58.2
471.432	533.33
471.642	547.66
471.852	269.14
472.062	154.45
472.272	318.29
472.482	121.68
472.691	183.12
472.901	21.33
473.111	351.06
473.321	938.82
473.531	154.45
473.741	242.51
473.95	588.62
474.16	602.96
474.37	324.43
474.58	138.07
474.79	801.61
474.999	615.24
475.209	166.74
475.419	230.23
475.628	404.3
475.838	717.64
476.048	244.56
476.258	146.26
476.467	727.88
476.677	361.3
476.886	473.93
477.096	428.88
477.306	400.21
477.515	777.03
477.725	443.21
477.935	375.63
478.144	897.86
478.354	338.77
478.563	306
478.773	306
478.982	674.64
479.192	760.65
479.401	447.31
479.611	226.13
479.82	334.67
480.03	691.02
480.239	365.39
480.449	244.56
480.658	940.87
480.868	465.74
481.077	543.57
481.287	451.41
481.496	645.96
481.705	908.1
481.915	645.96
482.124	635.72
482.333	686.92
482.543	938.82
482.752	541.52
482.961	418.64
483.171	842.57
483.38	711.5
483.589	570.19
483.799	453.45
484.008	631.63
484.217	940.87
484.426	498.51
484.636	385.87
484.845	783.18
485.054	494.41
485.263	760.65
485.472	611.15
485.682	1121.09
485.891	766.79
486.1	330.58
486.309	494.41
486.518	916.3
486.727	992.07
486.936	412.5
487.146	691.02
487.355	1084.23
487.564	600.91
487.773	582.48
487.982	623.44
488.191	656.2
488.4	744.27
488.609	701.26
488.818	721.74
489.027	1401.66
489.236	1141.57
489.445	697.16
489.654	527.18
489.863	1073.99
490.072	1004.36
490.281	977.73
490.49	758.6
490.698	1262.4
490.907	1329.99
491.116	674.64
491.325	682.83
491.534	1223.49
491.743	1006.41
491.952	746.31
492.16	729.93
492.369	1035.08
492.578	1092.42
492.787	809.8
492.996	770.89
493.204	850.76
493.413	1450.82
493.622	516.94
493.831	631.63
494.039	1321.79
494.248	787.27
494.457	787.27
494.665	588.62
494.874	1190.72
495.083	1426.24
495.291	979.78
495.5	625.48
495.709	1266.5
495.917	1043.27
496.126	850.76
496.335	832.33
496.543	977.73
496.752	1184.58
496.96	1131.33
497.169	633.68
497.377	1098.56
497.586	1291.07
497.794	881.48
498.003	564.04
498.211	1020.74
498.42	1403.71
498.628	1012.55
498.837	764.75
499.045	1301.31
499.254	1186.63
499.462	846.66
499.671	783.18
499.879	1477.44
500.087	1409.86
500.296	916.3
500.504	887.62
500.713	1252.16
500.921	1678.14
501.129	889.67
501.338	969.54
501.546	1303.36
501.754	1305.41
501.962	944.97
502.171	861
502.379	1280.83
502.587	1565.5
502.795	1053.51
503.004	1061.7
503.212	1219.39
503.42	1497.92
503.628	971.59
503.837	1108.8
504.045	1377.09
504.253	1692.48
504.461	940.87
504.669	875.34
504.877	1504.06
505.085	1606.46
505.294	947.01
505.502	1311.55
505.71	1358.66
505.918	1483.58
506.126	1067.85
506.334	994.12
506.542	1303.36
506.75	1510.21
506.958	1160
507.166	1178.44
507.374	1307.46
507.582	1755.96
507.79	1164.1
507.998	1053.51
508.206	1372.99
508.414	1450.82
508.622	1145.67
508.83	1231.68
509.037	1753.91
509.245	1289.03
509.453	1100.61
509.661	1117
509.869	1618.75
510.077	1334.08
510.285	1393.47
510.492	971.59
510.7	1956.66
510.908	1313.6
511.116	1192.77
511.324	1155.91
511.531	1340.22
511.739	1403.71
511.947	1254.21
512.155	1473.34
512.362	1473.34
512.57	1291.07
512.778	1157.96
512.985	1071.94
513.193	1753.91
513.401	1919.8
513.608	1336.13
513.816	1151.81
514.024	1579.84
514.231	1694.52
514.439	1225.54
514.646	1233.73
514.854	1602.36
515.061	1694.52
515.269	1299.27
515.477	1336.13
515.684	1289.03
515.892	1829.69
516.099	1235.78
516.307	1205.06
516.514	1649.47
516.722	1880.89
516.929	1403.71
517.136	1239.87
517.344	1805.11
517.551	1647.42
517.759	1293.12
517.966	1428.29
518.173	1497.92
518.381	1506.11
518.588	1481.53
518.796	1258.31
519.003	1725.24
519.21	1590.08
519.418	1430.34
519.625	1667.9
519.832	1696.57
520.039	1809.21
520.247	1248.07
520.454	1418.05
520.661	1895.22
520.868	1712.96
521.076	1434.43
521.283	1481.53
521.49	2292.53
521.697	1882.94
521.904	1504.06
522.112	1514.3
522.319	1831.74
522.526	1827.64
522.733	1438.53
522.94	1491.77
523.147	1766.2
523.354	1897.27
523.561	1405.76
523.768	1626.94
523.975	2038.58
524.183	1745.72
524.39	1626.94
524.597	1499.97
524.804	1688.38
525.011	1534.78
525.218	1387.33
525.425	1563.45
525.632	1944.38
525.838	1592.13
526.045	1512.25
526.252	1485.63
526.459	2773.8
526.666	2515.76
526.873	1475.39
527.08	1661.76
527.287	2130.74
527.494	1956.66
527.701	1526.59
527.907	1563.45
528.114	2038.58
528.321	1874.74
528.528	1610.56
528.735	1669.95
528.941	1846.07
529.148	1653.56
529.355	1764.15
529.562	1557.31
529.768	2304.82
529.975	1796.92
530.182	1780.54
530.388	1760.06
530.595	2188.08
530.802	1786.68
531.008	1801.02
531.215	1839.93
531.422	2704.17
531.628	2679.6
531.835	1827.64
532.042	1798.97
532.248	1848.12
532.455	2016.05
532.661	1782.59
532.868	1819.45
533.074	2239.28
533.281	2294.58
533.487	1925.94
533.694	1669.95
533.9	1735.48
534.107	2181.94
534.313	1758.01
534.52	1741.63
534.726	2243.38
534.933	2558.77
535.139	1809.21
535.345	1620.8
535.552	2095.93
535.758	2108.21
535.965	1950.52
536.171	1846.07
536.377	2296.63
536.584	2509.62
536.79	1862.46
536.996	1944.38
537.203	2202.42
537.409	2132.79
537.615	1964.86
537.821	2091.83
538.028	2300.72
538.234	2282.29
538.44	1905.46
538.646	1977.14
538.853	2302.77
539.059	2200.37
539.265	2253.62
539.471	1686.33
539.677	2415.41
539.883	2116.41
540.09	2032.44
540.296	2458.42
540.502	2270
540.708	2057.01
540.914	2241.33
541.12	2067.25
541.326	2382.64
541.532	2274.1
541.738	2239.28
541.944	2231.09
542.15	2532.14
542.356	2247.48
542.562	2186.04
542.768	2071.35
542.974	2911.02
543.18	2827.05
543.386	2097.97
543.592	1921.85
543.798	2630.45
544.004	2706.22
544.21	2138.93
544.415	2179.89
544.621	2487.09
544.827	2720.56
545.033	2145.08
545.239	2462.51
545.445	2183.99
545.651	2470.7
545.856	2171.7
546.062	2224.95
546.268	2294.58
546.474	2460.46
546.679	2212.66
546.885	2300.72
547.091	2372.4
547.297	3025.7
547.502	2261.81
547.708	2116.41
547.914	2308.91
548.119	2710.32
548.325	2214.71
548.531	2116.41
548.736	2880.3
548.942	2347.83
549.147	2118.45
549.353	2458.42
549.559	2775.85
549.764	2624.3
549.97	2267.95
550.175	2294.58
550.381	2593.58
550.586	2296.63
550.792	2345.78
550.997	2396.98
551.203	2593.58
551.408	2714.41
551.614	2325.3
551.819	2229.04
552.025	3007.27
552.23	3300.13
552.435	2270
552.641	2591.53
552.846	2462.51
553.052	2882.35
553.257	2534.19
553.462	2290.48
553.668	2505.52
553.873	2876.2
554.078	2317.11
554.283	2341.68
554.489	2706.22
554.694	2761.52
554.899	2329.39
555.105	2571.05
555.31	2804.52
555.515	2872.11
555.72	2673.45
555.925	2466.61
556.131	2892.59
556.336	2573.1
556.541	2528.05
556.746	2372.4
556.951	3171.11
557.156	3154.73
557.361	2595.63
557.567	2794.28
557.772	3277.6
557.977	3029.8
558.182	2437.94
558.387	2446.13
558.592	2698.03
558.797	3054.37
559.002	2767.66
559.207	2763.56
559.412	2820.91
559.617	3377.95
559.822	2546.48
560.027	2505.52
560.232	2792.23
560.437	3056.42
560.642	2642.73
560.847	2718.51
561.051	2927.4
561.256	2911.02
561.461	2681.64
561.666	2564.91
561.871	2923.3
562.076	3148.58
562.281	2798.38
562.485	2450.22
562.69	3103.53
562.895	3158.82
563.1	2665.26
563.305	2652.97
563.509	3293.99
563.714	3435.3
563.919	2630.45
564.123	2603.82
564.328	2894.63
564.533	3181.35
564.737	2777.9
564.942	2804.52
565.147	3365.67
565.351	3468.06
565.556	2757.42
565.761	2845.48
565.965	3103.53
566.17	2908.97
566.374	2712.36
566.579	2620.21
566.784	2986.79
566.988	3001.13
567.193	2738.99
567.397	2720.56
567.602	2749.23
567.806	3025.7
568.011	2816.81
568.215	2829.1
568.42	2988.84
568.624	3091.24
568.828	2851.63
569.033	3048.23
569.237	3265.32
569.442	3302.18
569.646	2751.28
569.85	2886.44
570.055	3107.62
570.259	3248.93
570.463	3093.29
570.668	2990.89
570.872	3193.64
571.076	3095.33
571.281	3058.47
571.485	3050.28
571.689	3025.7
571.893	3283.75
572.098	3107.62
572.302	2894.63
572.506	3343.14
572.71	3222.31
572.914	3103.53
573.119	2982.7
573.323	3502.88
573.527	3466.02
573.731	3105.57
573.935	2945.83
574.139	3300.13
574.343	3097.38
574.547	3087.14
574.751	3146.53
574.955	3552.03
575.159	3425.06
575.364	2974.5
575.568	2892.59
575.772	3250.98
575.976	3509.02
576.18	2956.07
576.383	2972.46
576.587	3664.67
576.791	3533.6
576.995	2925.35
577.199	3033.9
577.403	3556.13
577.607	3676.96
577.811	3189.54
578.015	3134.25
578.219	3388.19
578.422	3703.58
578.626	3083.05
578.83	3326.75
579.034	3611.42
579.238	3578.65
579.442	3177.25
579.645	3443.49
579.849	3410.72
580.053	3523.36
580.257	3382.05
580.46	3224.36
580.664	3705.63
580.868	3685.15
581.071	3494.69
581.275	3293.99
581.479	3363.62
581.682	3570.46
581.886	3150.63
582.09	3392.29
582.293	3582.75
582.497	3762.97
582.7	3500.83
582.904	3263.27
583.107	3726.11
583.311	3361.57
583.515	3416.87
583.718	3420.96
583.922	3564.32
584.125	4051.74
584.329	3156.77
584.532	3414.82
584.735	3889.95
584.939	3619.61
585.142	3232.55
585.346	3330.85
585.549	3883.8
585.753	3443.49
585.956	3486.5
586.159	3619.61
586.363	4156.18
586.566	3754.78
586.769	3437.34
586.973	3453.73
587.176	3797.79
587.379	4000.54
587.582	3740.44
587.786	3482.4
587.989	3705.63
588.192	4375.31
588.395	3629.85
588.599	3838.75
588.802	3939.1
589.005	4041.5
589.208	3595.04
589.411	3590.94
589.615	4002.58
589.818	4213.53
590.021	3867.42
590.224	3728.16
590.427	3971.86
590.63	3965.72
590.833	3515.17
591.036	3506.98
591.239	3814.17
591.442	3730.2
591.645	3762.97
591.848	3615.52
592.051	3846.94
592.254	4057.88
592.457	3644.19
592.66	3584.8
592.863	3883.8
593.066	4109.08
593.269	3738.4
593.472	3771.16
593.675	3646.24
593.878	4162.33
594.081	3945.24
594.284	3756.83
594.486	4059.93
594.689	4031.26
594.892	3795.74
595.095	3697.44
595.298	4174.61
595.5	3951.39
595.703	3787.55
595.906	3924.76
596.109	4373.27
596.311	4307.73
596.514	3582.75
596.717	3785.5
596.92	4350.74
597.122	4111.13
597.325	3521.31
597.528	3820.32
597.73	4461.33
597.933	4143.89
598.136	3754.78
598.338	3750.68
598.541	4143.89
598.743	4506.38
598.946	3924.76
599.148	3926.81
599.351	4516.62
599.554	4346.64
599.756	3975.96
599.959	3984.15
600.161	4317.97
600.363	4799.24
600.566	4188.95
600.768	3947.29
600.971	4743.95
601.173	4352.79
601.376	3937.05
601.578	4131.61
601.78	4524.82
601.983	4705.04
602.185	3990.3
602.388	4178.71
602.59	4340.5
602.792	4152.09
602.995	4283.16
603.197	4051.74
603.399	4637.45
603.601	4279.06
603.804	3992.34
604.006	4133.65
604.208	4186.9
604.41	3785.5
604.613	4199.19
604.815	4121.37
605.017	4993.8
605.219	4064.02
605.421	4385.55
605.623	4047.64
605.826	4743.95
606.028	4557.58
606.23	4094.74
606.432	3971.86
606.634	4844.3
606.836	4576.02
607.038	4061.98
607.24	4260.63
607.442	4455.19
607.644	4467.47
607.846	4287.25
608.048	4039.45
608.25	4659.98
608.452	4131.61
608.654	4299.54
608.856	3846.94
609.058	4449.04
609.26	4614.93
609.462	4350.74
609.664	4246.29
609.866	4838.16
610.067	4707.09
610.269	4338.45
610.471	4180.76
610.673	4258.58
610.875	4627.21
611.077	4102.93
611.278	4258.58
611.48	4422.42
611.682	5001.99
611.884	4467.47
612.085	4420.37
612.287	4360.98
612.489	4457.23
612.69	4170.52
612.892	4342.55
613.094	4692.75
613.295	4539.15
613.497	4076.31
613.699	4254.48
613.9	5036.81
614.102	4623.12
614.304	4287.25
614.505	4160.28
614.707	4543.25
614.908	4614.93
615.11	4125.46
615.311	4432.66
615.513	4684.56
615.714	4774.67
615.916	4178.71
616.117	4403.99
616.319	4496.14
616.52	4758.28
616.722	4401.94
616.923	4356.88
617.124	4737.81
617.326	4651.79
617.527	4530.96
617.729	4502.29
617.93	4815.63
618.131	4809.48
618.333	4455.19
618.534	4440.85
618.735	4524.82
618.937	4965.13
619.138	4143.89
619.339	4330.26
619.54	4797.2
619.742	4563.73
619.943	4616.97
620.144	4395.79
620.345	4721.42
620.546	4918.03
620.748	4475.67
620.949	4508.43
621.15	4672.27
621.351	4571.92
621.552	4408.08
621.753	4260.63
621.954	4471.57
622.155	5192.45
622.356	4471.57
622.558	4651.79
622.759	4760.33
622.96	5079.82
623.161	4555.54
623.362	4434.71
623.563	4645.65
623.764	4737.81
623.965	4657.93
624.166	4735.76
624.366	4662.03
624.567	4743.95
624.768	4125.46
624.969	4535.06
625.17	4684.56
625.371	4844.3
625.572	4526.86
625.773	4467.47
625.973	5075.72
626.174	4813.58
626.375	4655.89
626.576	4659.98
626.777	4922.12
626.977	5307.14
627.178	4596.5
627.379	4676.37
627.58	4733.71
627.78	4819.72
627.981	4551.44
628.182	4688.65
628.382	4997.9
628.583	4625.17
628.784	4549.39
628.984	4723.47
629.185	5153.54
629.386	4961.03
629.586	4651.79
629.787	4565.78
629.987	5042.95
630.188	4819.72
630.388	4750.09
630.589	4731.66
630.79	5344
630.99	4875.02
631.191	4717.33
631.391	4905.74
631.591	5149.45
631.792	5266.18
631.992	4893.45
632.193	4762.38
632.393	5341.96
632.594	4983.56
632.794	4721.42
632.994	5014.28
633.195	5071.62
633.395	5022.47
633.595	4786.96
633.796	4985.61
633.996	4793.1
634.196	5366.53
634.397	4655.89
634.597	4913.93
634.797	4811.53
634.997	5151.49
635.198	4991.75
635.398	4608.78
635.598	5069.58
635.798	5344
635.998	5178.12
636.199	4664.08
636.399	5163.78
636.599	4934.41
636.799	4799.24
636.999	5096.2
637.199	5118.73
637.399	5374.72
637.599	4793.1
637.799	5026.57
637.999	4997.9
638.199	5495.55
638.399	4932.36
638.599	4989.71
638.799	5184.26
638.999	5782.27
639.199	4983.56
639.399	5090.06
639.599	5604.1
639.799	4870.92
639.999	4766.48
640.199	4838.16
640.399	5237.51
640.599	5143.3
640.799	4950.79
640.998	5069.58
641.198	5556.99
641.398	5280.52
641.598	5063.43
641.798	5045
641.997	6109.94
642.197	5036.81
642.397	5049.1
642.597	5096.2
642.796	5393.16
642.996	5612.29
643.196	5206.79
643.395	4961.03
643.595	5423.87
643.795	5018.38
643.994	4887.31
644.194	5053.19
644.394	5389.06
644.593	5327.62
644.793	4942.6
644.992	5151.49
645.192	5544.7
645.392	5014.28
645.591	5151.49
645.791	5112.58
645.99	5427.97
646.19	5262.09
646.389	5288.71
646.589	5243.65
646.788	5391.11
646.987	5643.01
647.187	5427.97
647.386	5460.74
647.586	5294.85
647.785	5538.56
647.984	5260.04
648.184	5315.33
648.383	5327.62
648.582	5243.65
648.782	5147.4
648.981	5147.4
649.18	5204.74
649.38	5565.18
649.579	5317.38
649.778	5229.32
649.977	5509.89
650.177	5585.66
650.376	5202.69
650.575	5159.69
650.774	5956.35
650.973	5266.18
651.173	5065.48
651.372	5352.2
651.571	5518.08
651.77	5718.78
651.969	5346.05
652.168	5546.75
652.367	5380.87
652.566	5626.62
652.765	5110.54
652.964	5556.99
653.163	5997.31
653.362	5499.65
653.561	5335.81
653.76	5286.66
653.959	5458.69
654.158	5681.92
654.357	5554.94
654.556	5171.97
654.755	5726.97
654.954	5640.96
655.153	5511.94
655.352	5516.03
655.551	5884.67
655.749	5325.57
655.948	5507.84
656.147	5505.79
656.346	5722.88
656.545	5675.77
656.743	5505.79
656.942	5346.05
657.141	5858.04
657.34	5505.79
657.538	5540.61
657.737	5278.47
657.936	5470.98
658.135	5755.65
658.333	5430.02
658.532	5372.68
658.731	6146.81
658.929	5921.53
659.128	5884.67
659.326	5346.05
659.525	6062.84
659.724	5694.21
659.922	5315.33
660.121	5387.01
660.319	5798.65
660.518	5520.13
660.716	5448.45
660.915	5481.22
661.113	5911.29
661.312	5417.73
661.51	5751.55
661.709	5384.96
661.907	5987.07
662.105	6302.45
662.304	5569.28
662.502	5587.71
662.701	5876.48
662.899	5745.41
663.097	5860.09
663.296	5423.87
663.494	5987.07
663.692	6091.51
663.891	5587.71
664.089	5534.46
664.287	5946.11
664.485	6042.36
664.684	5495.55
664.882	5716.73
665.08	5774.08
665.278	5911.29
665.476	5305.09
665.675	5985.02
665.873	6370.04
666.071	6118.14
666.269	5487.36
666.467	5655.3
666.665	5901.05
666.863	5808.89
667.061	5618.43
667.259	5501.7
667.457	5765.89
667.655	6003.45
667.853	5358.34
668.051	5556.99
668.249	5583.62
668.447	6023.93
668.645	5489.41
668.843	5804.8
669.041	5874.43
669.239	5747.45
669.437	5608.19
669.635	5815.04
669.833	5931.77
670.031	6036.22
670.229	5606.14
670.426	5554.94
670.624	5669.63
670.822	5679.87
671.02	5769.98
671.218	5753.6
671.415	5548.8
671.613	5937.91
671.811	5810.94
672.009	5747.45
672.206	5944.06
672.404	5856
672.602	5726.97
672.799	5817.08
672.997	5886.72
673.195	6046.46
673.392	5911.29
673.59	5352.2
673.788	6023.93
673.985	5466.88
674.183	5720.83
674.38	5698.3
674.578	6195.96
674.775	5673.73
674.973	5458.69
675.17	5700.35
675.368	6238.97
675.565	6099.7
675.763	5595.9
675.96	5538.56
676.158	6116.09
676.355	5933.82
676.553	5563.14
676.75	5810.94
676.947	5907.2
677.145	5784.32
677.342	5839.61
677.539	5554.94
677.737	5864.19
677.934	6546.16
678.131	5798.65
678.329	5550.85
678.526	6142.71
678.723	6028.03
678.92	5905.15
679.118	5634.82
679.315	5554.94
679.512	6191.86
679.709	5823.23
679.906	5665.53
680.104	6234.87
680.301	6038.27
680.498	5534.46
680.695	5579.52
680.892	5618.43
681.089	5569.28
681.286	5743.36
681.483	5415.68
681.68	6017.79
681.877	5882.62
682.075	5905.15
682.272	5919.48
682.469	5833.47
682.665	5763.84
682.862	5602.05
683.059	5331.72
683.256	6050.55
683.453	5804.8
683.65	5841.66
683.847	5593.86
684.044	5692.16
684.241	5538.56
684.438	5782.27
684.635	5530.37
684.831	6318.84
685.028	6206.2
685.225	5649.15
685.422	5681.92
685.619	5864.19
685.815	5792.51
686.012	5788.41
686.209	5649.15
686.405	5706.49
686.602	6259.45
686.799	5690.11
686.996	5655.3
687.192	5661.44
687.389	6118.14
687.586	5534.46
687.782	5876.48
687.979	6236.92
688.175	5942.01
688.372	5675.77
688.568	5597.95
688.765	5757.69
688.962	6253.3
689.158	5884.67
689.355	5528.32
689.551	6036.22
689.748	5790.46
689.944	5845.76
690.14	5507.84
690.337	6015.74
690.533	5776.13
690.73	5729.02
690.926	5657.34
691.123	5966.59
691.319	6066.94
691.515	5518.08
691.712	5858.04
691.908	6064.89
692.104	5980.92
692.301	5798.65
692.497	5511.94
692.693	6134.52
692.889	6159.1
693.086	5931.77
693.282	5597.95
693.478	5995.26
693.674	6363.89
693.87	5667.58
694.067	5563.14
694.263	5972.73
694.459	6036.22
694.655	5937.91
694.851	5696.25
695.047	6052.6
695.243	5970.68
695.439	5810.94
695.635	5571.33
695.831	6021.88
696.027	5970.68
696.224	5536.51
696.42	6017.79
696.615	6079.22
696.811	5972.73
697.007	5247.75
697.203	5643.01
697.399	5935.87
697.595	6138.62
697.791	5479.17
697.987	5858.04
698.183	5522.18
698.379	5733.12
698.575	5511.94
698.77	5561.09
698.966	6013.69
699.162	6077.18
699.358	5733.12
699.554	5600
699.749	6097.66
699.945	6400.76
700.141	5634.82
700.337	5712.64
700.532	5704.45
700.728	5819.13
700.924	5688.06
701.119	5444.35
701.315	5948.15
701.511	5657.34
701.706	5710.59
701.902	5579.52
702.097	5952.25
702.293	6001.4
702.489	5667.58
702.684	5632.77
702.88	5704.45
703.075	5706.49
703.271	5683.97
703.466	5501.7
703.662	5913.34
703.857	6081.27
704.053	5583.62
704.248	5624.58
704.443	6023.93
704.639	5880.57
704.834	5612.29
705.03	5587.71
705.225	5923.58
705.42	6038.27
705.616	5708.54
705.811	5575.42
706.006	5626.62
706.202	5794.56
706.397	5825.28
706.592	5657.34
706.787	5837.56
706.983	5929.72
707.178	5901.05
707.373	5704.45
707.568	5966.59
707.763	6173.43
707.959	5569.28
708.154	5604.1
708.349	5931.77
708.544	5892.86
708.739	5761.79
708.934	5460.74
709.129	5937.91
709.324	6052.6
709.519	5552.9
709.714	5604.1
709.909	6132.47
710.104	5860.09
710.299	5755.65
710.494	5745.41
710.689	6062.84
710.884	5823.23
711.079	5743.36
711.274	5765.89
711.469	5944.06
711.664	5890.81
711.859	5495.55
712.054	5735.17
712.249	5896.96
712.443	6087.42
712.638	5423.87
712.833	5397.25
713.028	5901.05
713.223	5851.9
713.417	5856
713.612	5548.8
713.807	5974.78
714.002	6382.32
714.196	5755.65
714.391	5583.62
714.586	5929.72
714.78	5870.33
714.975	5720.83
715.17	5528.32
715.364	5726.97
715.559	5989.11
715.754	5303.04
715.948	5608.19
716.143	6214.39
716.337	5759.74
716.532	5888.76
716.726	5665.53
716.921	6017.79
717.115	6320.88
717.31	5524.23
717.504	6071.03
717.699	5745.41
717.893	5958.39
718.088	5632.77
718.282	5477.12
718.476	5958.39
718.671	6052.6
718.865	5571.33
719.059	5595.9
719.254	5704.45
719.448	6030.07
719.642	6769.39
719.837	5280.52
720.031	5862.14
720.225	6109.94
720.419	5643.01
720.614	5440.26
720.808	5960.44
721.002	5698.3
721.196	5415.68
721.39	5532.42
721.585	6218.49
721.779	5843.71
721.973	5593.86
722.167	5268.23
722.361	5741.31
722.555	6040.31
722.749	5407.49
722.943	5696.25
723.137	5462.79
723.331	5712.64
723.525	5597.95
723.719	5612.29
723.913	5903.1
724.107	6023.93
724.301	5262.09
724.495	5440.26
724.689	6009.59
724.883	5997.31
725.077	5380.87
725.271	5415.68
725.465	6064.89
725.659	5765.89
725.853	5587.71
726.046	5600
726.24	5569.28
726.434	5989.11
726.628	5468.93
726.822	5585.66
727.015	5896.96
727.209	6073.08
727.403	5489.41
727.596	5432.07
727.79	5882.62
727.984	5851.9
728.177	5528.32
728.371	5546.75
728.565	6054.65
728.758	5487.36
728.952	5366.53
729.146	5573.38
729.339	5825.28
729.533	5647.1
729.726	5458.69
729.92	5356.29
730.113	5874.43
730.307	5767.93
730.5	5503.75
730.694	5458.69
730.887	5573.38
731.081	5612.29
731.274	5397.25
731.468	5473.03
731.661	5532.42
731.854	5665.53
732.048	5577.47
732.241	5444.35
732.435	5567.23
732.628	5718.78
732.821	5511.94
733.014	5509.89
733.208	5301
733.401	5741.31
733.594	5692.16
733.788	5442.31
733.981	6120.18
734.174	5706.49
734.367	5503.75
734.56	5686.01
734.754	5763.84
734.947	5634.82
735.14	5561.09
735.333	5649.15
735.526	5950.2
735.719	5438.21
735.912	5524.23
736.105	5464.83
736.298	5710.59
736.491	5587.71
736.684	5544.7
736.877	5456.64
737.07	5790.46
737.263	5921.53
737.456	5477.12
737.649	5335.81
737.842	5518.08
738.035	5753.6
738.228	5587.71
738.421	5628.67
738.614	5847.8
738.807	5901.05
739	5319.43
739.192	5479.17
739.385	5757.69
739.578	5968.63
739.771	5587.71
739.964	5495.55
740.156	5802.75
740.349	5843.71
740.542	5536.51
740.735	5194.5
740.927	5581.57
741.12	5524.23
741.313	5364.48
741.505	5542.66
741.698	5780.22
741.891	5659.39
742.083	5696.25
742.276	5495.55
742.468	5554.94
742.661	5532.42
742.854	5548.8
743.046	5483.27
743.239	5991.16
743.431	5712.64
743.624	5573.38
743.816	5413.63
744.009	5767.93
744.201	5761.79
744.393	5677.82
744.586	5380.87
744.778	6052.6
744.971	5626.62
745.163	5452.55
745.355	5530.37
745.548	5704.45
745.74	5536.51
745.932	5597.95
746.125	5536.51
746.317	6308.6
746.509	5812.99
746.702	5530.37
746.894	5597.95
747.086	5628.67
747.278	5972.73
747.471	5602.05
747.663	5528.32
747.855	5749.5
748.047	5905.15
748.239	5497.6
748.431	5305.09
748.623	6038.27
748.815	5849.85
749.008	5470.98
749.2	5311.24
749.392	5698.3
749.584	5747.45
749.776	5620.48
749.968	5513.99
750.16	6120.18
750.352	5640.96
750.544	5470.98
750.736	5401.35
750.928	5718.78
751.12	5636.86
751.311	5554.94
751.503	5456.64
751.695	5776.13
751.887	5612.29
752.079	5243.65
752.271	5466.88
752.463	6490.87
752.654	5901.05
752.846	5448.45
753.038	5413.63
753.23	5427.97
753.421	5759.74
753.613	5298.95
753.805	5659.39
753.997	5618.43
754.188	5784.32
754.38	5301
754.572	5423.87
754.763	5311.24
754.955	5565.18
755.146	5370.63
755.338	5540.61
755.53	5782.27
755.721	5483.27
755.913	5264.13
756.104	5290.76
756.296	5528.32
756.487	5610.24
756.679	5233.41
756.87	5262.09
757.062	5362.44
757.253	5595.9
757.445	5395.2
757.636	5679.87
757.827	5489.41
758.019	6023.93
758.21	5198.6
758.401	5268.23
758.593	5905.15
758.784	5937.91
758.975	5307.14
759.167	5171.97
759.358	5714.69
759.549	5837.56
759.74	5313.28
759.932	5235.46
760.123	5759.74
760.314	5382.92
760.505	5415.68
760.696	5229.32
760.888	5946.11
761.079	5364.48
761.27	5157.64
761.461	5114.63
761.652	5837.56
761.843	5421.83
762.034	5223.17
762.225	5554.94
762.416	5368.58
762.607	5384.96
762.798	5243.65
762.989	5427.97
763.18	6019.83
763.371	5286.66
763.562	5071.62
763.753	5335.81
763.944	5446.4
764.135	5604.1
764.326	5325.57
764.517	5276.42
764.708	5266.18
764.899	5487.36
765.089	5042.95
765.28	4983.56
765.471	5436.16
765.662	5196.55
765.853	5403.39
766.043	5106.44
766.234	5640.96
766.425	5540.61
766.615	5192.45
766.806	5106.44
766.997	5702.4
767.187	5301
767.378	5016.33
767.569	4930.31
767.759	5442.31
767.95	5444.35
768.141	5397.25
768.331	4862.73
768.522	5491.46
768.712	5462.79
768.903	5071.62
769.093	4913.93
769.284	5712.64
769.474	5309.19
769.665	4827.92
769.855	4684.56
770.046	5208.84
770.236	5176.07
770.426	5274.37
770.617	4918.03
770.807	5403.39
770.998	5083.91
771.188	5237.51
771.378	5090.06
771.569	5257.99
771.759	5270.28
771.949	4985.61
772.139	4657.93
772.33	5221.13
772.52	5733.12
772.71	4930.31
772.9	4934.41
773.09	5757.69
773.281	5608.19
773.471	4979.47
773.661	4864.78
773.851	5389.06
774.041	5122.82
774.231	4926.22
774.421	5055.24
774.611	5503.75
774.802	5225.22
774.992	5077.77
775.182	4848.4
775.372	5163.78
775.562	5274.37
775.752	4967.18
775.942	4944.65
776.131	5325.57
776.321	5294.85
776.511	4836.11
776.701	4932.36
776.891	5372.68
777.081	4868.88
777.271	4989.71
777.461	4709.13
777.651	5417.73
777.84	5149.45
778.03	4967.18
778.22	4944.65
778.41	5348.1
778.599	4823.82
778.789	4975.37
778.979	4903.69
779.169	5202.69
779.358	4973.32
779.548	5200.65
779.738	4571.92
779.927	5262.09
780.117	4752.14
780.307	4811.53
780.496	4674.32
780.686	4958.99
780.875	5366.53
781.065	4856.59
781.254	4754.19
781.444	5024.52
781.633	5001.99
781.823	4690.7
782.012	4698.89
782.202	4891.4
782.391	5014.28
782.581	4635.41
782.77	4799.24
782.96	5200.65
783.149	4936.46
783.338	4870.92
783.528	4385.55
783.717	5202.69
783.906	5221.13
784.096	4748.04
784.285	4614.93
784.474	4922.12
784.663	4782.86
784.853	4655.89
785.042	4766.48
785.231	4928.27
785.42	5126.92
785.61	4850.44
785.799	4567.82
785.988	4672.27
786.177	4950.79
786.366	4774.67
786.555	4918.03
786.744	4999.95
786.933	4846.35
787.122	4551.44
787.312	4446.99
787.501	4627.21
787.69	5026.57
787.879	4602.64
788.068	4561.68
788.257	4569.87
788.445	4766.48
788.634	4659.98
788.823	4522.77
789.012	5446.4
789.201	5266.18
789.39	4664.08
789.579	4541.2
789.768	4649.74
789.957	4795.15
790.145	4680.46
790.334	4348.69
790.523	4735.76
790.712	4649.74
790.9	4674.32
791.089	4338.45
791.278	5038.86
791.467	4854.54
791.655	4913.93
791.844	4823.82
792.033	4616.97
792.221	4625.17
792.41	4596.5
792.599	4391.7
792.787	4971.27
792.976	4875.02
793.164	4512.53
793.353	4553.49
793.541	4965.13
793.73	5010.18
793.918	4559.63
794.107	4578.06
794.295	4649.74
794.484	4674.32
794.672	4606.74
794.861	4401.94
795.049	4735.76
795.238	5159.69
795.426	4371.22
795.614	4569.87
795.803	4872.97
795.991	5157.64
796.179	4522.77
796.368	4545.3
796.556	4985.61
796.744	4578.06
796.932	4485.9
797.121	4334.36
797.309	4629.26
797.497	4852.49
797.685	4576.02
797.874	4594.45
798.062	4700.94
798.25	5010.18
798.438	4381.46
798.626	4346.64
798.814	4614.93
799.002	5188.36
799.19	4606.74
799.378	4500.24
799.566	4969.23
799.755	5274.37
799.943	4612.88
800.131	4490
800.318	4793.1
800.506	4686.61
800.694	4424.47
800.882	4578.06
801.07	4875.02
801.258	4594.45
801.446	4483.86
801.634	4512.53
801.822	4698.89
802.01	4692.75
802.197	4467.47
802.385	4651.79
802.573	4737.81
802.761	4451.09
802.949	4567.82
803.136	4211.48
803.324	4743.95
803.512	4743.95
803.699	4487.95
803.887	4317.97
804.075	5090.06
804.262	4576.02
804.45	4381.46
804.638	4608.78
804.825	4741.9
805.013	4639.5
805.201	4621.07
805.388	4410.13
805.576	4664.08
805.763	5151.49
805.951	4434.71
806.138	4664.08
806.326	5399.3
806.513	4834.06
806.701	4709.13
806.888	4549.39
807.075	4840.2
807.263	5241.61
807.45	4449.04
807.638	4670.22
807.825	5301
808.012	5139.21
808.2	4461.33
808.387	4729.61
808.574	4805.39
808.761	4997.9
808.949	4612.88
809.136	4604.69
809.323	4696.85
809.51	4789
809.698	4803.34
809.885	4717.33
810.072	4913.93
810.259	5014.28
810.446	4567.82
810.633	4580.11
810.82	5049.1
811.008	5241.61
811.195	4754.19
811.382	4637.45
811.569	4987.66
811.756	4512.53
811.943	4684.56
812.13	4545.3
812.317	4707.09
812.504	4766.48
812.691	4514.58
812.878	4770.57
813.064	5239.56
813.251	5001.99
813.438	4557.58
813.625	4743.95
813.812	4987.66
813.999	4717.33
814.186	4662.03
814.372	4700.94
814.559	4778.76
814.746	5253.89
814.933	4600.59
815.12	4770.57
815.306	4784.91
815.493	4737.81
815.68	4588.3
815.866	4682.51
816.053	5151.49
816.24	5296.9
816.426	4694.8
816.613	4623.12
816.799	5161.73
816.986	5182.21
817.173	4596.5
817.359	4610.83
817.546	4764.43
817.732	4680.46
817.919	4477.71
818.105	4930.31
818.292	4707.09
818.478	5102.34
818.665	4891.4
818.851	4565.78
819.037	5321.48
819.224	4752.14
819.41	4637.45
819.597	4643.6
819.783	5145.35
819.969	4899.59
820.156	4727.57
820.342	4662.03
820.528	5548.8
820.714	5139.21
820.901	4762.38
821.087	4649.74
821.273	5374.72
821.459	4969.23
821.646	4451.09
821.832	4588.3
822.018	4911.88
822.204	4932.36
822.39	4784.91
822.576	4397.84
822.762	5133.06
822.948	4979.47
823.134	4780.81
823.32	4596.5
823.507	4545.3
823.693	4975.37
823.879	4864.78
824.065	4752.14
824.25	4911.88
824.436	4514.58
824.622	4514.58
824.808	4635.41
824.994	4717.33
825.18	4649.74
825.366	4510.48
825.552	4696.85
825.738	4664.08
825.923	4907.79
826.109	4715.28
826.295	4608.78
826.481	4490
826.667	4733.71
826.852	4580.11
827.038	4440.85
827.224	4862.73
827.409	5188.36
827.595	4283.16
827.781	4653.84
827.966	5106.44
828.152	4901.64
828.338	4487.95
828.523	4418.32
828.709	4512.53
828.894	5047.05
829.08	4416.27
829.266	4424.47
829.451	4553.49
829.637	4711.18
829.822	4561.68
830.008	4524.82
830.193	4836.11
830.378	4801.29
830.564	4541.2
830.749	4365.07
830.935	4733.71
831.12	4805.39
831.305	4356.88
831.491	4487.95
831.676	4490
831.861	4875.02
832.047	4526.86
832.232	4266.77
832.417	4819.72
832.602	4520.72
832.788	4258.58
832.973	4156.18
833.158	4522.77
833.343	4610.83
833.528	4377.36
833.714	4309.78
833.899	4702.99
834.084	5028.62
834.269	4389.65
834.454	4356.88
834.639	4782.86
834.824	4584.21
835.009	4391.7
835.194	4475.67
835.379	4758.28
835.564	4897.55
835.749	4434.71
835.934	4152.09
836.119	4639.5
836.304	4545.3
836.489	4293.4
836.674	4580.11
836.859	4381.46
837.044	4823.82
837.228	4279.06
837.413	4289.3
837.598	4649.74
837.783	4746
837.968	4356.88
838.152	4070.17
838.337	4137.75
838.522	4698.89
838.707	4602.64
838.891	4432.66
839.076	4578.06
839.261	4692.75
839.445	4154.13
839.63	4221.72
839.815	4625.17
839.999	4510.48
840.184	4283.16
840.368	4152.09
840.553	4682.51
840.737	4635.41
840.922	4137.75
841.106	4176.66
841.291	4143.89
841.475	4385.55
841.66	4248.34
841.844	4303.64
842.029	5192.45
842.213	4070.17
842.397	4100.89
842.582	4080.41
842.766	4680.46
842.951	4590.35
843.135	4397.84
843.319	4270.87
843.504	4533.01
843.688	4565.78
843.872	4180.76
844.056	4225.81
844.241	4602.64
844.425	4272.92
844.609	4283.16
844.793	4006.68
844.977	4487.95
845.161	4414.23
845.346	4115.22
845.53	4068.12
845.714	4287.25
845.898	4629.26
846.082	3873.56
846.266	4066.07
846.45	4268.82
846.634	4360.98
846.818	4068.12
847.002	4217.62
847.186	4320.02
847.37	4006.68
847.554	3803.93
847.738	4195.09
847.922	4363.03
848.106	4373.27
848.29	4016.92
848.473	3980.06
848.657	4494.1
848.841	4154.13
849.025	4180.76
849.209	3910.43
849.392	4420.37
849.576	4180.76
849.76	3851.03
849.944	4180.76
850.127	4602.64
850.311	4096.79
850.495	3955.48
850.678	3920.67
850.862	4573.97
851.046	4627.21
851.229	4201.24
851.413	3873.56
851.596	4246.29
851.78	4180.76
851.964	4135.7
852.147	4041.5
852.331	4829.96
852.514	4496.14
852.698	3994.39
852.881	3822.36
853.065	4348.69
853.248	4096.79
853.431	3992.34
853.615	3883.8
853.798	4625.17
853.982	4264.72
854.165	4045.59
854.348	3867.42
854.532	3842.84
854.715	4133.65
854.898	3980.06
855.081	3879.71
855.265	4391.7
855.448	4344.6
855.631	3871.51
855.814	3844.89
855.997	4260.63
856.181	4021.02
856.364	3824.41
856.547	3828.51
856.73	3973.91
856.913	4025.11
857.096	3517.22
857.279	3926.81
857.462	3984.15
857.645	4377.36
857.828	3969.82
858.011	3951.39
858.194	3963.67
858.377	4180.76
858.56	3705.63
858.743	3808.03
858.926	3693.34
859.109	4078.36
859.292	3726.11
859.475	3644.19
859.658	4418.32
859.841	4268.82
860.023	3728.16
860.206	3627.81
860.389	4018.97
860.572	4246.29
860.755	3781.4
860.937	3803.93
861.12	3900.19
861.303	3865.37
861.486	3742.49
861.668	3787.55
861.851	4006.68
862.034	3955.48
862.216	3867.42
862.399	3468.06
862.581	4123.41
862.764	4266.77
862.947	3861.27
863.129	3683.1
863.312	3660.57
863.494	4217.62
863.677	3767.07
863.859	3574.56
864.042	4049.69
864.224	4264.72
864.406	3734.3
864.589	3488.54
864.771	3967.77
864.954	3693.34
865.136	3578.65
865.318	3308.32
865.501	4008.73
865.683	3545.89
865.865	3584.8
866.048	3750.68
866.23	3891.99
866.412	3902.23
866.594	3484.45
866.777	3611.42
866.959	3840.79
867.141	3486.5
867.323	3646.24
867.505	3627.81
867.687	3818.27
867.869	3830.55
868.052	3599.13
868.234	3461.92
868.416	3812.12
868.598	4094.74
868.78	3615.52
868.962	3535.65
869.144	3937.05
869.326	3851.03
869.508	3445.54
869.69	3441.44
869.872	3705.63
870.054	4010.78
870.236	3386.15
870.417	3418.91
870.599	3732.25
870.781	4121.37
870.963	3568.41
871.145	3400.48
871.327	3486.5
871.508	3961.62
871.69	3578.65
871.872	3580.7
872.054	3531.55
872.235	3916.57
872.417	3412.77
872.599	3359.52
872.78	4137.75
872.962	3795.74
873.144	3287.84
873.325	3504.93
873.507	3965.72
873.689	3738.4
873.87	3431.2
874.052	3652.38
874.233	3701.53
874.415	3943.19
874.596	3597.09
874.778	3396.39
874.959	3789.6
875.141	3910.43
875.322	3519.26
875.503	3404.58
875.685	3801.88
875.866	3312.42
876.048	3345.19
876.229	3380
876.41	3709.72
876.592	3748.64
876.773	3506.98
876.954	3334.95
877.136	4049.69
877.317	3676.96
877.498	3447.58
877.679	3560.22
877.86	3955.48
878.042	3728.16
878.223	3388.19
878.404	3773.21
878.585	3939.1
878.766	4195.09
878.947	3783.45
879.128	3713.82
879.309	3859.23
879.49	4051.74
879.672	3597.09
879.853	3664.67
880.034	3566.37
880.215	3617.57
880.396	3687.2
880.576	3549.98
880.757	3433.25
880.938	4059.93
881.119	3545.89
881.3	3547.94
881.481	3642.14
881.662	4610.83
881.843	3457.82
882.023	3466.02
882.204	3910.43
882.385	3828.51
882.566	3547.94
882.747	3515.17
882.927	3808.03
883.108	3959.58
883.289	3509.02
883.469	3803.93
883.65	3857.18
883.831	3943.19
884.011	3762.97
884.192	3660.57
884.373	4068.12
884.553	3951.39
884.734	3842.84
884.914	3975.96
885.095	4582.16
885.275	4328.21
885.456	4049.69
885.636	3558.18
885.817	3762.97
885.997	3824.41
886.178	3623.71
886.358	3580.7
886.538	3726.11
886.719	4789
886.899	3566.37
887.08	3787.55
887.26	4209.43
887.44	3781.4
887.621	3629.85
887.801	3818.27
887.981	4543.25
888.161	4213.53
888.342	3742.49
888.522	3814.17
888.702	4168.47
888.882	4342.55
889.062	3922.71
889.242	3549.98
889.423	4266.77
889.603	4051.74
889.783	3760.92
889.963	3709.72
890.143	4186.9
890.323	4346.64
890.503	3816.22
890.683	3748.64
890.863	4088.6
891.043	4104.98
891.223	4023.06
891.403	3885.85
891.583	4010.78
891.763	4012.82
891.943	3881.75
892.122	3717.92
892.302	4051.74
892.482	4096.79
892.662	3930.91
892.842	3922.71
893.022	4184.85
893.201	3885.85
893.381	4035.35
893.561	3711.77
893.741	4227.86
893.92	4176.66
894.1	3885.85
894.28	3867.42
894.459	4133.65
894.639	4121.37
894.819	3812.12
894.998	3959.58
895.178	4068.12
895.357	4256.53
895.537	3693.34
895.716	3730.2
895.896	4004.63
896.075	4356.88
896.255	3891.99
896.434	3576.61
896.614	4160.28
896.793	4496.14
896.973	4074.26
897.152	3959.58
897.331	4160.28
897.511	4295.44
897.69	3580.7
897.87	3998.49
898.049	4322.07
898.228	3990.3
898.407	4016.92
898.587	4002.58
898.766	3945.24
898.945	4332.31
899.124	4004.63
899.304	3902.23
899.483	4113.17
899.662	4547.34
899.841	3816.22
900.02	3937.05
900.199	4412.18
900.378	4059.93
900.557	3779.36
900.737	3588.89
900.916	4074.26
901.095	4139.8
901.274	3957.53
901.453	3640.09
901.632	3697.44
901.811	3814.17
901.989	3636
902.168	3656.48
902.347	4094.74
902.526	3771.16
902.705	3519.26
902.884	3808.03
903.063	4117.27
903.242	4186.9
903.42	3617.57
903.599	3715.87
903.778	4207.38
903.957	4131.61
904.135	3846.94
904.314	3822.36
904.493	4051.74
904.672	3947.29
904.85	3713.82
905.029	3582.75
905.207	4076.31
905.386	4672.27
905.565	3468.06
905.743	3797.79
905.922	3722.01
906.1	3961.62
906.279	3697.44
906.457	3463.97
906.636	3732.25
906.814	3709.72
906.993	3793.69
907.171	3576.61
907.35	4113.17
907.528	4045.59
907.707	3971.86
907.885	3529.5
908.063	4186.9
908.242	3599.13
908.42	3552.03
908.598	3328.8
908.777	3924.76
908.955	3545.89
909.133	3595.04
909.311	3330.85
909.49	3707.68
909.668	3808.03
909.846	3689.25
910.024	3267.36
910.202	3846.94
910.38	3871.51
910.559	3490.59
910.737	3443.49
910.915	3824.41
911.093	3648.29
911.271	3447.58
911.449	3808.03
911.627	3967.77
911.805	4039.45
911.983	3443.49
912.161	3492.64
912.339	3656.48
912.517	3914.52
912.695	3451.68
912.872	3484.45
913.05	3455.78
913.228	3730.2
913.406	3328.8
913.584	3343.14
913.762	3758.88
913.939	3531.55
914.117	3509.02
914.295	3314.47
914.473	3726.11
914.65	3668.77
914.828	3336.99
915.006	3261.22
915.184	3351.33
915.361	3644.19
915.539	3447.58
915.716	3441.44
915.894	3615.52
916.072	3552.03
916.249	3402.53
916.427	3334.95
916.604	3339.04
916.782	3541.79
916.959	3154.73
917.137	3343.14
917.314	3590.94
917.492	3609.37
917.669	3386.15
917.847	3310.37
918.024	3558.18
918.201	3308.32
918.379	3242.79
918.556	3353.38
918.733	3519.26
918.911	3298.08
919.088	3394.34
919.265	3042.09
919.442	3365.67
919.62	3207.97
919.797	2994.98
919.974	3029.8
920.151	3357.47
920.328	3183.4
920.506	3136.29
920.683	3279.65
920.86	3037.99
921.037	3044.13
921.214	3275.56
921.391	3085.09
921.568	3388.19
921.745	2988.84
921.922	3027.75
922.099	2906.92
922.276	3517.22
922.453	3275.56
922.63	3035.94
922.807	3124.01
922.984	3250.98
923.161	3115.81
923.338	2970.41
923.514	2863.91
923.691	3134.25
923.868	3287.84
924.045	2894.63
924.222	2898.73
924.399	3113.77
924.575	3353.38
924.752	2872.11
924.929	2906.92
925.105	3177.25
925.282	2730.8
925.459	2892.59
925.635	2882.35
925.812	2962.22
925.989	2845.48
926.165	2927.4
926.342	2562.86
926.518	2784.04
926.695	3013.42
926.871	2747.18
927.048	2646.83
927.224	3113.77
927.401	2876.2
927.577	2812.71
927.754	2493.23
927.93	3037.99
928.107	2980.65
928.283	2558.77
928.459	2716.46
928.636	2841.39
928.812	2722.6
928.988	2609.97
929.165	2536.24
929.341	2759.47
929.517	2882.35
929.693	2671.4
929.87	2333.49
930.046	2949.93
930.222	2540.33
930.398	2423.6
930.574	2612.01
930.751	2792.23
930.927	2661.16
931.103	2503.47
931.279	2526
931.455	2380.59
931.631	2661.16
931.807	2284.34
931.983	2290.48
932.159	2304.82
932.335	2706.22
932.511	2437.94
932.687	2482.99
932.863	2642.73
933.039	2530.09
933.215	2243.38
933.391	2122.55
933.566	2579.25
933.742	2542.38
933.918	2351.92
934.094	2124.6
934.27	2464.56
934.445	2554.67
934.621	2392.88
934.797	2145.08
934.973	2630.45
935.148	2548.53
935.324	2192.18
935.5	1940.28
935.675	2603.82
935.851	2218.8
936.027	1999.67
936.202	2077.49
936.378	2188.08
936.553	2177.84
936.729	2310.96
936.904	1764.15
937.08	1811.26
937.255	1866.55
937.431	1723.2
937.606	1678.14
937.782	1942.33
937.957	1930.04
938.133	1674.04
938.308	1735.48
938.483	1809.21
938.659	1647.42
938.834	1772.35
939.009	1628.99
939.185	1723.2
939.36	1555.26
939.535	1299.27
939.71	1569.6
939.886	1930.04
940.061	1805.11
940.236	1637.18
940.411	1450.82
940.586	1805.11
940.761	1760.06
940.937	1354.56
941.112	1278.79
941.287	1620.8
941.462	1577.79
941.637	1166.15
941.812	1356.61
941.987	1575.74
942.162	1553.21
942.337	1307.46
942.512	1375.04
942.687	1575.74
942.862	1604.41
943.037	1200.96
943.212	904.01
943.386	1399.62
943.561	1405.76
943.736	1434.43
943.911	1573.69
944.086	1518.4
944.26	1456.96
944.435	1270.59
944.61	1264.45
944.785	1737.53
944.959	1837.88
945.134	1276.74
945.309	1010.5
945.483	1264.45
945.658	1723.2
945.833	897.86
946.007	1104.71
946.182	1702.72
946.357	1119.04
946.531	1080.13
946.706	1082.18
946.88	965.45
947.055	1393.47
947.229	1147.72
947.404	1049.41
947.578	1536.83
947.752	1203.01
947.927	1041.22
948.101	1037.13
948.276	1262.4
948.45	1485.63
948.624	1307.46
948.799	1155.91
948.973	1434.43
949.147	998.21
949.321	1131.33
949.496	1082.18
949.67	1555.26
949.844	1276.74
950.018	1227.59
950.193	1219.39
950.367	1831.74
950.541	1256.26
950.715	1329.99
950.889	1346.37
951.063	1231.68
951.237	1598.27
951.411	895.82
951.585	1080.13
951.759	1485.63
951.933	1307.46
952.107	1157.96
952.281	1297.22
952.455	1743.67
952.629	1596.22
952.803	1196.87
952.977	1000.26
953.151	1497.92
953.325	1440.58
953.499	1274.69
953.672	983.88
953.846	1080.13
954.02	1207.11
954.194	1073.99
954.368	1030.98
954.541	1452.86
954.715	1186.63
954.889	1278.79
955.062	1061.7
955.236	1252.16
955.41	1278.79
955.583	1276.74
955.757	983.88
955.93	1153.86
956.104	1090.37
956.278	1174.34
956.451	1248.07
956.625	1465.15
956.798	1745.72
956.972	1360.7
957.145	1018.69
957.319	1278.79
957.492	1237.83
957.665	1342.27
957.839	1133.38
958.012	1383.23
958.185	1137.48
958.359	1123.14
958.532	1336.13
958.705	1428.29
958.879	1428.29
959.052	1188.68
959.225	961.35
959.398	1231.68
959.572	1180.48
959.745	1084.23
959.918	1127.24
960.091	1207.11
960.264	1440.58
960.438	1028.93
960.611	994.12
960.784	1432.38
960.957	1174.34
961.13	1411.9
961.303	918.34
961.476	1260.35
961.649	1395.52
961.822	873.29
961.995	1141.57
962.168	1334.08
962.341	1334.08
962.514	1117
962.686	1096.52
962.859	1246.02
963.032	1377.09
963.205	1022.79
963.378	932.68
963.551	1475.39
963.723	1268.55
963.896	1176.39
964.069	1200.96
964.242	1379.14
964.414	1348.42
964.587	1233.73
964.76	1139.52
964.932	1375.04
965.105	1055.56
965.278	1073.99
965.45	1024.84
965.623	1291.07
965.795	1368.9
965.968	1071.94
966.14	1049.41
966.313	1233.73
966.485	1403.71
966.658	1117
966.83	1020.74
967.003	1542.97
967.175	1370.94
967.348	996.17
967.52	967.49
967.692	1567.55
967.865	1256.26
968.037	1026.89
968.209	1342.27
968.382	1174.34
968.554	1448.77
968.726	1063.75
968.898	912.2
969.071	1301.31
969.243	1432.38
969.415	1022.79
969.587	1104.71
969.759	1755.96
969.932	1375.04
970.104	985.93
970.276	768.84
970.448	1100.61
970.62	1114.95
970.792	1110.85
970.964	1000.26
971.136	1610.56
971.308	1317.7
971.48	967.49
971.652	955.21
971.824	1479.49
971.996	1078.08
972.168	1123.14
972.339	1166.15
972.511	1440.58
972.683	1141.57
972.855	1334.08
973.027	1010.5
973.199	1184.58
973.37	1174.34
973.542	965.45
973.714	1065.8
973.886	1268.55
974.057	1372.99
974.229	869.19
974.401	936.78
974.572	947.01
974.744	793.42
974.915	932.68
975.087	832.33
975.259	1465.15
975.43	1004.36
975.602	959.3
975.773	883.53
975.945	938.82
976.116	1227.59
976.288	836.42
976.459	1035.08
976.63	1106.76
976.802	1305.41
976.973	842.57
977.145	996.17
977.316	1577.79
977.487	1354.56
977.659	1022.79
977.83	930.63
978.001	1522.49
978.172	1131.33
978.344	899.91
978.515	985.93
978.686	940.87
978.857	1456.96
979.028	969.54
979.2	846.66
979.371	1235.78
979.542	1051.46
979.713	1143.62
979.884	580.43
980.055	912.2
980.226	994.12
980.397	848.71
980.568	777.03
980.739	1409.86
980.91	1033.03
981.081	1106.76
981.252	844.62
981.423	1221.44
981.594	1254.21
981.765	877.38
981.936	973.64
982.106	1162.05
982.277	1254.21
982.448	908.1
982.619	969.54
982.79	899.91
982.96	1325.89
983.131	1076.04
983.302	686.92
983.472	1057.61
983.643	1002.31
983.814	1006.41
983.984	824.14
984.155	899.91
984.326	1346.37
984.496	975.69
984.667	777.03
984.837	844.62
985.008	1348.42
985.178	928.58
985.349	922.44
985.519	1014.6
985.69	828.23
985.86	842.57
986.031	664.4
986.201	1069.89
986.371	1123.14
986.542	596.81
986.712	666.44
986.882	1178.44
987.053	1065.8
987.223	629.58
987.393	832.33
987.563	947.01
987.734	1117
987.904	1043.27
988.074	740.17
988.244	1098.56
988.414	877.38
988.585	744.27
988.755	805.71
988.925	1006.41
989.095	1342.27
989.265	650.06
989.435	858.95
989.605	1012.55
989.775	1078.08
989.945	1049.41
990.115	678.73
990.285	928.58
990.455	1028.93
990.625	688.97
990.795	709.45
990.965	1203.01
991.134	826.18
991.304	625.48
991.474	738.12
991.644	965.45
991.814	1221.44
991.984	658.25
992.153	697.16
992.323	875.34
992.493	932.68
992.662	502.61
992.832	885.58
993.002	908.1
993.171	926.54
993.341	590.67
993.511	813.9
993.68	713.55
993.85	1053.51
994.019	535.37
994.189	568.14
994.358	861
994.528	797.51
994.697	432.97
994.867	586.57
995.036	1088.32
995.206	742.22
995.375	596.81
995.544	791.37
995.714	840.52
995.883	758.6
996.052	803.66
996.222	392.02
996.391	1379.14
996.56	858.95
996.73	564.04
996.899	486.22
997.068	1186.63
997.237	725.83
997.406	547.66
997.576	445.26
997.745	850.76
997.914	873.29
998.083	396.11
998.252	615.24
998.421	854.86
998.59	582.48
998.759	441.17
998.928	441.17
999.097	1100.61
999.266	787.27
999.435	580.43
999.604	373.58
999.773	1284.93
999.942	676.68
1000.111	324.43
1000.28	377.68
1000.448	607.05
1000.617	537.42
1000.786	697.16
1000.955	459.6
1001.124	774.99
1001.292	1358.66
1001.461	500.56
1001.63	467.79
1001.798	1100.61
1001.967	1162.05
1002.136	373.58
1002.304	461.65
1002.473	877.38
1002.642	756.55
1002.81	549.71
1002.979	435.02
1003.147	897.86
1003.316	1344.32
1003.484	553.8
1003.653	412.5
1003.821	1096.52
1003.99	602.96
1004.158	676.68
1004.327	502.61
1004.495	1004.36
1004.663	543.57
1004.832	645.96
1005	473.93
1005.168	867.14
1005.337	820.04
1005.505	328.53
1005.673	598.86
1005.842	785.23
1006.01	858.95
1006.178	316.24
1006.346	469.84
1006.514	772.94
1006.683	996.17
1006.851	461.65
1007.019	301.9
1007.187	494.41
1007.355	158.55
1007.523	246.61
1007.691	275.28
1007.859	437.07
1008.027	947.01
1008.195	465.74
1008.363	205.65
1008.531	871.24
1008.699	598.86
1008.867	262.99
1009.035	353.1
1009.203	1030.98
1009.37	736.07
1009.538	418.64
1009.706	815.94
1009.874	770.89
1010.042	545.61
1010.209	240.47
1010.377	340.82
1010.545	848.71
1010.713	697.16
1010.88	269.14
1011.048	377.68
1011.216	480.08
1011.383	973.64
1011.551	301.9
1011.718	226.13
1011.886	797.51
1012.054	666.44
1012.221	207.7
1012.389	316.24
1012.556	654.16
1012.724	1059.65
1012.891	459.6
1013.058	170.83
1013.226	756.55
1013.393	828.23
1013.561	185.17
1013.728	197.46
1013.895	910.15
1014.063	754.51
1014.23	131.92
1014.397	267.09
1014.565	920.39
1014.732	459.6
1014.899	322.38
1015.066	222.03
1015.233	564.04
1015.401	576.33
1015.568	342.86
1015.735	365.39
1015.902	596.81
1016.069	713.55
1016.236	439.12
1016.403	297.81
1016.57	361.3
1016.737	682.83
1016.904	441.17
1017.071	150.36
1017.238	357.2
1017.405	824.14
1017.572	306
1017.739	496.46
1017.906	668.49
1018.073	904.01
1018.24	224.08
1018.407	346.96
1018.573	805.71
1018.74	492.37
1018.907	371.54
1019.074	209.75
1019.241	836.42
1019.407	543.57
1019.574	254.8
1019.741	152.4
1019.907	609.1
1020.074	691.02
1020.241	62.29
1020.407	183.12
1020.574	705.35
1020.74	727.88
1020.907	244.56
1021.073	170.83
1021.24	1061.7
1021.406	879.43
1021.573	256.85
1021.739	146.26
1021.906	670.54
1022.072	486.22
1022.239	242.51
1022.405	314.19
1022.571	518.99
1022.738	359.25
1022.904	205.65
1023.07	228.18
1023.237	514.89
1023.403	699.21
1023.569	256.85
1023.735	252.75
1023.902	539.47
1024.068	600.91
1024.234	168.79
1024.4	179.03
1024.566	611.15
1024.732	760.65
1024.898	168.79
1025.065	-62.63
1025.231	744.27
1025.397	404.3
1025.563	215.89
1025.729	121.68
1025.895	84.82
1026.061	226.13
1026.227	9.05
1026.392	154.45
1026.558	736.07
1026.724	648.01
1026.89	45.91
1027.056	238.42
1027.222	619.34
1027.388	385.87
1027.553	88.92
1027.719	187.22
1027.885	826.18
1028.051	594.76
1028.216	-23.72
1028.382	93.01
1028.548	740.17
1028.713	330.58
1028.879	15.19
1029.045	240.47
1029.21	809.8
1029.376	719.69
1029.541	244.56
1029.707	197.46
1029.873	609.1
1030.038	627.53
1030.204	90.96
1030.369	162.64
1030.534	590.67
1030.7	357.2
1030.865	191.31
1031.031	101.2
1031.196	443.21
1031.361	625.48
1031.527	56.15
1031.692	107.35
1031.857	144.21
1032.023	605
1032.188	-76.97
1032.353	133.97
1032.518	744.27
1032.684	539.47
1032.849	11.09
1033.014	181.07
1033.179	641.87
1033.344	545.61
1033.509	205.65
1033.674	95.06
1033.839	676.68
1034.004	648.01
1034.17	111.44
1034.335	39.76
1034.5	396.11
1034.664	260.95
1034.829	129.88
1034.994	179.03
1035.159	504.65
1035.324	445.26
1035.489	162.64
1035.654	64.34
1035.819	744.27
1035.984	445.26
1036.148	187.22
1036.313	107.35
1036.478	668.49
1036.643	449.36
1036.807	-38.06
1036.972	54.1
1037.137	785.23
1037.301	441.17
1037.466	-58.54
1037.631	127.83
1037.795	680.78
1037.96	482.13
1038.124	277.33
1038.289	-27.82
1038.454	598.86
1038.618	539.47
1038.783	131.92
1038.947	103.25
1039.111	463.69
1039.276	275.28
1039.44	25.43
1039.605	424.78
1039.769	228.18
1039.933	334.67
1040.098	121.68
1040.262	244.56
1040.426	662.35
1040.591	492.37
1040.755	27.48
1040.919	86.87
1041.083	488.27
1041.248	408.4
1041.412	-58.54
1041.576	-64.68
1041.74	338.77
1041.904	578.38
1042.068	-3.24
1042.232	86.87
1042.397	607.05
1042.561	455.5
1042.725	-156.84
1042.889	181.07
1043.053	615.24
1043.217	582.48
1043.381	191.31
1043.544	13.14
1043.708	705.35
1043.872	107.35
1044.036	-152.74
1044.2	-50.35
1044.364	650.06
1044.528	756.55
1044.691	2880.3
1044.855	-25.77
1045.019	719.69
1045.183	506.7
1045.346	11.09
1045.51	33.62
1045.674	414.54
1045.837	600.91
1046.001	136.02
1046.165	54.1
1046.328	830.28
1046.492	527.18
1046.655	211.79
1046.819	136.02
1046.983	213.84
1047.146	506.7
1047.31	150.36
1047.473	-171.18
1047.636	353.1
1047.8	144.21
1047.963	105.3
1048.127	-19.63
1048.29	265.04
