Data from Ink_Intensity_USB4F045381__99__00099.txt Node

Date: Mon Jul 17 11:04:45 EDT 2023
User: mmckonesweet
Spectrometer: USB4F04538
Trigger mode: 4
Integration Time (sec): 9.000000E-1
Scans to average: 1
Electric dark correction enabled: true
Nonlinearity correction enabled: false
Boxcar width: 0
XAxis mode: Wavelengths
Number of Pixels in Spectrum: 3648
>>>>>Begin Spectral Data<<<<<
345.52	-996.17
345.736	-996.17
345.952	-996.17
346.168	-1012.55
346.384	-949.06
346.6	-99.16
346.816	-346.96
347.032	-199.51
347.248	314.53
347.464	-199.51
347.68	-119.64
347.896	105.64
348.112	349.35
348.328	-115.54
348.544	-172.88
348.76	171.18
348.975	312.49
349.191	-250.71
349.407	-166.74
349.623	-58.2
349.839	27.82
350.055	-146.26
350.27	23.72
350.486	132.26
350.702	324.77
350.918	273.57
351.133	-219.99
351.349	156.84
351.565	302.25
351.781	-209.75
351.996	91.31
352.212	304.29
352.428	-43.86
352.644	-181.07
352.859	-211.79
353.075	328.87
353.291	91.31
353.506	-158.55
353.722	-187.22
353.938	-86.87
354.153	380.07
354.369	140.46
354.584	-144.21
354.8	263.33
355.016	-346.96
355.231	-273.23
355.447	-47.96
355.662	107.69
355.878	824.48
356.093	-310.1
356.309	-33.62
356.524	-246.61
356.74	173.22
356.955	-242.51
357.171	-27.48
357.386	242.85
357.602	-289.62
357.817	-115.54
358.033	-129.88
358.248	349.35
358.464	193.7
358.679	-152.4
358.895	-242.51
359.11	-11.09
359.325	269.48
359.541	29.87
359.756	46.25
359.972	-346.96
360.187	142.5
360.402	-226.13
360.618	-203.6
360.833	971.93
361.048	216.23
361.264	-166.74
361.479	-37.72
361.694	44.2
361.909	218.28
362.125	-199.51
362.34	-123.73
362.555	259.24
362.77	107.69
362.986	-269.14
363.201	-164.69
363.416	210.09
363.631	83.11
363.847	-246.61
364.062	-125.78
364.277	105.64
364.492	193.7
364.707	-127.83
364.922	-392.02
365.138	257.19
365.353	380.07
365.568	-252.75
365.783	-187.22
365.998	70.83
366.213	521.38
366.428	-183.12
366.643	62.63
366.858	355.49
367.073	257.19
367.288	-125.78
367.503	-244.56
367.718	93.35
367.933	330.92
368.148	-258.9
368.363	-62.29
368.578	-33.62
368.793	406.69
369.008	-203.6
369.223	-197.46
369.438	171.18
369.653	410.79
369.868	-209.75
370.083	-265.04
370.298	19.63
370.513	357.54
370.728	58.54
370.943	-209.75
371.157	-105.3
371.372	543.91
371.587	-314.19
371.802	-240.47
372.017	46.25
372.232	480.42
372.446	-47.96
372.661	-219.99
372.876	234.66
373.091	103.59
373.306	-107.35
373.52	-258.9
373.735	-158.55
373.95	447.65
374.165	-121.68
374.379	-224.08
374.594	-123.73
374.809	124.07
375.023	17.58
375.238	-308.05
375.453	273.57
375.667	-308.05
375.882	-72.53
376.097	-219.99
376.311	21.67
376.526	17.58
376.741	-228.18
376.955	42.15
377.17	570.53
377.384	513.19
377.599	-19.29
377.813	-293.71
378.028	591.01
378.242	197.8
378.457	-86.87
378.672	-326.48
378.886	105.64
379.101	-43.86
379.315	-359.25
379.53	-105.3
379.744	162.98
379.958	273.57
380.173	-125.78
380.387	-154.45
380.602	230.57
380.816	-52.05
381.031	-156.5
381.245	-152.4
381.459	181.42
381.674	2757.76
381.888	-248.66
382.103	60.59
382.317	-211.79
382.531	464.04
382.746	-23.38
382.96	-201.55
383.174	-148.31
383.388	378.02
383.603	87.21
383.817	-293.71
384.031	101.55
384.246	365.73
384.46	-7
384.674	353.45
384.888	33.96
385.103	33.96
385.317	-314.19
385.531	56.49
385.745	369.83
385.959	312.49
386.174	-224.08
386.388	-275.28
386.602	-15.19
386.816	-90.96
387.03	-56.15
387.244	-62.29
387.458	115.88
387.672	386.21
387.887	-275.28
388.101	-187.22
388.315	322.73
388.529	109.74
388.743	-140.12
388.957	-213.84
389.171	318.63
389.385	-174.93
389.599	-80.72
389.813	62.63
390.027	205.99
390.241	664.74
390.455	-156.5
390.669	-72.53
390.883	-29.52
391.097	400.55
391.311	132.26
391.525	-156.5
391.738	296.1
391.952	115.88
392.166	-52.05
392.38	-265.04
392.594	267.43
392.808	322.73
393.022	-64.34
393.236	-138.07
393.449	187.56
393.663	222.38
393.877	-197.46
394.091	-56.15
394.305	-84.82
394.518	-80.72
394.732	-324.43
394.946	-142.16
395.16	468.13
395.373	171.18
395.587	-129.88
395.801	-183.12
396.015	328.87
396.228	179.37
396.442	-195.41
396.656	-326.48
396.869	427.17
397.083	468.13
397.297	-121.68
397.51	-47.96
397.724	371.88
397.938	111.78
398.151	-310.1
398.365	-287.57
398.578	287.91
398.792	408.74
399.005	38.06
399.219	-93.01
399.433	107.69
399.646	205.99
399.86	-7
400.073	76.97
400.287	310.44
400.5	-2.9
400.714	-52.05
400.927	-21.33
401.141	228.52
401.354	1037.47
401.567	171.18
401.781	-281.43
401.994	345.25
402.208	631.97
402.421	-162.64
402.635	-13.14
402.848	93.35
403.061	263.33
403.275	-70.48
403.488	-105.3
403.701	488.61
403.915	306.34
404.128	-47.96
404.341	-164.69
404.555	205.99
404.768	42.15
404.981	-2.9
405.195	-156.5
405.408	537.76
405.621	277.67
405.834	17.58
406.048	-129.88
406.261	451.75
406.474	525.47
406.687	-168.79
406.9	29.87
407.114	66.73
407.327	222.38
407.54	-254.8
407.753	-318.29
407.966	-74.58
408.179	255.14
408.392	-189.27
408.605	-248.66
408.819	232.62
409.032	230.57
409.245	-146.26
409.458	191.66
409.671	234.66
409.884	314.53
410.097	-301.9
410.31	66.73
410.523	289.96
410.736	25.77
410.949	-76.63
411.162	-113.49
411.375	439.46
411.588	378.02
411.801	124.07
412.014	-236.37
412.227	111.78
412.44	74.92
412.653	-164.69
412.865	93.35
413.078	302.25
413.291	222.38
413.504	-19.29
413.717	-176.98
413.93	324.77
414.143	-111.44
414.356	-88.92
414.568	-230.23
414.781	384.16
414.994	238.76
415.207	-17.24
415.42	29.87
415.632	406.69
415.845	470.18
416.058	-254.8
416.271	-236.37
416.483	148.65
416.696	500.9
416.909	-154.45
417.121	-154.45
417.334	232.62
417.547	597.15
417.759	-160.59
417.972	-226.13
418.185	19.63
418.397	292.01
418.61	-117.59
418.823	-154.45
419.035	539.81
419.248	109.74
419.46	-39.76
419.673	54.44
419.885	167.08
420.098	50.35
420.311	-78.68
420.523	-330.58
420.736	271.53
420.948	91.31
421.161	-172.88
421.373	-256.85
421.586	208.04
421.798	25.77
422.01	-265.04
422.223	56.49
422.435	-7
422.648	228.52
422.86	-144.21
423.073	-76.63
423.285	349.35
423.497	-158.55
423.71	-90.96
423.922	-136.02
424.134	220.33
424.347	527.52
424.559	93.35
424.771	148.65
424.984	-17.24
425.196	142.5
425.408	-314.19
425.621	-187.22
425.833	308.39
426.045	486.56
426.257	-154.45
426.47	-86.87
426.682	197.8
426.894	304.29
427.106	-121.68
427.318	-47.96
427.531	-95.06
427.743	283.81
427.955	-111.44
428.167	439.46
428.379	292.01
428.591	132.26
428.804	21.67
429.016	-78.68
429.228	87.21
429.44	253.09
429.652	128.17
429.864	-219.99
430.076	99.5
430.288	95.4
430.5	-47.96
430.712	-13.14
430.924	386.21
431.136	183.46
431.348	-244.56
431.56	-205.65
431.772	165.03
431.984	25.77
432.196	-217.94
432.408	-72.53
432.62	60.59
432.832	343.21
433.044	210.09
433.256	17.58
433.468	378.02
433.679	-56.15
433.891	-172.88
434.103	203.94
434.315	459.94
434.527	273.57
434.739	62.63
434.95	-52.05
435.162	316.58
435.374	60.59
435.586	17.58
435.798	-95.06
436.009	-109.4
436.221	126.12
436.433	-68.44
436.645	62.63
436.856	117.93
437.068	461.99
437.28	-164.69
437.491	150.7
437.703	287.91
437.915	251.05
438.126	-47.96
438.338	281.77
438.55	255.14
438.761	357.54
438.973	-25.43
439.184	-43.86
439.396	158.89
439.608	357.54
439.819	-187.22
440.031	58.54
440.242	445.6
440.454	398.5
440.665	31.91
440.877	117.93
441.088	296.1
441.3	191.66
441.511	-189.27
441.723	-29.52
441.934	357.54
442.146	265.38
442.357	230.57
442.569	212.14
442.78	312.49
442.991	736.42
443.203	410.79
443.414	-103.25
443.626	500.9
443.837	117.93
444.048	-127.83
444.26	-187.22
444.471	234.66
444.682	472.23
444.894	-138.07
445.105	-166.74
445.316	521.38
445.528	380.07
445.739	132.26
445.95	33.96
446.161	275.62
446.373	406.69
446.584	68.78
446.795	-0.85
447.006	408.74
447.217	683.17
447.429	-119.64
447.64	-43.86
447.851	586.91
448.062	232.62
448.273	-136.02
448.484	-17.24
448.695	339.11
448.907	179.37
449.118	122.02
449.329	277.67
449.54	103.59
449.751	54.44
449.962	42.15
450.173	-4.95
450.384	564.39
450.595	550.05
450.806	-23.38
451.017	93.35
451.228	591.01
451.439	500.9
451.65	130.22
451.861	-246.61
452.072	162.98
452.283	312.49
452.494	281.77
452.705	-78.68
452.915	664.74
453.126	337.06
453.337	140.46
453.548	-19.29
453.759	564.39
453.97	885.92
454.181	271.53
454.391	103.59
454.602	449.7
454.813	484.52
455.024	156.84
455.235	76.97
455.445	412.84
455.656	394.4
455.867	228.52
456.078	113.83
456.288	265.38
456.499	345.25
456.71	31.91
456.921	378.02
457.131	406.69
457.342	359.59
457.553	218.28
457.763	167.08
457.974	568.48
458.184	558.24
458.395	111.78
458.606	54.44
458.816	730.27
459.027	844.96
459.237	326.82
459.448	-2.9
459.659	703.65
459.869	875.68
460.08	9.39
460.29	361.64
460.501	849.05
460.711	308.39
460.922	-11.09
461.132	189.61
461.343	1037.47
461.553	144.55
461.764	119.98
461.974	150.7
462.184	656.54
462.395	509.09
462.605	193.7
462.816	115.88
463.026	578.72
463.236	758.94
463.447	195.75
463.657	230.57
463.867	758.94
464.078	459.94
464.288	279.72
464.498	218.28
464.709	466.08
464.919	486.56
465.129	373.92
465.339	226.47
465.55	619.68
465.76	775.33
465.97	375.97
466.18	335.01
466.391	748.7
466.601	689.31
466.811	437.41
467.021	216.23
467.231	689.31
467.441	902.3
467.651	433.32
467.862	74.92
468.072	564.39
468.282	959.64
468.492	269.48
468.702	468.13
468.912	664.74
469.122	1287.32
469.332	672.93
469.542	287.91
469.752	822.43
469.962	699.55
470.172	257.19
470.382	410.79
470.592	781.47
470.802	1041.56
471.012	582.82
471.222	527.52
471.432	941.21
471.642	951.45
471.852	568.48
472.062	410.79
472.272	593.06
472.482	550.05
472.691	437.41
472.901	429.22
473.111	836.77
473.321	1453.2
473.531	455.84
473.741	623.78
473.95	1035.42
474.16	906.4
474.37	685.22
474.58	416.93
474.79	1266.84
474.999	1057.95
475.209	464.04
475.419	603.3
475.628	865.44
475.838	1221.78
476.048	775.33
476.258	535.71
476.467	1197.21
476.677	820.38
476.886	787.61
477.096	840.86
477.306	853.15
477.515	1270.94
477.725	887.97
477.935	820.38
478.144	1359
478.354	855.2
478.563	836.77
478.773	779.42
478.982	1234.07
479.192	1412.25
479.401	969.88
479.611	730.27
479.82	920.73
480.03	1205.4
480.239	844.96
480.449	775.33
480.658	1496.21
480.868	1021.08
481.077	1016.99
481.287	1072.28
481.496	1307.8
481.705	1750.16
481.915	1324.18
482.124	1279.13
482.333	1352.85
482.543	1574.03
482.752	1088.67
482.961	914.59
483.171	1535.12
483.38	1236.12
483.589	1127.58
483.799	1086.62
484.008	1373.33
484.217	1676.43
484.426	1176.73
484.636	1006.75
484.845	1459.35
485.054	1109.15
485.263	1557.65
485.472	1221.78
485.682	1840.27
485.891	1492.12
486.1	1090.71
486.309	1242.26
486.518	1643.67
486.727	1918.09
486.936	1297.56
487.146	1467.54
487.355	1914
487.564	1385.62
487.773	1395.86
487.982	1402.01
488.191	1594.51
488.4	1664.15
488.609	1377.43
488.818	1492.12
489.027	2165.9
489.236	2049.16
489.445	1619.09
489.654	1301.65
489.863	2026.64
490.072	1844.37
490.281	1893.52
490.49	1502.36
490.698	2077.83
490.907	2184.33
491.116	1645.71
491.325	1520.79
491.534	2163.85
491.743	1985.68
491.952	1721.49
492.16	1717.39
492.369	1897.61
492.578	2141.32
492.787	1762.45
492.996	1500.31
493.204	1746.06
493.413	2598.02
493.622	1496.21
493.831	1627.28
494.039	2520.2
494.248	1836.17
494.457	1739.92
494.665	1723.54
494.874	2213
495.083	2602.11
495.291	1885.33
495.5	1842.32
495.709	2335.88
495.917	2239.62
496.126	2061.45
496.335	1811.6
496.543	2036.88
496.752	2256.01
496.96	2290.82
497.169	1778.83
497.377	2231.43
497.586	2583.68
497.794	2002.06
498.003	1795.22
498.211	2266.25
498.42	2569.35
498.628	2065.55
498.837	1918.09
499.045	2360.45
499.254	2376.84
499.462	2102.41
499.671	1961.1
499.879	2720.9
500.087	2663.55
500.296	2131.08
500.504	2188.43
500.713	2542.72
500.921	2927.74
501.129	2116.75
501.338	2260.1
501.546	2544.77
501.754	2593.92
501.962	2311.3
502.171	1983.63
502.379	2749.57
502.587	2892.93
502.795	2342.02
503.004	2239.62
503.212	2589.83
503.42	2944.13
503.628	2337.93
503.837	2487.43
504.045	2788.48
504.253	3085.44
504.461	2323.59
504.669	2225.29
504.877	2866.3
505.085	3189.88
505.294	2237.58
505.502	2663.55
505.71	2843.78
505.918	2911.36
506.126	2440.33
506.334	2450.57
506.542	2528.39
506.75	2942.08
506.958	2821.25
507.166	2665.6
507.374	2798.72
507.582	3279.99
507.79	2671.75
507.998	2559.11
508.206	3093.63
508.414	3013.76
508.622	2745.47
508.83	2641.03
509.037	3427.45
509.245	2817.15
509.453	2696.32
509.661	2647.17
509.869	3277.94
510.077	2968.7
510.285	2952.32
510.492	2454.66
510.7	3718.26
510.908	3007.61
511.116	2755.71
511.324	2811.01
511.531	2987.13
511.739	3251.32
511.947	3005.56
512.155	3140.73
512.362	3187.83
512.57	2884.73
512.778	2813.06
512.985	2669.7
513.193	3382.39
513.401	3544.18
513.608	2952.32
513.816	3021.95
514.024	3396.73
514.231	3585.14
514.439	3005.56
514.646	2956.41
514.854	3468.41
515.061	3525.75
515.269	2968.7
515.477	3071.1
515.684	3044.48
515.892	3572.85
516.099	3062.91
516.307	3067
516.514	3732.59
516.722	3753.07
516.929	3255.42
517.136	3183.74
517.344	3757.17
517.551	3503.22
517.759	3208.31
517.966	3290.23
518.173	3527.8
518.381	3548.28
518.588	3286.14
518.796	3355.77
519.003	3746.93
519.21	3628.15
519.418	3302.52
519.625	3615.86
519.832	3650.67
520.039	3746.93
520.247	3265.66
520.454	3269.75
520.661	3968.11
520.868	3855.47
521.076	3456.12
521.283	3310.71
521.49	4260.97
521.697	3884.14
521.904	3464.31
522.112	3417.21
522.319	4070.51
522.526	4009.07
522.733	3572.85
522.94	3482.74
523.147	3822.7
523.354	3898.48
523.561	3445.88
523.768	3695.73
523.975	4095.08
524.183	3986.54
524.39	3622
524.597	3552.37
524.804	3957.87
525.011	3861.62
525.218	3658.87
525.425	3796.08
525.632	4486.25
525.838	3781.74
526.045	3710.07
526.252	3732.59
526.459	5319.77
526.666	4883.55
526.873	3761.27
527.08	3863.66
527.287	4490.34
527.494	4361.32
527.701	3859.57
527.907	3753.07
528.114	4371.56
528.321	4236.39
528.528	3900.53
528.735	3941.49
528.941	4103.28
529.148	4121.71
529.355	4156.52
529.562	4117.61
529.768	4768.87
529.975	4246.63
530.182	4183.15
530.388	4090.99
530.595	4858.98
530.802	3941.49
531.008	4392.04
531.215	4131.95
531.422	4879.46
531.628	5219.42
531.835	4289.64
532.042	4357.22
532.248	4383.85
532.455	4535.4
532.661	4293.74
532.868	4150.38
533.074	4433
533.281	4965.47
533.487	4473.96
533.694	4453.48
533.9	4502.63
534.107	4787.3
534.313	4414.57
534.52	4193.39
534.726	4928.61
534.933	5237.85
535.139	4412.52
535.345	4338.79
535.552	5190.75
535.758	4869.22
535.965	4697.19
536.171	4572.26
536.377	5106.78
536.584	5213.28
536.79	4713.57
536.996	4815.97
537.203	4926.56
537.409	5069.92
537.615	4727.91
537.821	4813.92
538.028	5260.38
538.234	5207.13
538.44	4791.39
538.646	4803.68
538.853	5190.75
539.059	4924.51
539.265	5112.92
539.471	4658.28
539.677	5358.68
539.883	5069.92
540.09	4944.99
540.296	5346.39
540.502	5260.38
540.708	5045.34
540.914	5110.88
541.12	5051.49
541.326	5629.01
541.532	5303.39
541.738	5266.52
541.944	5225.56
542.15	5678.16
542.356	5481.56
542.562	5239.9
542.768	5211.23
542.974	6120.53
543.18	5868.63
543.386	5284.95
543.592	5094.49
543.798	5907.54
544.004	5923.92
544.21	5280.86
544.415	5313.63
544.621	5821.52
544.827	5891.15
545.033	5135.45
545.239	5469.27
545.445	5586.01
545.651	5936.21
545.856	5563.48
546.062	5340.25
546.268	5715.03
546.474	5741.65
546.679	5375.06
546.885	5530.71
547.091	5717.08
547.297	6351.95
547.502	5735.51
547.708	5346.39
547.914	5745.75
548.119	6128.72
548.325	5518.42
548.531	5428.31
548.736	6253.64
548.942	5813.33
549.147	5422.17
549.353	6095.95
549.559	6147.15
549.764	6231.12
549.97	5753.94
550.175	5682.26
550.381	6224.97
550.586	5876.82
550.792	5725.27
550.997	5876.82
551.203	6071.37
551.408	6280.27
551.614	5925.97
551.819	5874.77
552.025	6554.69
552.23	6679.62
552.435	5782.61
552.641	6362.19
552.846	6007.89
553.052	6689.86
553.257	6116.43
553.462	6095.95
553.668	6171.72
553.873	6677.57
554.078	6110.29
554.283	6075.47
554.489	6614.09
554.694	6489.16
554.899	6155.34
555.105	6380.62
555.31	6526.02
555.515	6632.52
555.72	6505.54
555.925	6399.05
556.131	6857.79
556.336	6564.93
556.541	6333.51
556.746	6325.32
556.951	6825.03
557.156	7042.11
557.361	6394.95
557.567	6667.33
557.772	7365.69
557.977	6843.46
558.182	6372.43
558.387	6503.5
558.592	6587.46
558.797	7078.97
559.002	6583.37
559.207	6800.45
559.412	6728.77
559.617	7363.64
559.822	6624.33
560.027	6511.69
560.232	7208
560.437	7062.59
560.642	6663.24
560.847	6650.95
561.051	6982.72
561.256	7115.84
561.461	6710.34
561.666	6685.76
561.871	7183.42
562.076	7396.41
562.281	6917.19
562.485	6560.84
562.69	7320.63
562.895	7420.99
563.1	6902.85
563.305	6847.55
563.509	7443.51
563.714	7586.87
563.919	6861.89
564.123	7132.22
564.328	7124.03
564.533	7541.82
564.737	6980.67
564.942	6919.23
565.147	7732.28
565.351	7793.72
565.556	7146.56
565.761	7177.28
565.965	7439.42
566.17	7162.94
566.374	7144.51
566.579	6999.1
566.784	7527.48
566.988	7359.55
567.193	7044.16
567.397	7205.95
567.602	7150.65
567.806	7570.49
568.011	7291.96
568.215	7365.69
568.42	7588.92
568.624	7711.8
568.828	7400.51
569.033	7509.05
569.237	7949.36
569.442	7916.59
569.646	7281.72
569.85	7459.9
570.055	7623.73
570.259	7867.44
570.463	7889.97
570.668	7629.88
570.872	7756.85
571.076	7707.7
571.281	7654.45
571.485	7742.52
571.689	7863.35
571.893	8231.98
572.098	7832.63
572.302	7638.07
572.506	8033.33
572.71	7867.44
572.914	7840.82
573.119	7728.18
573.323	8344.62
573.527	8266.8
573.731	7812.15
573.935	7789.62
574.139	8205.36
574.343	7857.2
574.547	7955.51
574.751	7799.86
574.955	8705.06
575.159	8670.25
575.364	7748.66
575.568	7873.59
575.772	8170.54
575.976	8475.69
576.18	8025.14
576.383	8102.96
576.587	8582.18
576.791	8557.61
576.995	7756.85
577.199	7808.05
577.403	8530.98
577.607	8647.72
577.811	8123.44
578.015	8205.36
578.219	8682.53
578.422	8565.8
578.626	8311.85
578.83	8401.96
579.034	8856.61
579.238	8625.19
579.442	8318
579.645	8852.52
579.849	8565.8
580.053	8662.05
580.257	8127.53
580.46	8483.88
580.664	8883.24
580.868	8922.15
581.071	8639.53
581.275	8623.14
581.479	8414.25
581.682	8940.58
581.886	8635.43
582.09	8700.97
582.293	9049.12
582.497	8993.83
582.7	8870.95
582.904	8678.44
583.107	9249.82
583.311	9034.78
583.515	8909.86
583.718	8643.62
583.922	9286.68
584.125	9569.3
584.329	8741.93
584.532	8959.01
584.735	9485.34
584.939	9157.66
585.142	8680.49
585.346	8807.46
585.549	9335.84
585.753	8948.77
585.956	8893.47
586.159	9133.09
586.363	9778.2
586.566	9727
586.769	8938.53
586.973	8897.57
587.176	9434.14
587.379	9706.52
587.582	9487.39
587.786	9389.08
587.989	9362.46
588.192	10185.74
588.395	9333.79
588.599	9593.88
588.802	9741.33
589.005	9806.87
589.208	9411.61
589.411	9395.23
589.615	9778.2
589.818	10112.02
590.021	9536.54
590.224	9552.92
590.427	10040.34
590.63	9931.8
590.833	9329.69
591.036	9344.03
591.239	9618.46
591.442	9753.62
591.645	9694.23
591.848	9632.79
592.051	10095.63
592.254	10195.98
592.457	9829.4
592.66	9757.72
592.863	9946.13
593.066	10310.67
593.269	9796.63
593.472	9628.7
593.675	9892.88
593.878	10349.58
594.081	9958.42
594.284	9954.32
594.486	10273.81
594.689	10124.3
594.892	9825.3
595.095	10167.31
595.298	10447.88
595.5	10155.02
595.703	9995.28
595.906	10185.74
596.109	10724.36
596.311	10660.87
596.514	9978.9
596.717	10155.02
596.92	10775.56
597.122	10664.97
597.325	9962.51
597.528	10017.81
597.73	10957.83
597.933	10279.95
598.136	10208.27
598.338	9896.98
598.541	10740.74
598.743	10898.44
598.946	10279.95
599.148	10445.84
599.351	10687.5
599.554	10798.09
599.756	10472.46
599.959	10501.13
600.161	10986.5
600.363	11529.21
600.566	10642.44
600.768	10654.73
600.971	11199.49
601.173	10886.15
601.376	10677.26
601.578	10718.22
601.78	10849.29
601.983	11277.31
602.185	10718.22
602.388	10843.14
602.59	10992.64
602.792	10984.45
602.995	10923.01
603.197	10642.44
603.399	11396.09
603.601	11136
603.804	10898.44
604.006	10970.12
604.208	11021.31
604.41	10884.1
604.613	11127.81
604.815	10720.26
605.017	11985.91
605.219	11017.22
605.421	11099.14
605.623	11072.51
605.826	11471.87
606.028	11854.84
606.23	10890.24
606.432	10896.39
606.634	11734.01
606.836	11686.9
607.038	11025.41
607.24	11209.73
607.442	11400.19
607.644	11535.35
607.846	11209.73
608.048	11084.8
608.25	11711.48
608.452	11471.87
608.654	11283.45
608.856	10937.35
609.058	11328.51
609.26	11779.06
609.462	11265.02
609.664	11351.04
609.866	11807.73
610.067	11897.85
610.269	11523.07
610.471	11338.75
610.673	11734.01
610.875	11885.56
611.077	11445.24
611.278	11447.29
611.48	11760.63
611.682	12012.53
611.884	11664.38
612.085	11551.74
612.287	11662.33
612.489	12028.92
612.69	11457.53
612.892	11547.64
613.094	12024.82
613.295	12076.02
613.497	11494.4
613.699	11559.93
613.9	12342.25
614.102	12043.25
614.304	11580.41
614.505	11500.54
614.707	11723.77
614.908	11801.59
615.11	11316.22
615.311	11713.53
615.513	12205.04
615.714	12221.42
615.916	11746.3
616.117	11791.35
616.319	11889.65
616.52	12030.96
616.722	11815.93
616.923	11840.5
617.124	12319.73
617.326	12172.27
617.527	11875.32
617.729	12147.7
617.93	12202.99
618.131	12272.62
618.333	11766.78
618.534	11990
618.735	12006.39
618.937	12579.82
619.138	11971.57
619.339	11965.43
619.54	12229.62
619.742	12088.31
619.943	11990
620.144	12018.68
620.345	12381.17
620.546	12483.56
620.748	12100.59
620.949	12202.99
621.15	12424.17
621.351	12272.62
621.552	12192.75
621.753	11963.38
621.954	12166.13
622.155	13126.63
622.356	12274.67
622.558	12520.43
622.759	12475.37
622.96	12876.77
623.161	12293.1
623.362	12321.77
623.563	12481.52
623.764	12657.64
623.965	12301.29
624.166	12694.5
624.366	12635.11
624.567	12973.03
624.768	12004.34
624.969	12448.75
625.17	12596.2
625.371	12973.03
625.572	12581.87
625.773	12364.78
625.973	13013.99
626.174	12760.04
626.375	12641.26
626.576	12700.65
626.777	12856.29
626.977	13417.44
627.178	12696.55
627.379	12753.9
627.58	13042.66
627.78	12727.27
627.981	12784.62
628.182	12915.69
628.382	13061.09
628.583	12774.38
628.784	12477.42
628.984	12893.16
629.185	13124.58
629.386	13196.26
629.586	13009.89
629.787	12770.28
629.987	13323.23
630.188	13075.43
630.388	12839.91
630.589	12772.33
630.79	13519.84
630.99	13224.93
631.191	13079.52
631.391	12682.22
631.591	13052.9
631.792	13489.12
631.992	13267.94
632.193	13319.14
632.393	13779.93
632.594	13218.78
632.794	13042.66
632.994	12999.65
633.195	13396.96
633.395	13202.4
633.595	13218.78
633.796	13550.56
633.996	13382.62
634.196	13751.26
634.397	13306.85
634.597	13226.98
634.797	13480.92
634.997	13812.7
635.198	13487.07
635.398	13312.99
635.598	13745.11
635.798	13784.02
635.998	13548.51
636.199	13396.96
636.399	13489.12
636.599	13427.68
636.799	13407.2
636.999	13947.86
637.199	13611.99
637.399	14076.88
637.599	13431.77
637.799	13394.91
637.999	13652.95
638.199	13988.82
638.399	13423.58
638.599	13261.79
638.799	13988.82
638.999	14195.67
639.199	13878.23
639.399	13495.26
639.599	14193.62
639.799	13722.59
639.999	13724.63
640.199	13650.91
640.399	14105.56
640.599	13648.86
640.799	13814.74
640.998	13824.98
641.198	14324.69
641.398	14007.25
641.598	13974.49
641.798	13958.1
641.997	15018.95
642.197	14152.66
642.397	13988.82
642.597	13886.42
642.796	14525.39
642.996	14402.51
643.196	13865.94
643.395	13923.29
643.595	14117.84
643.795	13788.12
643.994	14054.36
644.194	14005.2
644.394	14556.11
644.593	14533.58
644.793	13947.86
644.992	14164.95
645.192	14615.5
645.392	13925.33
645.591	14314.45
645.791	14568.4
645.99	14341.07
646.19	14234.58
646.389	14293.97
646.589	14277.58
646.788	14658.51
646.987	14644.17
647.187	14617.55
647.386	14502.86
647.586	14560.2
647.785	14633.93
647.984	14265.3
648.184	14414.8
648.383	14517.2
648.582	14500.81
648.782	14545.87
648.981	14482.38
649.18	14609.36
649.38	14674.89
649.579	14830.54
649.778	14476.24
649.977	14932.93
650.177	14808.01
650.376	14654.41
650.575	14494.67
650.774	15211.46
650.973	14734.28
651.173	14326.74
651.372	14773.19
651.571	14826.44
651.77	15033.29
651.969	14592.97
652.168	14922.69
652.367	14668.75
652.566	15000.52
652.765	14697.42
652.964	15094.72
653.163	15623.1
653.362	14857.16
653.561	14574.54
653.76	14726.09
653.959	14967.75
654.158	15285.19
654.357	15227.84
654.556	14853.06
654.755	15188.93
654.954	15535.04
655.153	14818.25
655.352	14846.92
655.551	15590.33
655.749	15027.14
655.948	15080.39
656.147	15002.57
656.346	15500.22
656.545	15059.91
656.743	14922.69
656.942	15121.35
657.141	15256.51
657.34	15086.53
657.538	15074.24
657.737	15219.65
657.936	15442.88
658.135	15401.92
658.333	15152.07
658.532	15147.97
658.731	16102.32
658.929	15602.62
659.128	15629.24
659.326	15254.47
659.525	15801.27
659.724	15590.33
659.922	15021
660.121	15092.68
660.319	15623.1
660.518	15363.01
660.716	15295.43
660.915	15203.27
661.113	15999.93
661.312	15336.38
661.51	15584.19
661.709	15262.66
661.907	15870.9
662.105	15926.2
662.304	15381.44
662.502	15631.29
662.701	16063.41
662.899	15776.7
663.097	15535.04
663.296	15393.73
663.494	15926.2
663.692	16171.96
663.891	15424.45
664.089	15248.32
664.287	15915.96
664.485	16038.84
664.684	15803.32
664.882	15702.97
665.08	15934.39
665.278	16339.89
665.476	15791.03
665.675	15864.76
665.873	16427.95
666.071	16393.14
666.269	15643.58
666.467	15696.83
666.665	15723.45
666.863	15565.76
667.061	15725.5
667.259	15473.6
667.457	15985.59
667.655	16208.82
667.853	15870.9
668.051	15958.97
668.249	15975.35
668.447	16245.68
668.645	15715.26
668.843	16036.79
669.041	16212.92
669.239	16012.21
669.437	15686.59
669.635	15936.44
669.833	16083.89
670.031	16090.04
670.229	15924.15
670.426	16083.89
670.624	16313.27
670.822	15928.25
671.02	15791.03
671.218	15881.14
671.415	15713.21
671.613	15942.58
671.811	16106.42
672.009	15858.62
672.206	16380.85
672.404	16085.94
672.602	16118.71
672.799	16157.62
672.997	16319.41
673.195	16303.03
673.392	15856.57
673.59	15793.08
673.788	16610.22
673.985	15657.92
674.183	15901.62
674.38	15848.38
674.578	16686
674.775	16008.12
674.973	15866.81
675.17	16083.89
675.368	16739.24
675.565	16546.73
675.763	16036.79
675.96	15862.71
676.158	16405.42
676.355	15819.71
676.553	16163.76
676.75	15764.41
676.947	16133.04
677.145	16266.16
677.342	16147.38
677.539	15909.82
677.737	16335.79
677.934	16524.21
678.131	16219.06
678.329	16018.36
678.526	16929.7
678.723	16610.22
678.92	16348.08
679.118	16069.56
679.315	15961.02
679.512	16571.31
679.709	16114.61
679.906	16128.95
680.104	16700.33
680.301	16333.75
680.498	15875
680.695	15752.12
680.892	15987.64
681.089	16063.41
681.286	16233.39
681.483	15817.66
681.68	16542.64
681.877	16704.43
682.075	16087.99
682.272	16276.4
682.469	16397.23
682.665	16251.83
682.862	15991.73
683.059	15911.86
683.256	16524.21
683.453	16339.89
683.65	16253.87
683.847	15991.73
684.044	16288.69
684.241	15979.45
684.438	16339.89
684.635	16108.47
684.831	16806.83
685.028	16757.67
685.225	15918.01
685.422	16479.15
685.619	16284.59
685.815	16481.2
686.012	16075.7
686.209	16042.93
686.405	16147.38
686.602	16671.66
686.799	16057.27
686.996	16145.33
687.192	16004.02
687.389	16944.04
687.586	16229.3
687.782	16282.55
687.979	16720.81
688.175	16681.9
688.372	16192.44
688.568	16309.17
688.765	16470.96
688.962	16796.59
689.158	16303.03
689.355	16059.32
689.551	16587.69
689.748	16491.44
689.944	16602.03
690.14	15991.73
690.337	16481.2
690.533	16372.66
690.73	16298.93
690.926	16212.92
691.123	16403.38
691.319	16413.62
691.515	15954.87
691.712	16448.43
691.908	16468.91
692.104	16495.53
692.301	16260.02
692.497	16081.85
692.693	16810.92
692.889	16757.67
693.086	16190.39
693.282	15705.02
693.478	16477.1
693.674	17017.77
693.87	16327.6
694.067	16020.41
694.263	16528.3
694.459	16415.66
694.655	16419.76
694.851	16294.83
695.047	16681.9
695.243	16812.97
695.439	16319.41
695.635	16210.87
695.831	16610.22
696.027	16372.66
696.224	16094.13
696.42	16343.99
696.615	16892.84
696.811	16458.67
697.007	15971.25
697.203	16094.13
697.399	16544.69
697.595	16774.06
697.791	16141.24
697.987	16327.6
698.183	16532.4
698.379	16305.07
698.575	16243.63
698.77	16241.59
698.966	16573.36
699.162	16851.88
699.358	16194.48
699.554	16122.8
699.749	16493.49
699.945	16751.53
700.141	16419.76
700.337	16223.16
700.532	16554.93
700.728	16192.44
700.924	16120.76
701.119	15811.51
701.315	16634.8
701.511	16237.49
701.706	16440.24
701.902	15983.54
702.097	16485.3
702.293	16597.93
702.489	16393.14
702.684	16470.96
702.88	16565.17
703.075	16284.59
703.271	16350.13
703.466	16102.32
703.662	16507.82
703.857	16763.82
704.053	16020.41
704.248	16298.93
704.443	16559.02
704.639	16743.34
704.834	16303.03
705.03	16462.77
705.225	16659.37
705.42	16630.7
705.616	16337.84
705.811	16161.72
706.006	16278.45
706.202	16442.29
706.397	16268.21
706.592	16085.94
706.787	16204.72
706.983	16339.89
707.178	16724.91
707.373	16008.12
707.568	16358.32
707.763	16772.01
707.959	16360.37
708.154	16315.31
708.349	16243.63
708.544	16427.95
708.739	16571.31
708.934	15809.47
709.129	16645.04
709.324	16430
709.519	16087.99
709.714	16057.27
709.909	16872.36
710.104	16382.9
710.299	16372.66
710.494	16280.5
710.689	16679.85
710.884	16405.42
711.079	16401.33
711.274	16237.49
711.469	16675.76
711.664	16749.48
711.859	16163.76
712.054	16315.31
712.249	16464.82
712.443	17050.53
712.638	16292.79
712.833	16188.34
713.028	16626.6
713.223	16245.68
713.417	16348.08
713.612	16262.07
713.807	17062.82
714.002	17118.12
714.196	16622.51
714.391	16102.32
714.586	16665.52
714.78	16352.18
714.975	16454.58
715.17	15991.73
715.364	16538.54
715.559	16886.7
715.754	15821.75
715.948	15946.68
716.143	16892.84
716.337	16411.57
716.532	16520.11
716.726	16483.25
716.921	16786.35
717.115	17075.11
717.31	16053.17
717.504	16839.59
717.699	16389.04
717.893	16438.19
718.088	16053.17
718.282	16114.61
718.476	16333.75
718.671	16346.03
718.865	15983.54
719.059	16102.32
719.254	16229.3
719.448	16647.08
719.642	17431.46
719.837	15883.19
720.031	16317.36
720.225	16513.97
720.419	16303.03
720.614	15954.87
720.808	16348.08
721.002	16321.46
721.196	15750.07
721.39	16026.55
721.585	16489.39
721.779	16366.51
721.973	15838.14
722.167	15829.95
722.361	16257.97
722.555	16317.36
722.749	15895.48
722.943	16139.19
723.137	15815.61
723.331	16313.27
723.525	16118.71
723.719	15905.72
723.913	16333.75
724.107	16495.53
724.301	15901.62
724.495	15834.04
724.689	16438.19
724.883	16442.29
725.077	16067.51
725.271	16032.69
725.465	16401.33
725.659	15936.44
725.853	16178.1
726.046	15784.89
726.24	15864.76
726.434	16378.8
726.628	15981.49
726.822	16024.5
727.015	16450.48
727.209	16522.16
727.403	16036.79
727.596	15813.56
727.79	16565.17
727.984	16577.45
728.177	15942.58
728.371	16223.16
728.565	16292.79
728.758	15987.64
728.952	15860.66
729.146	15829.95
729.339	16548.78
729.533	16217.01
729.726	15938.49
729.92	15956.92
730.113	16575.41
730.307	16446.38
730.5	16051.13
730.694	15805.37
730.887	16339.89
731.081	16751.53
731.274	16047.03
731.468	16016.31
731.661	16237.49
731.854	16546.73
732.048	16217.01
732.241	15748.03
732.435	16386.99
732.628	16319.41
732.821	16081.85
733.014	15823.8
733.208	16174
733.401	16409.52
733.594	16014.26
733.788	15950.78
733.981	16446.38
734.174	16597.93
734.367	15979.45
734.56	16319.41
734.754	16536.49
734.947	16507.82
735.14	15823.8
735.333	16405.42
735.526	16606.13
735.719	16120.76
735.912	16063.41
736.105	15997.88
736.298	16401.33
736.491	16165.81
736.684	16124.85
736.877	15924.15
737.07	16505.77
737.263	16702.38
737.456	16348.08
737.649	15893.43
737.842	16219.06
738.035	16540.59
738.228	16194.48
738.421	16204.72
738.614	16671.66
738.807	16636.84
739	15862.71
739.192	15948.73
739.385	16589.74
739.578	16774.06
739.771	16468.91
739.964	15930.3
740.156	16731.05
740.349	16450.48
740.542	16378.8
740.735	15930.3
740.927	15885.24
741.12	16200.63
741.313	16022.45
741.505	16274.35
741.698	16495.53
741.891	16753.58
742.083	16167.86
742.276	16245.68
742.468	16452.53
742.661	16405.42
742.854	16159.67
743.046	16001.97
743.239	16735.15
743.431	16452.53
743.624	16100.28
743.816	15848.38
744.009	16231.35
744.201	16505.77
744.393	16221.11
744.586	15973.3
744.778	16528.3
744.971	16419.76
745.163	16188.34
745.355	16311.22
745.548	16399.28
745.74	16294.83
745.932	16266.16
746.125	16188.34
746.317	16853.93
746.509	16356.27
746.702	16145.33
746.894	16272.31
747.086	16460.72
747.278	16423.86
747.471	16266.16
747.663	16276.4
747.855	16593.84
748.047	16868.27
748.239	16014.26
748.431	15909.82
748.623	16827.31
748.815	16679.85
749.008	16245.68
749.2	16126.9
749.392	16292.79
749.584	16329.65
749.776	16305.07
749.968	16022.45
750.16	16833.45
750.352	16315.31
750.544	16010.17
750.736	15944.63
750.928	16350.13
751.12	16030.65
751.311	16014.26
751.503	15891.38
751.695	16376.75
751.887	16116.66
752.079	15795.13
752.271	15909.82
752.463	16880.55
752.654	16448.43
752.846	16032.69
753.038	16022.45
753.23	16194.48
753.421	16282.55
753.613	15887.29
753.805	16321.46
753.997	16450.48
754.188	16509.87
754.38	15791.03
754.572	15752.12
754.763	16208.82
754.955	16409.52
755.146	15836.09
755.338	15801.27
755.53	16155.57
755.721	16026.55
755.913	15547.33
756.104	15700.92
756.296	15811.51
756.487	16438.19
756.679	15899.58
756.87	15688.64
757.062	15754.17
757.253	16350.13
757.445	15565.76
757.636	15911.86
757.827	16018.36
758.019	16769.96
758.21	15530.94
758.401	15635.39
758.593	16366.51
758.784	16190.39
758.975	15256.51
759.167	15582.14
759.358	16065.46
759.549	16210.87
759.74	15440.83
759.932	15797.18
760.123	16106.42
760.314	15936.44
760.505	15588.28
760.696	15717.31
760.888	16272.31
761.079	15745.98
761.27	15240.13
761.461	15399.87
761.652	16149.43
761.843	15827.9
762.034	15633.34
762.225	15817.66
762.416	15975.35
762.607	15512.51
762.798	15346.62
762.989	15285.19
763.18	16393.14
763.371	15594.43
763.562	15422.4
763.753	15186.88
763.944	15750.07
764.135	15743.93
764.326	15633.34
764.517	15358.91
764.708	15621.05
764.899	15643.58
765.089	15369.15
765.28	15274.95
765.471	15641.53
765.662	15625.15
765.853	15360.96
766.043	15049.67
766.234	15637.44
766.425	15940.54
766.615	15285.19
766.806	15102.92
766.997	15670.2
767.187	15385.54
767.378	15076.29
767.569	15117.25
767.759	15676.35
767.95	15623.1
768.141	15313.86
768.331	15115.2
768.522	15467.45
768.712	15506.37
768.903	15098.82
769.093	15016.9
769.284	15475.65
769.474	15274.95
769.665	14945.22
769.855	14650.32
770.046	15557.57
770.236	15025.09
770.426	15131.59
770.617	14914.5
770.807	15223.75
770.998	15315.9
771.188	15021
771.378	14934.98
771.569	15383.49
771.759	15322.05
771.949	14777.29
772.139	14922.69
772.33	15213.51
772.52	15512.51
772.71	14715.85
772.9	14451.66
773.09	15459.26
773.281	15283.14
773.471	14676.94
773.661	14828.49
773.851	15328.19
774.041	14795.72
774.231	14455.76
774.421	14828.49
774.611	15057.86
774.802	14828.49
774.992	14697.42
775.182	14820.3
775.372	14738.38
775.562	15225.79
775.752	14785.48
775.942	14709.71
776.131	15492.03
776.321	14867.4
776.511	14969.8
776.701	14816.2
776.891	14947.27
777.081	14699.47
777.271	14744.52
777.461	14339.02
777.651	14885.83
777.84	15244.23
778.03	14334.93
778.22	14246.87
778.41	14939.08
778.599	14595.02
778.789	14375.89
778.979	14414.8
779.169	14670.79
779.358	14760.91
779.548	14660.55
779.738	14386.13
779.927	14527.44
780.117	14390.22
780.307	14398.41
780.496	14267.34
780.686	14656.46
780.875	14951.37
781.065	14164.95
781.254	14232.53
781.444	14509.01
781.633	14549.96
781.823	13886.42
782.012	14349.26
782.202	14445.52
782.391	14455.76
782.581	14064.6
782.77	14660.55
782.96	14808.01
783.149	14525.39
783.338	14189.52
783.528	13812.7
783.717	14613.45
783.906	14754.76
784.096	13956.05
784.285	13898.71
784.474	14193.62
784.663	14119.89
784.853	13947.86
785.042	13935.57
785.231	14371.79
785.42	14517.2
785.61	14181.33
785.799	14062.55
785.988	14197.71
786.177	14042.07
786.366	14246.87
786.555	14363.6
786.744	14382.03
786.933	14171.09
787.122	13939.67
787.312	14050.26
787.501	14095.32
787.69	14232.53
787.879	13913.05
788.068	13622.23
788.257	13937.62
788.445	13911
788.634	13921.24
788.823	13851.61
789.012	14810.06
789.201	14740.43
789.39	13814.74
789.579	13718.49
789.768	13984.73
789.957	14140.37
790.145	13728.73
790.334	13401.05
790.523	13648.86
790.712	14193.62
790.9	13863.9
791.089	13460.45
791.278	14263.25
791.467	14095.32
791.655	14115.8
791.844	13915.09
792.033	14003.16
792.221	13751.26
792.41	13482.97
792.599	13474.78
792.787	13886.42
792.976	14080.98
793.164	13597.66
793.353	13769.69
793.541	14201.81
793.73	14132.18
793.918	13685.72
794.107	13558.75
794.295	14031.83
794.484	13794.26
794.672	13585.37
794.861	13558.75
795.049	13915.09
795.238	14040.02
795.426	13288.42
795.614	13409.25
795.803	13974.49
795.991	14203.86
796.179	13292.51
796.368	13376.48
796.556	13978.58
796.744	13261.79
796.932	13362.14
797.121	13114.34
797.309	13525.98
797.497	13962.2
797.685	13341.66
797.874	13560.8
798.062	13487.07
798.25	14007.25
798.438	13374.43
798.626	13261.79
798.814	13855.7
799.002	14189.52
799.19	13667.29
799.378	13315.04
799.566	14132.18
799.755	13978.58
799.943	13366.24
800.131	13380.57
800.318	13818.84
800.506	13859.8
800.694	13409.25
800.882	13661.15
801.07	14066.64
801.258	13644.76
801.446	13538.27
801.634	13358.05
801.822	13700.06
802.01	13927.38
802.197	13575.13
802.385	13765.59
802.573	13874.13
802.761	13505.5
802.949	13628.38
803.136	13448.16
803.324	14103.51
803.512	13843.42
803.699	13568.99
803.887	13370.33
804.075	14095.32
804.262	13818.84
804.45	13736.92
804.638	13659.1
804.825	13636.57
805.013	13607.9
805.201	13865.94
805.388	13661.15
805.576	13919.19
805.763	14468.05
805.951	13779.93
806.138	13923.29
806.326	14343.12
806.513	14042.07
806.701	14097.36
806.888	13878.23
807.075	14273.49
807.263	14318.54
807.45	13994.97
807.638	13870.04
807.825	14590.92
808.012	14320.59
808.2	14025.68
808.387	14273.49
808.574	14386.13
808.761	14681.03
808.949	13925.33
809.136	14076.88
809.323	14310.35
809.51	14255.06
809.698	14281.68
809.885	14144.47
810.072	14371.79
810.259	14533.58
810.446	14148.56
810.633	13661.15
810.82	14660.55
811.008	14685.13
811.195	14320.59
811.382	14087.12
811.569	14353.36
811.756	14078.93
811.943	14253.01
812.13	14019.54
812.317	14371.79
812.504	14289.87
812.691	14300.11
812.878	14361.55
813.064	14717.9
813.251	14343.12
813.438	14187.47
813.625	14416.85
813.812	14078.93
813.999	14664.65
814.186	14365.65
814.372	14312.4
814.559	14343.12
814.746	14322.64
814.933	14040.02
815.12	14296.02
815.306	14169.04
815.493	14142.42
815.68	14195.67
815.866	14046.16
816.053	14756.81
816.24	14887.88
816.426	13970.39
816.613	14044.12
816.799	14595.02
816.986	14904.26
817.173	14232.53
817.359	14126.04
817.546	14513.1
817.732	14001.11
817.919	13962.2
818.105	14136.27
818.292	14203.86
818.478	14619.6
818.665	14316.5
818.851	14203.86
819.037	14851.02
819.224	14607.31
819.41	14005.2
819.597	14152.66
819.783	14965.7
819.969	14515.15
820.156	13964.25
820.342	14068.69
820.528	15328.19
820.714	14279.63
820.901	14240.72
821.087	14130.13
821.273	14869.45
821.459	14136.27
821.646	13927.38
821.832	13939.67
822.018	14420.94
822.204	14199.76
822.39	13616.09
822.576	13822.94
822.762	14486.48
822.948	14324.69
823.134	14078.93
823.32	13790.17
823.507	13833.18
823.693	14111.7
823.879	14220.24
824.065	13886.42
824.25	14128.08
824.436	13736.92
824.622	13800.41
824.808	13675.48
824.994	13831.13
825.18	13784.02
825.366	13757.4
825.552	13599.71
825.738	13964.25
825.923	14197.71
826.109	13917.14
826.295	13493.21
826.481	13452.25
826.667	13882.33
826.852	13853.66
827.038	13356
827.224	14300.11
827.409	14533.58
827.595	13233.12
827.781	13579.23
827.966	14191.57
828.152	14037.97
828.338	13841.37
828.523	13321.18
828.709	13718.49
828.894	14232.53
829.08	13710.3
829.266	13691.87
829.451	13853.66
829.637	13597.66
829.822	13501.4
830.008	13368.29
830.193	14119.89
830.378	13927.38
830.564	13468.64
830.749	13376.48
830.935	13792.22
831.12	13724.63
831.305	13317.09
831.491	13401.05
831.676	13173.73
831.861	13773.78
832.047	13448.16
832.232	13171.68
832.417	13915.09
832.602	13568.99
832.788	13370.33
832.973	13057
833.158	13593.56
833.343	13446.11
833.528	13349.85
833.714	13292.51
833.899	13480.92
834.084	14017.49
834.269	13284.32
834.454	13093.86
834.639	13601.76
834.824	13476.83
835.009	13339.62
835.194	13337.57
835.379	13583.32
835.564	13646.81
835.749	13067.24
835.934	12876.77
836.119	13525.98
836.304	13353.95
836.489	12854.25
836.674	13147.11
836.859	12987.36
837.044	13399.01
837.228	13122.53
837.413	12839.91
837.598	13456.35
837.783	13605.85
837.968	12905.45
838.152	12710.89
838.337	12882.92
838.522	13638.62
838.707	13374.43
838.891	13134.82
839.076	13171.68
839.261	13300.7
839.445	12776.42
839.63	12911.59
839.815	13374.43
839.999	13040.61
840.184	12788.71
840.368	12762.09
840.553	13175.78
840.737	13392.86
840.922	12665.83
841.106	12712.94
841.291	12710.89
841.475	13044.71
841.66	12702.7
841.844	12825.57
842.029	13575.13
842.213	12805.1
842.397	12618.73
842.582	12356.59
842.766	13343.71
842.951	13036.52
843.135	12760.04
843.319	12557.29
843.504	12821.48
843.688	13061.09
843.872	12385.26
844.056	12495.85
844.241	12889.06
844.425	12854.25
844.609	12827.62
844.793	12377.07
844.977	12938.21
845.161	12880.87
845.346	12356.59
845.53	12446.7
845.714	12678.12
845.898	13118.43
846.082	12084.21
846.266	12366.83
846.45	12409.84
846.634	12641.26
846.818	12512.24
847.002	12495.85
847.186	12844.01
847.37	12147.7
847.554	12028.92
847.738	12489.71
847.922	12358.64
848.106	12461.04
848.29	12049.39
848.473	12248.05
848.657	12622.83
848.841	12467.18
849.025	12039.15
849.209	11985.91
849.392	12813.29
849.576	12448.75
849.76	11803.64
849.944	12223.47
850.127	12698.6
850.311	12264.43
850.495	12119.03
850.678	12119.03
850.862	12805.1
851.046	12327.92
851.229	12186.61
851.413	11828.21
851.596	12450.8
851.78	12270.58
851.964	12293.1
852.147	12053.49
852.331	13140.96
852.514	12643.31
852.698	12188.66
852.881	11533.31
853.065	12473.32
853.248	12010.48
853.431	12090.35
853.615	11928.56
853.798	12465.13
853.982	12061.68
854.165	11781.11
854.348	11955.19
854.532	12026.87
854.715	11844.6
854.898	12022.77
855.081	11758.58
855.265	12512.24
855.448	12407.79
855.631	11523.07
855.814	11619.32
855.997	12104.69
856.181	11850.74
856.364	11803.64
856.547	11480.06
856.73	12121.07
856.913	11869.17
857.096	11609.08
857.279	11785.21
857.462	11545.59
857.645	12264.43
857.828	11815.93
858.011	11877.37
858.194	11705.34
858.377	11930.61
858.56	11643.9
858.743	11629.56
858.926	11439.1
859.109	11906.04
859.292	11488.25
859.475	11092.99
859.658	12053.49
859.841	12121.07
860.023	11191.3
860.206	11293.69
860.389	11672.57
860.572	12026.87
860.755	11207.68
860.937	11492.35
861.12	11480.06
861.303	11602.94
861.486	11377.66
861.668	10974.21
861.851	11621.37
862.034	11650.04
862.216	11496.44
862.399	11021.31
862.581	11598.84
862.764	11695.1
862.947	11312.13
863.129	10808.33
863.312	11070.47
863.494	11756.54
863.677	11252.73
863.859	10791.94
864.042	11508.73
864.224	11678.71
864.406	11031.55
864.589	10746.89
864.771	11691
864.954	10978.31
865.136	10912.77
865.318	10716.17
865.501	11346.94
865.683	10564.62
865.865	10748.93
866.048	10746.89
866.23	11176.96
866.412	11201.54
866.594	10755.08
866.777	10929.16
866.959	11181.06
867.141	10920.96
867.323	10906.63
867.505	10888.2
867.687	11082.75
867.869	11129.86
868.052	10730.5
868.234	10677.26
868.416	11009.03
868.598	11195.39
868.78	10589.19
868.962	10554.38
869.144	11344.89
869.326	11187.2
869.508	10558.47
869.69	10531.85
869.872	10812.42
870.054	11340.8
870.236	10392.59
870.417	10607.62
870.599	10628.1
870.781	11500.54
870.963	10693.64
871.145	10591.24
871.327	10648.58
871.508	11195.39
871.69	10697.74
871.872	10730.5
872.054	10750.98
872.235	10931.2
872.417	10673.16
872.599	10515.47
872.78	11412.48
872.962	10998.79
873.144	10273.81
873.325	10710.02
873.507	11150.34
873.689	11160.58
873.87	10601.48
874.052	10681.35
874.233	10849.29
874.415	11174.91
874.596	10652.68
874.778	10445.84
874.959	10830.85
875.141	11052.03
875.322	10664.97
875.503	10601.48
875.685	11232.26
875.866	10468.36
876.048	10404.88
876.229	10554.38
876.41	10611.72
876.592	11072.51
876.773	10761.22
876.954	10288.14
877.136	11465.72
877.317	10847.24
877.498	10390.54
877.679	10777.61
877.86	11123.71
878.042	10871.81
878.223	10607.62
878.404	11062.27
878.585	10904.58
878.766	11586.55
878.947	11054.08
879.128	11015.17
879.309	11529.21
879.49	11332.61
879.672	11080.71
879.853	10761.22
880.034	10900.48
880.215	10963.97
880.396	10896.39
880.576	10855.43
880.757	10832.9
880.938	11336.7
881.119	10972.16
881.3	10869.76
881.481	11023.36
881.662	12258.29
881.843	10755.08
882.023	11002.88
882.204	11475.96
882.385	11281.41
882.566	11021.31
882.747	10902.53
882.927	11246.59
883.108	11414.52
883.289	11054.08
883.469	11363.33
883.65	11164.67
883.831	11432.96
884.011	11279.36
884.192	11125.76
884.373	11516.92
884.553	11297.79
884.734	11314.17
884.914	11643.9
885.095	12399.6
885.275	11822.07
885.456	11615.23
885.636	11254.78
885.817	11635.71
885.997	11549.69
886.178	11140.1
886.358	11488.25
886.538	11715.58
886.719	12588.01
886.899	11344.89
887.08	11611.13
887.26	11891.7
887.44	11320.32
887.621	11346.94
887.801	11441.15
887.981	12418.03
888.161	11920.37
888.342	11623.42
888.522	11494.4
888.702	11967.48
888.882	12022.77
889.062	11570.17
889.242	11295.74
889.423	12024.82
889.603	11998.2
889.783	11592.7
889.963	11453.44
890.143	11955.19
890.323	11990
890.503	11725.82
890.683	11672.57
890.863	11961.33
891.043	12039.15
891.223	11686.9
891.403	11760.63
891.583	11748.34
891.763	11795.45
891.943	11856.89
892.122	11672.57
892.302	12168.18
892.482	12047.35
892.662	11903.99
892.842	11684.86
893.022	12047.35
893.201	11766.78
893.381	11885.56
893.561	11752.44
893.741	12119.03
893.92	12102.64
894.1	11934.71
894.28	11584.51
894.459	12297.2
894.639	12186.61
894.819	11465.72
894.998	11772.92
895.178	12223.47
895.357	12080.11
895.537	11547.64
895.716	11547.64
895.896	11848.69
896.075	12198.9
896.255	11846.65
896.434	11480.06
896.614	12286.96
896.793	12131.31
896.973	11938.8
897.152	11764.73
897.331	12194.8
897.511	12350.45
897.69	11578.36
897.87	11719.67
898.049	12174.32
898.228	11899.89
898.407	11707.38
898.587	11731.96
898.766	11789.3
898.945	12033.01
899.124	11781.11
899.304	11817.97
899.483	12176.37
899.662	12131.31
899.841	11428.86
900.02	11717.62
900.199	11922.42
900.378	11990
900.557	11420.67
900.737	11656.18
900.916	12059.63
901.095	12041.2
901.274	11844.6
901.453	11518.97
901.632	11691
901.811	11471.87
901.989	11490.3
902.168	11416.57
902.347	11971.57
902.526	11430.91
902.705	11471.87
902.884	11670.52
903.063	12039.15
903.242	11854.84
903.42	11222.02
903.599	11531.26
903.778	11860.98
903.957	11844.6
904.135	11412.48
904.314	11183.1
904.493	11686.9
904.672	11607.03
904.85	11318.27
905.029	11168.77
905.207	11490.3
905.386	12176.37
905.565	11070.47
905.743	11041.79
905.922	11160.58
906.1	11598.84
906.279	11023.36
906.457	10886.15
906.636	11250.69
906.814	11353.09
906.993	11025.41
907.171	11052.03
907.35	11602.94
907.528	11222.02
907.707	11330.56
907.885	11004.93
908.063	11621.37
908.242	11019.27
908.42	10943.49
908.598	10677.26
908.777	11453.44
908.955	11009.03
909.133	11183.1
909.311	10798.09
909.49	10882.05
909.668	11209.73
909.846	10847.24
910.024	10675.21
910.202	11121.66
910.38	11146.24
910.559	10527.75
910.737	10454.03
910.915	10990.59
911.093	10918.92
911.271	10458.12
911.449	10499.08
911.627	10888.2
911.805	11195.39
911.983	10640.39
912.161	10294.29
912.339	10793.99
912.517	11158.53
912.695	10568.71
912.872	10351.63
913.05	10488.84
913.228	10677.26
913.406	10427.4
913.584	10284.05
913.762	10671.11
913.939	10406.92
914.117	10277.9
914.295	10220.56
914.473	10603.53
914.65	10566.67
914.828	10167.31
915.006	10083.34
915.184	9976.85
915.361	10556.43
915.539	10157.07
915.716	10114.06
915.894	10128.4
916.072	10339.34
916.249	10015.76
916.427	9956.37
916.604	10011.67
916.782	10232.85
916.959	9827.35
917.137	10032.15
917.314	10060.82
917.492	10261.52
917.669	9954.32
917.847	9827.35
918.024	10200.08
918.201	9888.79
918.379	10021.91
918.556	9995.28
918.733	10200.08
918.911	9942.03
919.088	9952.27
919.265	9618.46
919.442	9968.66
919.62	9565.21
919.797	9577.5
919.974	9090.08
920.151	9929.75
920.328	9692.18
920.506	9421.85
920.683	9727
920.86	9415.71
921.037	9425.95
921.214	9413.66
921.391	9249.82
921.568	9741.33
921.745	9370.65
921.922	9145.38
922.099	9016.35
922.276	9847.83
922.453	9524.25
922.63	9020.45
922.807	9241.63
922.984	9370.65
923.161	9038.88
923.338	8932.39
923.514	9034.78
923.691	9344.03
923.868	9280.54
924.045	9016.35
924.222	8879.14
924.399	9309.21
924.575	9528.35
924.752	8852.52
924.929	8916
925.105	9114.66
925.282	8655.91
925.459	8786.98
925.635	8682.53
925.812	8801.32
925.989	8649.77
926.165	8651.81
926.342	8365.1
926.518	8328.24
926.695	8660.01
926.871	8135.73
927.048	8125.49
927.224	8682.53
927.401	8318
927.577	8156.21
927.754	8197.17
927.93	8672.29
928.107	8584.23
928.283	8066.1
928.459	8334.38
928.636	8449.07
928.812	8262.7
928.988	8059.95
929.165	7982.13
929.341	8356.91
929.517	8164.4
929.693	8395.82
929.87	7691.32
930.046	8234.03
930.222	7781.43
930.398	7842.87
930.574	7803.96
930.751	8113.2
930.927	7758.9
931.103	7705.65
931.279	7654.45
931.455	7582.77
931.631	7801.91
931.807	7488.57
931.983	7312.44
932.159	7257.15
932.335	7554.1
932.511	7318.59
932.687	7343.16
932.863	7568.44
933.039	7351.35
933.215	7140.41
933.391	7007.3
933.566	7089.21
933.742	7326.78
933.918	7025.73
934.094	6743.11
934.27	7158.85
934.445	7044.16
934.621	6820.93
934.797	6687.81
934.973	6880.32
935.148	6808.64
935.324	6341.71
935.5	6231.12
935.675	6777.92
935.851	6710.34
936.027	6448.2
936.202	6216.78
936.378	6353.99
936.553	6108.24
936.729	6370.38
936.904	5737.56
937.08	5753.94
937.255	5661.78
937.431	5577.81
937.606	5301.34
937.782	5645.4
937.957	5538.9
938.133	5395.54
938.308	5170.27
938.483	5551.19
938.659	5117.02
938.834	4998.24
939.009	4727.91
939.185	5002.33
939.36	4824.16
939.535	4170.86
939.71	4748.39
939.886	5106.78
940.061	4940.9
940.236	4721.76
940.411	4428.9
940.586	4701.28
940.761	4777.06
940.937	4220.01
941.112	4129.9
941.287	4375.66
941.462	4265.07
941.637	3902.58
941.812	4045.93
941.987	4152.43
942.162	4330.6
942.337	3941.49
942.512	3961.97
942.687	4346.98
942.862	4275.31
943.037	3638.39
943.212	3630.2
943.386	3988.59
943.561	4185.19
943.736	3894.38
943.911	4097.13
944.086	4060.27
944.26	4004.97
944.435	3640.44
944.61	3767.41
944.785	4148.33
944.959	4408.42
945.134	3734.64
945.309	3734.64
945.483	3708.02
945.658	4211.82
945.833	3429.49
946.007	3581.04
946.182	4172.91
946.357	3691.63
946.531	3630.2
946.706	3562.61
946.88	3411.06
947.055	3892.34
947.229	3564.66
947.404	3505.27
947.578	4111.47
947.752	3878
947.927	3646.58
948.101	3419.25
948.276	3908.72
948.45	3978.35
948.624	3906.67
948.799	3435.64
948.973	3998.83
949.147	3628.15
949.321	3636.34
949.496	3679.35
949.67	4238.44
949.844	3974.25
950.018	3562.61
950.193	3648.63
950.367	4377.7
950.541	3798.13
950.715	3728.5
950.889	3748.98
951.063	3808.37
951.237	4019.31
951.411	3441.78
951.585	3454.07
951.759	3923.05
951.933	3880.05
952.107	3587.19
952.281	3908.72
952.455	4224.11
952.629	3976.3
952.803	3642.48
952.977	3560.56
953.151	4043.88
953.325	3871.86
953.499	3652.72
953.672	3585.14
953.846	3615.86
954.02	3712.11
954.194	3671.15
954.368	3589.24
954.541	3961.97
954.715	3642.48
954.889	3724.4
955.062	3691.63
955.236	3779.7
955.41	3802.22
955.583	3697.78
955.757	3454.07
955.93	3714.16
956.104	3509.37
956.278	3546.23
956.451	3595.38
956.625	3886.19
956.798	4162.67
956.972	3767.41
957.145	3497.08
957.319	3888.24
957.492	3693.68
957.665	3753.07
957.839	3585.14
958.012	3882.1
958.185	3447.93
958.359	3558.52
958.532	3687.54
958.705	4045.93
958.879	3830.9
959.052	3703.92
959.225	3273.85
959.398	3503.22
959.572	3679.35
959.745	3533.94
959.918	3476.6
960.091	3556.47
960.264	3931.25
960.438	3308.66
960.611	3236.99
960.784	3851.38
960.957	3601.52
961.13	3630.2
961.303	3421.3
961.476	3658.87
961.649	3800.18
961.822	3277.94
961.995	3472.5
962.168	3765.36
962.341	3681.39
962.514	3439.73
962.686	3286.14
962.859	3685.49
963.032	3640.44
963.205	3316.86
963.378	3359.86
963.551	3656.82
963.723	3613.81
963.896	3515.51
964.069	3470.45
964.242	3542.13
964.414	3824.75
964.587	3372.15
964.76	3452.02
964.932	3585.14
965.105	3515.51
965.278	3466.36
965.45	3325.05
965.623	3583.09
965.795	3669.11
965.968	3421.3
966.14	3325.05
966.313	3558.52
966.485	3478.65
966.658	3220.6
966.83	3142.78
967.003	3753.07
967.175	3656.82
967.348	3265.66
967.52	3359.86
967.692	3867.76
967.865	3546.23
968.037	3335.29
968.209	3576.95
968.382	3550.32
968.554	3638.39
968.726	3198.07
968.898	3249.27
969.071	3574.9
969.243	3482.74
969.415	3144.83
969.587	3314.81
969.759	3966.06
969.932	3665.01
970.104	3232.89
970.276	2937.98
970.448	3370.1
970.62	3263.61
970.792	3259.51
970.964	3169.4
971.136	3929.2
971.308	3503.22
971.48	3146.87
971.652	3101.82
971.824	3763.31
971.996	3404.92
972.168	3155.07
972.339	3114.11
972.511	3597.43
972.683	3261.56
972.855	3384.44
973.027	3157.11
973.199	3247.23
973.37	3497.08
973.542	3220.6
973.714	3351.67
973.886	3249.27
974.057	3689.59
974.229	2929.79
974.401	3038.33
974.572	3052.67
974.744	2933.89
974.915	2894.97
975.087	2983.04
975.259	3464.31
975.43	3150.97
975.602	2991.23
975.773	2849.92
975.945	3017.85
976.116	3392.63
976.288	2868.35
976.459	3150.97
976.63	3279.99
976.802	3245.18
976.973	2860.16
977.145	3175.55
977.316	3656.82
977.487	3634.29
977.659	3017.85
977.83	2915.45
978.001	3478.65
978.172	3136.63
978.344	2757.76
978.515	3021.95
978.686	3026.04
978.857	3345.53
979.028	2839.68
979.2	2849.92
979.371	3413.11
979.542	3058.81
979.713	3058.81
979.884	2622.59
980.055	2892.93
980.226	2999.42
980.397	2811.01
980.568	2589.83
980.739	3226.75
980.91	3138.68
981.081	3001.47
981.252	2731.14
981.423	3228.79
981.594	3308.66
981.765	2663.55
981.936	2882.69
982.106	3048.57
982.277	3265.66
982.448	2798.72
982.619	3019.9
982.79	2983.04
982.96	3130.49
983.131	2868.35
983.302	2618.5
983.472	2868.35
983.643	3030.14
983.814	2892.93
983.984	2667.65
984.155	2774.14
984.326	3159.16
984.496	2755.71
984.667	2673.79
984.837	2763.9
985.008	3263.61
985.178	2757.76
985.349	2831.49
985.519	2921.6
985.69	2724.99
985.86	2647.17
986.031	2518.15
986.201	2905.21
986.371	2899.07
986.542	2442.37
986.712	2479.24
986.882	2944.13
987.053	3017.85
987.223	2589.83
987.393	2649.22
987.563	2741.38
987.734	2876.54
987.904	2878.59
988.074	2407.56
988.244	2768
988.414	2557.06
988.585	2434.18
988.755	2595.97
988.925	2870.4
989.095	3144.83
989.265	2483.33
989.435	2557.06
989.605	2944.13
989.775	2786.43
989.945	2706.56
990.115	2260.1
990.285	2665.6
990.455	2755.71
990.625	2557.06
990.795	2358.41
990.965	2968.7
991.134	2464.9
991.304	2350.21
991.474	2440.33
991.644	2751.62
991.814	3079.29
991.984	2167.95
992.153	2346.12
992.323	2432.13
992.493	2591.88
992.662	2169.99
992.832	2522.24
993.002	2663.55
993.171	2524.29
993.341	2196.62
993.511	2493.57
993.68	2483.33
993.85	2612.35
994.019	2155.66
994.189	2223.24
994.358	2563.2
994.528	2411.65
994.697	2073.74
994.867	2112.65
995.036	2684.03
995.206	2309.26
995.375	2245.77
995.544	2286.73
995.714	2544.77
995.883	2442.37
996.052	2395.27
996.222	1942.67
996.391	2878.59
996.56	2522.24
996.73	2008.2
996.899	1934.48
997.068	2724.99
997.237	2413.7
997.406	2122.89
997.576	1897.61
997.745	2507.91
997.914	2450.57
998.083	1887.37
998.252	2008.2
998.421	2520.2
998.59	2188.43
998.759	1952.91
998.928	2047.12
999.097	2712.71
999.266	2389.13
999.435	2229.38
999.604	1840.27
999.773	2884.73
999.942	2172.04
1000.111	1844.37
1000.28	1823.89
1000.448	2182.28
1000.617	1977.48
1000.786	2167.95
1000.955	1836.17
1001.124	2245.77
1001.292	2917.5
1001.461	1918.09
1001.63	2026.64
1001.798	2663.55
1001.967	2577.54
1002.136	1670.29
1002.304	1957
1002.473	2315.4
1002.642	2221.19
1002.81	1893.52
1002.979	1846.41
1003.147	2401.41
1003.316	2735.23
1003.484	1766.54
1003.653	1758.35
1003.821	2374.79
1003.99	1942.67
1004.158	2020.49
1004.327	1881.23
1004.495	2270.34
1004.663	1803.41
1004.832	1975.44
1005	1578.13
1005.168	2253.96
1005.337	2098.31
1005.505	1664.15
1005.673	1975.44
1005.842	2161.8
1006.01	2155.66
1006.178	1655.95
1006.346	1754.26
1006.514	2069.64
1006.683	2376.84
1006.851	1807.5
1007.019	1547.41
1007.187	1803.41
1007.355	1539.22
1007.523	1483.92
1007.691	1643.67
1007.859	1760.4
1008.027	2356.36
1008.195	1692.82
1008.363	1586.32
1008.531	2180.23
1008.699	1940.62
1008.867	1598.61
1009.035	1655.95
1009.203	2282.63
1009.37	1862.8
1009.538	1670.29
1009.706	2108.55
1009.874	1983.63
1010.042	1684.62
1010.209	1543.32
1010.377	1528.98
1010.545	2184.33
1010.713	1885.33
1010.88	1518.74
1011.048	1553.55
1011.216	1758.35
1011.383	2225.29
1011.551	1533.08
1011.718	1346.71
1011.886	2045.07
1012.054	1770.64
1012.221	1406.1
1012.389	1449.11
1012.556	1768.59
1012.724	2270.34
1012.891	1549.46
1013.058	1240.22
1013.226	1938.57
1013.393	2051.21
1013.561	1303.7
1013.728	1268.89
1013.895	2069.64
1014.063	1836.17
1014.23	1279.13
1014.397	1365.14
1014.565	1932.43
1014.732	1692.82
1014.899	1434.77
1015.066	1428.63
1015.233	1760.4
1015.401	1860.75
1015.568	1399.96
1015.735	1432.72
1015.902	1805.46
1016.069	1770.64
1016.236	1260.7
1016.403	1262.74
1016.57	1438.87
1016.737	1844.37
1016.904	1375.38
1017.071	1236.12
1017.238	1502.36
1017.405	1901.71
1017.572	1309.85
1017.739	1541.27
1017.906	1801.36
1018.073	1819.79
1018.24	1184.92
1018.407	1242.26
1018.573	1664.15
1018.74	1449.11
1018.907	1217.69
1019.074	1094.81
1019.241	1797.26
1019.407	1592.47
1019.574	1195.16
1019.741	1025.18
1019.907	1619.09
1020.074	1701.01
1020.241	1055.9
1020.407	1191.06
1020.574	1653.91
1020.74	1684.62
1020.907	1109.15
1021.073	1088.67
1021.24	2073.74
1021.406	1868.94
1021.573	963.74
1021.739	1156.25
1021.906	1842.32
1022.072	1516.69
1022.239	1191.06
1022.405	1203.35
1022.571	1522.84
1022.738	1285.27
1022.904	1195.16
1023.07	1162.39
1023.237	1442.96
1023.403	1686.67
1023.569	1143.96
1023.735	1160.34
1023.902	1586.32
1024.068	1455.25
1024.234	926.88
1024.4	1004.7
1024.566	1524.88
1024.732	1635.47
1024.898	1031.32
1025.065	840.86
1025.231	1590.42
1025.397	1313.94
1025.563	1115.29
1025.729	930.97
1025.895	973.98
1026.061	1152.15
1026.227	836.77
1026.392	1078.43
1026.558	1520.79
1026.724	1485.97
1026.89	900.25
1027.056	1105.05
1027.222	1402.01
1027.388	1303.7
1027.553	865.44
1027.719	926.88
1027.885	1674.39
1028.051	1440.92
1028.216	726.18
1028.382	1008.8
1028.548	1428.63
1028.713	1156.25
1028.879	736.42
1029.045	1051.8
1029.21	1614.99
1029.376	1479.83
1029.541	898.2
1029.707	902.3
1029.873	1397.91
1030.038	1356.95
1030.204	898.2
1030.369	896.16
1030.534	1432.72
1030.7	1242.26
1030.865	847.01
1031.031	812.19
1031.196	1334.42
1031.361	1197.21
1031.527	789.66
1031.692	754.85
1031.857	824.48
1032.023	1281.18
1032.188	756.9
1032.353	949.4
1032.518	1531.03
1032.684	1092.76
1032.849	634.02
1033.014	873.63
1033.179	1252.5
1033.344	1342.61
1033.509	814.24
1033.674	777.37
1033.839	1258.65
1034.004	1219.74
1034.17	779.42
1034.335	701.6
1034.5	973.98
1034.664	853.15
1034.829	681.12
1034.994	838.81
1035.159	1115.29
1035.324	1195.16
1035.489	773.28
1035.654	775.33
1035.819	1359
1035.984	1189.02
1036.148	775.33
1036.313	713.89
1036.478	1324.18
1036.643	1016.99
1036.807	652.45
1036.972	582.82
1037.137	1324.18
1037.301	1092.76
1037.466	539.81
1037.631	773.28
1037.795	1246.36
1037.96	1088.67
1038.124	763.04
1038.289	537.76
1038.454	1266.84
1038.618	1096.86
1038.783	638.11
1038.947	707.74
1039.111	1113.24
1039.276	847.01
1039.44	636.06
1039.605	1146.01
1039.769	924.83
1039.933	951.45
1040.098	664.74
1040.262	937.12
1040.426	1150.11
1040.591	1098.91
1040.755	568.48
1040.919	652.45
1041.083	1117.34
1041.248	890.01
1041.412	447.65
1041.576	554.15
1041.74	943.26
1041.904	1119.39
1042.068	412.84
1042.232	558.24
1042.397	1066.14
1042.561	1049.75
1042.725	355.49
1042.889	674.98
1043.053	1141.91
1043.217	1004.7
1043.381	664.74
1043.544	388.26
1043.708	1103
1043.872	580.77
1044.036	271.53
1044.2	431.27
1044.364	1143.96
1044.528	1203.35
1044.691	3851.38
1044.855	386.21
1045.019	1082.52
1045.183	994.46
1045.346	476.32
1045.51	433.32
1045.674	996.51
1045.837	1008.8
1046.001	445.6
1046.165	523.43
1046.328	1361.05
1046.492	896.16
1046.655	646.3
1046.819	586.91
1046.983	754.85
1047.146	1033.37
1047.31	611.49
1047.473	310.44
1047.636	861.34
1047.8	677.02
1047.963	507.04
1048.127	296.1
1048.29	607.39
