Data from Ink_Intensity_USB4F045381__179__00179.txt Node

Date: Mon Jul 17 11:41:07 EDT 2023
User: mmckonesweet
Spectrometer: USB4F04538
Trigger mode: 4
Integration Time (sec): 9.000000E-1
Scans to average: 1
Electric dark correction enabled: true
Nonlinearity correction enabled: false
Boxcar width: 0
XAxis mode: Wavelengths
Number of Pixels in Spectrum: 3648
>>>>>Begin Spectral Data<<<<<
345.52	-1078.08
345.736	-1078.08
345.952	-1078.08
346.168	-1039.17
346.384	-975.69
346.6	-133.97
346.816	-228.18
347.032	-209.75
347.248	275.62
347.464	-252.75
347.68	-185.17
347.896	119.98
348.112	373.92
348.328	-52.05
348.544	-50
348.76	113.83
348.975	228.52
349.191	-287.57
349.407	-197.46
349.623	64.68
349.839	-95.06
350.055	-172.88
350.27	50.35
350.486	162.98
350.702	259.24
350.918	220.33
351.133	-185.17
351.349	54.44
351.565	322.73
351.781	-254.8
351.996	9.39
352.212	240.81
352.428	-129.88
352.644	-289.62
352.859	-303.95
353.075	351.4
353.291	111.78
353.506	-164.69
353.722	-271.19
353.938	-90.96
354.153	388.26
354.369	3.24
354.584	-195.41
354.8	169.13
355.016	-377.68
355.231	-289.62
355.447	-54.1
355.662	52.39
355.878	734.37
356.093	-369.49
356.309	-37.72
356.524	-250.71
356.74	191.66
356.955	-283.47
357.171	-109.4
357.386	109.74
357.602	-283.47
357.817	-70.48
358.033	-187.22
358.248	375.97
358.464	99.5
358.679	-125.78
358.895	-349.01
359.11	-13.14
359.325	228.52
359.541	52.39
359.756	-2.9
359.972	-283.47
360.187	150.7
360.402	-238.42
360.618	-246.61
360.833	963.74
361.048	113.83
361.264	-179.03
361.479	-105.3
361.694	-25.43
361.909	76.97
362.125	-226.13
362.34	-152.4
362.555	203.94
362.77	109.74
362.986	-306
363.201	-215.89
363.416	83.11
363.631	-84.82
363.847	-299.86
364.062	-172.88
364.277	128.17
364.492	95.4
364.707	-115.54
364.922	-414.54
365.138	189.61
365.353	292.01
365.568	-299.86
365.783	-189.27
365.998	93.35
366.213	490.66
366.428	-242.51
366.643	72.87
366.858	249
367.073	185.51
367.288	-185.17
367.503	-301.9
367.718	76.97
367.933	365.73
368.148	-363.34
368.363	-4.95
368.578	-9.05
368.793	373.92
369.008	-236.37
369.223	-295.76
369.438	136.36
369.653	361.64
369.868	-287.57
370.083	-349.01
370.298	50.35
370.513	326.82
370.728	36.01
370.943	-242.51
371.157	-164.69
371.372	474.28
371.587	-318.29
371.802	-205.65
372.017	29.87
372.232	324.77
372.446	-76.63
372.661	-308.05
372.876	162.98
373.091	167.08
373.306	-181.07
373.52	-291.66
373.735	-156.5
373.95	388.26
374.165	-131.92
374.379	-242.51
374.594	-168.79
374.809	42.15
375.023	-62.29
375.238	-197.46
375.453	218.28
375.667	-293.71
375.882	-160.59
376.097	-262.99
376.311	25.77
376.526	-13.14
376.741	-279.38
376.955	-4.95
377.17	519.33
377.384	586.91
377.599	-95.06
377.813	-340.82
378.028	631.97
378.242	199.85
378.457	-127.83
378.672	-381.78
378.886	130.22
379.101	-60.24
379.315	-418.64
379.53	-140.12
379.744	183.46
379.958	210.09
380.173	-164.69
380.387	-213.84
380.602	97.45
380.816	-195.41
381.031	-209.75
381.245	-164.69
381.459	162.98
381.674	2690.18
381.888	-271.19
382.103	36.01
382.317	-291.66
382.531	396.45
382.746	-144.21
382.96	-222.03
383.174	-60.24
383.388	412.84
383.603	60.59
383.817	-332.62
384.031	144.55
384.246	488.61
384.46	-74.58
384.674	236.71
384.888	-43.86
385.103	-45.91
385.317	-289.62
385.531	-60.24
385.745	310.44
385.959	185.51
386.174	-254.8
386.388	-287.57
386.602	-64.34
386.816	-156.5
387.03	-144.21
387.244	-181.07
387.458	-9.05
387.672	355.49
387.887	-306
388.101	-248.66
388.315	318.63
388.529	44.2
388.743	-228.18
388.957	-297.81
389.171	367.78
389.385	-238.42
389.599	-150.36
389.813	76.97
390.027	111.78
390.241	576.67
390.455	-166.74
390.669	-129.88
390.883	-160.59
391.097	371.88
391.311	-15.19
391.525	-262.99
391.738	173.22
391.952	72.87
392.166	-158.55
392.38	-217.94
392.594	236.71
392.808	240.81
393.022	-187.22
393.236	-144.21
393.449	160.94
393.663	158.89
393.877	-361.3
394.091	-93.01
394.305	-99.16
394.518	-156.5
394.732	-330.58
394.946	-232.27
395.16	390.31
395.373	25.77
395.587	-271.19
395.801	-248.66
396.015	306.34
396.228	195.75
396.442	-285.52
396.656	-387.92
396.869	339.11
397.083	476.32
397.297	-82.77
397.51	-269.14
397.724	304.29
397.938	89.26
398.151	-324.43
398.365	-338.77
398.578	109.74
398.792	316.58
399.005	-35.67
399.219	-168.79
399.433	76.97
399.646	187.56
399.86	-23.38
400.073	-52.05
400.287	128.17
400.5	-7
400.714	-54.1
400.927	-90.96
401.141	181.42
401.354	1086.62
401.567	134.31
401.781	-328.53
401.994	187.56
402.208	521.38
402.421	-150.36
402.635	-234.32
402.848	-9.05
403.061	253.09
403.275	11.43
403.488	-215.89
403.701	363.69
403.915	167.08
404.128	-52.05
404.341	-125.78
404.555	111.78
404.768	-62.29
404.981	76.97
405.195	-256.85
405.408	429.22
405.621	171.18
405.834	58.54
406.048	-312.14
406.261	363.69
406.474	421.03
406.687	-271.19
406.9	-95.06
407.114	42.15
407.327	177.32
407.54	-299.86
407.753	-357.2
407.966	-82.77
408.179	185.51
408.392	-236.37
408.605	-396.11
408.819	150.7
409.032	134.31
409.245	-140.12
409.458	27.82
409.671	156.84
409.884	234.66
410.097	-340.82
410.31	-29.52
410.523	175.27
410.736	-80.72
410.949	-136.02
411.162	-164.69
411.375	363.69
411.588	322.73
411.801	44.2
412.014	-191.31
412.227	-39.76
412.44	-58.2
412.653	-217.94
412.865	-50
413.078	292.01
413.291	232.62
413.504	-174.93
413.717	-340.82
413.93	234.66
414.143	-154.45
414.356	-148.31
414.568	-351.06
414.781	162.98
414.994	91.31
415.207	-131.92
415.42	-176.98
415.632	246.95
415.845	478.37
416.058	-346.96
416.271	-361.3
416.483	19.63
416.696	537.76
416.909	-238.42
417.121	-308.05
417.334	113.83
417.547	527.52
417.759	-275.28
417.972	-271.19
418.185	-101.2
418.397	267.43
418.61	-238.42
418.823	-246.61
419.035	369.83
419.248	23.72
419.46	-70.48
419.673	-125.78
419.885	138.41
420.098	36.01
420.311	-140.12
420.523	-432.97
420.736	175.27
420.948	70.83
421.161	-183.12
421.373	-318.29
421.586	70.83
421.798	-213.84
422.01	-394.06
422.223	-113.49
422.435	-219.99
422.648	210.09
422.86	-193.36
423.073	-230.23
423.285	292.01
423.497	-242.51
423.71	-207.7
423.922	-193.36
424.134	175.27
424.347	455.84
424.559	1.19
424.771	101.55
424.984	-21.33
425.196	126.12
425.408	-355.15
425.621	-322.38
425.833	249
426.045	322.73
426.257	-238.42
426.47	-181.07
426.682	150.7
426.894	183.46
427.106	-211.79
427.318	-133.97
427.531	-162.64
427.743	117.93
427.955	-234.32
428.167	167.08
428.379	56.49
428.591	-35.67
428.804	-107.35
429.016	-250.71
429.228	-68.44
429.44	87.21
429.652	89.26
429.864	-394.06
430.076	-86.87
430.288	-72.53
430.5	-150.36
430.712	-191.31
430.924	169.13
431.136	54.44
431.348	-375.63
431.56	-291.66
431.772	-78.68
431.984	-142.16
432.196	-273.23
432.408	-244.56
432.62	-123.73
432.832	160.94
433.044	40.11
433.256	-199.51
433.468	103.59
433.679	-310.1
433.891	-392.02
434.103	7.34
434.315	365.73
434.527	132.26
434.739	-109.4
434.95	-209.75
435.162	197.8
435.374	-125.78
435.586	-287.57
435.798	-240.47
436.009	-209.75
436.221	-158.55
436.433	-230.23
436.645	-201.55
436.856	-127.83
437.068	210.09
437.28	-201.55
437.491	44.2
437.703	64.68
437.915	60.59
438.126	-242.51
438.338	15.53
438.55	-29.52
438.761	134.31
438.973	-246.61
439.184	-222.03
439.396	81.07
439.608	222.38
439.819	-310.1
440.031	-224.08
440.242	234.66
440.454	220.33
440.665	-162.64
440.877	-66.39
441.088	46.25
441.3	-74.58
441.511	-420.69
441.723	-312.14
441.934	111.78
442.146	56.49
442.357	-39.76
442.569	46.25
442.78	52.39
442.991	375.97
443.203	72.87
443.414	-328.53
443.626	277.67
443.837	-136.02
444.048	-379.73
444.26	-424.78
444.471	21.67
444.682	240.81
444.894	-445.26
445.105	-418.64
445.316	185.51
445.528	66.73
445.739	-127.83
445.95	-193.36
446.161	117.93
446.373	109.74
446.584	-185.17
446.795	-224.08
447.006	183.46
447.217	371.88
447.429	-349.01
447.64	-287.57
447.851	275.62
448.062	62.63
448.273	-406.35
448.484	-279.38
448.695	126.12
448.907	-31.57
449.118	-185.17
449.329	-13.14
449.54	-101.2
449.751	-250.71
449.962	-262.99
450.173	-287.57
450.384	222.38
450.595	330.92
450.806	-240.47
451.017	-213.84
451.228	269.48
451.439	228.52
451.65	-209.75
451.861	-492.37
452.072	-228.18
452.283	-4.95
452.494	50.35
452.705	-299.86
452.915	392.36
453.126	89.26
453.337	-111.44
453.548	-351.06
453.759	298.15
453.97	560.29
454.181	-58.2
454.391	-240.47
454.602	27.82
454.813	148.65
455.024	-140.12
455.235	-224.08
455.445	99.5
455.656	167.08
455.867	-54.1
456.078	-213.84
456.288	-138.07
456.499	72.87
456.71	-316.24
456.921	31.91
457.131	95.4
457.342	91.31
457.553	-150.36
457.763	-244.56
457.974	191.66
458.184	261.29
458.395	-371.54
458.606	-365.39
458.816	201.9
459.027	429.22
459.237	-127.83
459.448	-412.5
459.659	228.52
459.869	543.91
460.08	-357.2
460.29	-105.3
460.501	459.94
460.711	-123.73
460.922	-316.24
461.132	-246.61
461.343	584.87
461.553	-363.34
461.764	-238.42
461.974	-269.14
462.184	277.67
462.395	199.85
462.605	-207.7
462.816	-318.29
463.026	60.59
463.236	314.53
463.447	-240.47
463.657	-361.3
463.867	187.56
464.078	-70.48
464.288	-213.84
464.498	-262.99
464.709	-54.1
464.919	-45.91
465.129	-217.94
465.339	-332.62
465.55	89.26
465.76	171.18
465.97	-277.33
466.18	-328.53
466.391	117.93
466.601	58.54
466.811	-207.7
467.021	-363.34
467.231	87.21
467.441	220.33
467.651	-258.9
467.862	-461.65
468.072	-47.96
468.282	306.34
468.492	-291.66
468.702	-248.66
468.912	56.49
469.122	562.34
469.332	154.79
469.542	-324.43
469.752	113.83
469.962	-37.72
470.172	-334.67
470.382	-289.62
470.592	128.17
470.802	302.25
471.012	-113.49
471.222	-224.08
471.432	292.01
471.642	179.37
471.852	-142.16
472.062	-281.43
472.272	-37.72
472.482	-248.66
472.691	-392.02
472.901	-418.64
473.111	23.72
473.321	531.62
473.531	-346.96
473.741	-181.07
473.95	162.98
474.16	70.83
474.37	-82.77
474.58	-392.02
474.79	410.79
474.999	171.18
475.209	-240.47
475.419	-299.86
475.628	-93.01
475.838	304.29
476.048	-160.59
476.258	-328.53
476.467	226.47
476.677	-123.73
476.886	-101.2
477.096	-195.41
477.306	-123.73
477.515	292.01
477.725	-45.91
477.935	-226.13
478.144	302.25
478.354	-158.55
478.563	-189.27
478.773	-330.58
478.982	167.08
479.192	271.53
479.401	-131.92
479.611	-334.67
479.82	-168.79
480.03	15.53
480.239	-234.32
480.449	-375.63
480.658	474.28
480.868	-170.83
481.077	-123.73
481.287	-226.13
481.496	128.17
481.705	412.84
481.915	-23.38
482.124	-70.48
482.333	-29.52
482.543	343.21
482.752	-193.36
482.961	-244.56
483.171	214.18
483.38	-0.85
483.589	-250.71
483.799	-260.95
484.008	-56.15
484.217	199.85
484.426	-269.14
484.636	-353.1
484.845	111.78
485.054	-357.2
485.263	31.91
485.472	-224.08
485.682	472.23
485.891	-29.52
486.1	-402.26
486.309	-301.9
486.518	52.39
486.727	273.57
486.936	-252.75
487.146	-119.64
487.355	318.63
487.564	-103.25
487.773	-158.55
487.982	-283.47
488.191	-148.31
488.4	-11.09
488.609	-283.47
488.818	-209.75
489.027	560.29
489.236	431.27
489.445	-277.33
489.654	-336.72
489.863	302.25
490.072	11.43
490.281	64.68
490.49	-295.76
490.698	371.88
490.907	353.45
491.116	-262.99
491.325	-379.73
491.534	402.6
491.743	119.98
491.952	-136.02
492.16	-191.31
492.369	167.08
492.578	261.29
492.787	-56.15
492.996	-349.01
493.204	-66.39
493.413	519.33
493.622	-469.84
493.831	-480.08
494.039	373.92
494.248	-262.99
494.457	-283.47
494.665	-435.02
494.874	126.12
495.083	433.32
495.291	-209.75
495.5	-316.24
495.709	263.33
495.917	-7
496.126	-158.55
496.335	-340.82
496.543	-56.15
496.752	152.74
496.96	3.24
497.169	-443.21
497.377	52.39
497.586	378.02
497.794	-47.96
498.003	-459.6
498.211	-119.64
498.42	349.35
498.628	-199.51
498.837	-385.87
499.045	134.31
499.254	31.91
499.462	-275.28
499.671	-349.01
499.879	433.32
500.087	265.38
500.296	-285.52
500.504	-201.55
500.713	62.63
500.921	476.32
501.129	-256.85
501.338	-254.8
501.546	-17.24
501.754	15.53
501.962	-258.9
502.171	-334.67
502.379	11.43
502.587	500.9
502.795	-230.23
503.004	-293.71
503.212	-15.19
503.42	197.8
503.628	-267.09
503.837	-201.55
504.045	187.56
504.253	439.46
504.461	-324.43
504.669	-504.65
504.877	97.45
505.085	437.41
505.294	-428.88
505.502	-115.54
505.71	-0.85
505.918	197.8
506.126	-355.15
506.334	-258.9
506.542	9.39
506.75	36.01
506.958	-211.79
507.166	-262.99
507.374	-136.02
507.582	412.84
507.79	-170.83
507.998	-299.86
508.206	60.59
508.414	99.5
508.622	-328.53
508.83	-217.94
509.037	351.4
509.245	-123.73
509.453	-418.64
509.661	-396.11
509.869	162.98
510.077	-62.29
510.285	-199.51
510.492	-572.24
510.7	576.67
510.908	-121.68
511.116	-275.28
511.324	-306
511.531	7.34
511.739	83.11
511.947	-121.68
512.155	3.24
512.362	111.78
512.57	-217.94
512.778	-381.78
512.985	-428.88
513.193	214.18
513.401	373.92
513.608	-250.71
513.816	-361.3
514.024	203.94
514.231	316.58
514.439	-408.4
514.646	-271.19
514.854	218.28
515.061	298.15
515.269	-334.67
515.477	-310.1
515.684	-174.93
515.892	332.97
516.099	-439.12
516.307	-398.16
516.514	201.9
516.722	490.66
516.929	-316.24
517.136	-406.35
517.344	326.82
517.551	158.89
517.759	-324.43
517.966	-258.9
518.173	-107.35
518.381	-7
518.588	-156.5
518.796	-271.19
519.003	263.33
519.21	-60.24
519.418	-275.28
519.625	44.2
519.832	-64.34
520.039	134.31
520.247	-430.93
520.454	-277.33
520.661	269.48
520.868	79.02
521.076	-205.65
521.283	-238.42
521.49	533.67
521.697	56.49
521.904	-174.93
522.112	-250.71
522.319	218.28
522.526	68.78
522.733	-402.26
522.94	-312.14
523.147	27.82
523.354	191.66
523.561	-486.22
523.768	-213.84
523.975	199.85
524.183	64.68
524.39	-224.08
524.597	-451.41
524.804	19.63
525.011	-179.03
525.218	-336.72
525.425	-277.33
525.632	318.63
525.838	-211.79
526.045	-281.43
526.252	-205.65
526.459	1078.43
526.666	875.68
526.873	-332.62
527.08	-385.87
527.287	289.96
527.494	154.79
527.701	-346.96
527.907	-308.05
528.114	146.6
528.321	-2.9
528.528	-289.62
528.735	-363.34
528.941	-88.92
529.148	-185.17
529.355	-285.52
529.562	-357.2
529.768	269.48
529.975	-74.58
530.182	-234.32
530.388	-303.95
530.595	201.9
530.802	-256.85
531.008	-101.2
531.215	-332.62
531.422	392.36
531.628	662.69
531.835	-199.51
532.042	-166.74
532.248	-185.17
532.455	76.97
532.661	-256.85
532.868	-363.34
533.074	58.54
533.281	265.38
533.487	-211.79
533.694	-394.06
533.9	-240.47
534.107	144.55
534.313	-330.58
534.52	-389.97
534.726	244.9
534.933	414.88
535.139	-406.35
535.345	-484.17
535.552	70.83
535.758	23.72
535.965	-230.23
536.171	-336.72
536.377	177.32
536.584	257.19
536.79	-281.43
536.996	-207.7
537.203	93.35
537.409	138.41
537.615	-265.04
537.821	-64.34
538.028	242.85
538.234	232.62
538.44	-242.51
538.646	-185.17
538.853	171.18
539.059	-19.29
539.265	97.45
539.471	-529.23
539.677	216.23
539.883	-115.54
540.09	-369.49
540.296	99.5
540.502	-39.76
540.708	-217.94
540.914	-142.16
541.12	-293.71
541.326	246.95
541.532	-62.29
541.738	-248.66
541.944	-168.79
542.15	173.22
542.356	-43.86
542.562	-332.62
542.768	-234.32
542.974	597.15
543.18	529.57
543.386	-406.35
543.592	-465.74
543.798	400.55
544.004	302.25
544.21	-289.62
544.415	-179.03
544.621	52.39
544.827	240.81
545.033	-404.3
545.239	-101.2
545.445	-213.84
545.651	66.73
545.856	-308.05
546.062	-381.78
546.268	-176.98
546.474	-21.33
546.679	-365.39
546.885	-191.31
547.091	-119.64
547.297	468.13
547.502	-201.55
547.708	-414.54
547.914	-228.18
548.119	134.31
548.325	-439.12
548.531	-416.59
548.736	425.12
548.942	-150.36
549.147	-312.14
549.353	-54.1
549.559	277.67
549.764	76.97
549.97	-260.95
550.175	-340.82
550.381	134.31
550.586	-187.22
550.792	-136.02
550.997	-320.34
551.203	136.36
551.408	224.42
551.614	-408.4
551.819	-336.72
552.025	388.26
552.23	382.12
552.435	-385.87
552.641	-160.59
552.846	-185.17
553.052	275.62
553.257	-144.21
553.462	-295.76
553.668	-226.13
553.873	212.14
554.078	-349.01
554.283	-324.43
554.489	95.4
554.694	-37.72
554.899	-367.44
555.105	-150.36
555.31	138.41
555.515	138.41
555.72	-256.85
555.925	-353.1
556.131	158.89
556.336	-76.63
556.541	-330.58
556.746	-308.05
556.951	316.58
557.156	339.11
557.361	-240.47
557.567	-181.07
557.772	447.65
557.977	126.12
558.182	-262.99
558.387	-363.34
558.592	-168.79
558.797	314.53
559.002	-207.7
559.207	-166.74
559.412	19.63
559.617	443.56
559.822	-289.62
560.027	-435.02
560.232	64.68
560.437	216.23
560.642	-373.58
560.847	-373.58
561.051	-11.09
561.256	44.2
561.461	-230.23
561.666	-398.16
561.871	48.3
562.076	208.04
562.281	-232.27
562.485	-363.34
562.69	255.14
562.895	253.09
563.1	-234.32
563.305	-445.26
563.509	343.21
563.714	580.77
563.919	-269.14
564.123	-312.14
564.328	3.24
564.533	214.18
564.737	-170.83
564.942	-275.28
565.147	371.88
565.351	474.28
565.556	-209.75
565.761	-185.17
565.965	113.83
566.17	-82.77
566.374	-312.14
566.579	-365.39
566.784	122.02
566.988	-54.1
567.193	-467.79
567.397	-269.14
567.602	-234.32
567.806	-66.39
568.011	-236.37
568.215	-254.8
568.42	-103.25
568.624	-41.81
568.828	-303.95
569.033	-140.12
569.237	187.56
569.442	150.7
569.646	-432.97
569.85	-271.19
570.055	5.29
570.259	70.83
570.463	-156.5
570.668	-193.36
570.872	11.43
571.076	15.53
571.281	-62.29
571.485	-142.16
571.689	-15.19
571.893	191.66
572.098	-84.82
572.302	-262.99
572.506	103.59
572.71	50.35
572.914	-252.75
573.119	-267.09
573.323	339.11
573.527	285.86
573.731	-254.8
573.935	-369.49
574.139	109.74
574.343	-179.03
574.547	-275.28
574.751	-166.74
574.955	363.69
575.159	271.53
575.364	-308.05
575.568	-439.12
575.772	-25.43
575.976	312.49
576.18	-267.09
576.383	-453.45
576.587	273.57
576.791	152.74
576.995	-484.17
577.199	-410.45
577.403	246.95
577.607	253.09
577.811	-424.78
578.015	-166.74
578.219	119.98
578.422	218.28
578.626	-209.75
578.83	-72.53
579.034	263.33
579.238	76.97
579.442	-281.43
579.645	117.93
579.849	-4.95
580.053	36.01
580.257	-306
580.46	-238.42
580.664	205.99
580.868	185.51
581.071	-9.05
581.275	-136.02
581.479	-320.34
581.682	128.17
581.886	-299.86
582.09	-158.55
582.293	240.81
582.497	273.57
582.7	-72.53
582.904	-299.86
583.107	95.4
583.311	-107.35
583.515	-219.99
583.718	-189.27
583.922	93.35
584.125	470.18
584.329	-306
584.532	-78.68
584.735	281.77
584.939	74.92
585.142	-451.41
585.346	-312.14
585.549	134.31
585.753	-86.87
585.956	-217.94
586.159	-187.22
586.363	425.12
586.566	44.2
586.769	-336.72
586.973	-363.34
587.176	201.9
587.379	298.15
587.582	52.39
587.786	11.43
587.989	13.48
588.192	658.59
588.395	-164.69
588.599	79.02
588.802	68.78
589.005	154.79
589.208	-283.47
589.411	-262.99
589.615	265.38
589.818	378.02
590.021	-33.62
590.224	-99.16
590.427	187.56
590.63	175.27
590.833	-422.73
591.036	-285.52
591.239	-115.54
591.442	-66.39
591.645	-43.86
591.848	-367.44
592.051	76.97
592.254	292.01
592.457	-242.51
592.66	-232.27
592.863	-62.29
593.066	126.12
593.269	-287.57
593.472	-187.22
593.675	-146.26
593.878	167.08
594.081	-127.83
594.284	-299.86
594.486	162.98
594.689	103.59
594.892	-123.73
595.095	-205.65
595.298	210.09
595.5	-111.44
595.703	-150.36
595.906	-113.49
596.109	320.68
596.311	259.24
596.514	-490.32
596.717	-211.79
596.92	339.11
597.122	183.46
597.325	-410.45
597.528	-258.9
597.73	310.44
597.933	52.39
598.136	-222.03
598.338	-457.55
598.541	138.41
598.743	263.33
598.946	-246.61
599.148	-248.66
599.351	328.87
599.554	285.86
599.756	-121.68
599.959	-181.07
600.161	337.06
600.363	580.77
600.566	60.59
600.768	-168.79
600.971	435.36
601.173	191.66
601.376	-308.05
601.578	-199.51
601.78	152.74
601.983	574.63
602.185	-285.52
602.388	17.58
602.59	152.74
602.792	-95.06
602.995	36.01
603.197	-228.18
603.399	308.39
603.601	146.6
603.804	-185.17
604.006	-265.04
604.208	76.97
604.41	-299.86
604.613	-35.67
604.815	-334.67
605.017	519.33
605.219	-152.4
605.421	79.02
605.623	-246.61
605.826	275.62
606.028	423.08
606.23	-240.47
606.432	-254.8
606.634	418.98
606.836	392.36
607.038	-332.62
607.24	-4.95
607.442	144.55
607.644	44.2
607.846	-95.06
608.048	-271.19
608.25	404.64
608.452	-125.78
608.654	-230.23
608.856	-437.07
609.058	122.02
609.26	263.33
609.462	-129.88
609.664	-166.74
609.866	513.19
610.067	318.63
610.269	-25.43
610.471	-222.03
610.673	52.39
610.875	273.57
611.077	-314.19
611.278	-107.35
611.48	17.58
611.682	576.67
611.884	-101.2
612.085	-170.83
612.287	-62.29
612.489	122.02
612.69	-381.78
612.892	-99.16
613.094	341.16
613.295	210.09
613.497	-260.95
613.699	-174.93
613.9	451.75
614.102	261.29
614.304	-133.97
614.505	-324.43
614.707	54.44
614.908	23.72
615.11	-262.99
615.311	-172.88
615.513	285.86
615.714	289.96
615.916	-349.01
616.117	-164.69
616.319	124.07
616.52	224.42
616.722	-258.9
616.923	-142.16
617.124	351.4
617.326	294.05
617.527	-78.68
617.729	38.06
617.93	226.47
618.131	275.62
618.333	-181.07
618.534	-144.21
618.735	-80.72
618.937	478.37
619.138	-316.24
619.339	-303.95
619.54	158.89
619.742	40.11
619.943	-82.77
620.144	-82.77
620.345	312.49
620.546	332.97
620.748	-181.07
620.949	-230.23
621.15	74.92
621.351	134.31
621.552	-158.55
621.753	-420.69
621.954	-238.42
622.155	609.44
622.356	-228.18
622.558	3.24
622.759	50.35
622.96	568.48
623.161	-166.74
623.362	-176.98
623.563	91.31
623.764	119.98
623.965	-113.49
624.166	-29.52
624.366	29.87
624.567	226.47
624.768	-496.46
624.969	-195.41
625.17	15.53
625.371	287.91
625.572	-15.19
625.773	-283.47
625.973	335.01
626.174	351.4
626.375	-74.58
626.576	-43.86
626.777	345.25
626.977	652.45
627.178	-250.71
627.379	-72.53
627.58	7.34
627.78	142.5
627.981	-93.01
628.182	-4.95
628.382	445.6
628.583	-158.55
628.784	-318.29
628.984	79.02
629.185	257.19
629.386	318.63
629.586	-90.96
629.787	-281.43
629.987	265.38
630.188	11.43
630.388	-146.26
630.589	-70.48
630.79	707.74
630.99	126.12
631.191	-88.92
631.391	-27.48
631.591	273.57
631.792	496.8
631.992	-21.33
632.193	-183.12
632.393	554.15
632.594	128.17
632.794	-222.03
632.994	-86.87
633.195	87.21
633.395	187.56
633.595	-181.07
633.796	115.88
633.996	-82.77
634.196	386.21
634.397	-277.33
634.597	-193.36
634.797	-45.91
634.997	455.84
635.198	72.87
635.398	-205.65
635.598	203.94
635.798	429.22
635.998	322.73
636.199	-258.9
636.399	-25.43
636.599	-127.83
636.799	-107.35
636.999	126.12
637.199	230.57
637.399	406.69
637.599	-158.55
637.799	56.49
637.999	-33.62
638.199	455.84
638.399	-142.16
638.599	-176.98
638.799	279.72
638.999	631.97
639.199	56.49
639.399	-80.72
639.599	496.8
639.799	-45.91
639.999	-187.22
640.199	-275.28
640.399	201.9
640.599	240.81
640.799	-13.14
640.998	44.2
641.198	447.65
641.398	326.82
641.598	-68.44
641.798	-66.39
641.997	1213.59
642.197	109.74
642.397	3.24
642.597	-95.06
642.796	285.86
642.996	437.41
643.196	52.39
643.395	-195.41
643.595	285.86
643.795	-306
643.994	-138.07
644.194	27.82
644.394	304.29
644.593	316.58
644.793	-252.75
644.992	52.39
645.192	257.19
645.392	-244.56
645.591	-45.91
645.791	-119.64
645.99	275.62
646.19	142.5
646.389	5.29
646.589	-86.87
646.788	349.35
646.987	337.06
647.187	218.28
647.386	93.35
647.586	146.6
647.785	269.48
647.984	-41.81
648.184	-68.44
648.383	175.27
648.582	33.96
648.782	-111.44
648.981	1.19
649.18	40.11
649.38	228.52
649.579	-125.78
649.778	-109.4
649.977	300.2
650.177	263.33
650.376	-160.59
650.575	-138.07
650.774	611.49
650.973	-142.16
651.173	-238.42
651.372	-21.33
651.571	193.7
651.77	390.31
651.969	-50
652.168	-64.34
652.367	-174.93
652.566	148.65
652.765	-82.77
652.964	181.42
653.163	646.3
653.362	99.5
653.561	-58.2
653.76	-62.29
653.959	113.83
654.158	257.19
654.357	148.65
654.556	-86.87
654.755	281.77
654.954	386.21
655.153	-29.52
655.352	-17.24
655.551	433.32
655.749	-17.24
655.948	72.87
656.147	52.39
656.346	285.86
656.545	101.55
656.743	50.35
656.942	9.39
657.141	126.12
657.34	21.67
657.538	-25.43
657.737	19.63
657.936	58.54
658.135	343.21
658.333	-74.58
658.532	103.59
658.731	664.74
658.929	421.03
659.128	310.44
659.326	-33.62
659.525	543.91
659.724	228.52
659.922	-283.47
660.121	-185.17
660.319	279.72
660.518	68.78
660.716	-150.36
660.915	-76.63
661.113	560.29
661.312	-95.06
661.51	169.13
661.709	-201.55
661.907	371.88
662.105	560.29
662.304	-58.2
662.502	-62.29
662.701	545.95
662.899	109.74
663.097	253.09
663.296	-101.2
663.494	517.28
663.692	578.72
663.891	-115.54
664.089	-109.4
664.287	300.2
664.485	421.03
664.684	-62.29
664.882	64.68
665.08	175.27
665.278	308.39
665.476	-127.83
665.675	205.99
665.873	693.41
666.071	519.33
666.269	-58.2
666.467	249
666.665	253.09
666.863	279.72
667.061	179.37
667.259	-52.05
667.457	236.71
667.655	427.17
667.853	-152.4
668.051	64.68
668.249	23.72
668.447	386.21
668.645	-160.59
668.843	165.03
669.041	382.12
669.239	187.56
669.437	52.39
669.635	124.07
669.833	138.41
670.031	357.54
670.229	97.45
670.426	62.63
670.624	50.35
670.822	27.82
671.02	-21.33
671.218	64.68
671.415	-66.39
671.613	349.35
671.811	148.65
672.009	40.11
672.206	453.8
672.404	265.38
672.602	273.57
672.799	132.26
672.997	298.15
673.195	486.56
673.392	242.85
673.59	-33.62
673.788	474.28
673.985	-258.9
674.183	128.17
674.38	93.35
674.578	464.04
674.775	158.89
674.973	-54.1
675.17	-142.16
675.368	593.06
675.565	363.69
675.763	40.11
675.96	-60.24
676.158	593.06
676.355	167.08
676.553	-54.1
676.75	52.39
676.947	122.02
677.145	191.66
677.342	115.88
677.539	128.17
677.737	380.07
677.934	750.75
678.131	181.42
678.329	-68.44
678.526	625.83
678.723	386.21
678.92	191.66
679.118	132.26
679.315	-4.95
679.512	613.54
679.709	113.83
679.906	85.16
680.104	502.95
680.301	228.52
680.498	40.11
680.695	-33.62
680.892	169.13
681.089	126.12
681.286	136.36
681.483	-136.02
681.68	382.12
681.877	449.7
682.075	60.59
682.272	232.62
682.469	302.25
682.665	218.28
682.862	-4.95
683.059	-172.88
683.256	447.65
683.453	296.1
683.65	97.45
683.847	70.83
684.044	298.15
684.241	76.97
684.438	117.93
684.635	-25.43
684.831	650.4
685.028	691.36
685.225	54.44
685.422	335.01
685.619	244.9
685.815	267.43
686.012	115.88
686.209	171.18
686.405	-17.24
686.602	431.27
686.799	-68.44
686.996	23.72
687.192	-27.48
687.389	801.95
687.586	44.2
687.782	117.93
687.979	666.78
688.175	580.77
688.372	103.59
688.568	113.83
688.765	240.81
688.962	603.3
689.158	234.66
689.355	-7
689.551	527.52
689.748	232.62
689.944	191.66
690.14	-21.33
690.337	525.47
690.533	220.33
690.73	298.15
690.926	160.94
691.123	453.8
691.319	359.59
691.515	-37.72
691.712	267.43
691.908	455.84
692.104	394.4
692.301	216.23
692.497	-2.9
692.693	642.21
692.889	461.99
693.086	240.81
693.282	-99.16
693.478	386.21
693.674	703.65
693.87	148.65
694.067	-39.76
694.263	275.62
694.459	224.42
694.655	216.23
694.851	232.62
695.047	470.18
695.243	470.18
695.439	240.81
695.635	-62.29
695.831	496.8
696.027	400.55
696.224	27.82
696.42	478.37
696.615	650.4
696.811	472.23
697.007	-47.96
697.203	95.4
697.399	384.16
697.595	615.59
697.791	58.54
697.987	283.81
698.183	83.11
698.379	167.08
698.575	103.59
698.77	93.35
698.966	576.67
699.162	578.72
699.358	187.56
699.554	167.08
699.749	502.95
699.945	545.95
700.141	308.39
700.337	236.71
700.532	371.88
700.728	183.46
700.924	23.72
701.119	29.87
701.315	449.7
701.511	289.96
701.706	328.87
701.902	-119.64
702.097	328.87
702.293	490.66
702.489	205.99
702.684	85.16
702.88	265.38
703.075	238.76
703.271	201.9
703.466	95.4
703.662	373.92
703.857	445.6
704.053	115.88
704.248	162.98
704.443	525.47
704.639	541.86
704.834	187.56
705.03	146.6
705.225	556.19
705.42	683.17
705.616	273.57
705.811	52.39
706.006	306.34
706.202	205.99
706.397	324.77
706.592	-11.09
706.787	509.09
706.983	363.69
707.178	439.46
707.373	187.56
707.568	629.92
707.763	603.3
707.959	158.89
708.154	101.55
708.349	404.64
708.544	507.04
708.739	353.45
708.934	79.02
709.129	593.06
709.324	619.68
709.519	62.63
709.714	101.55
709.909	687.26
710.104	421.03
710.299	152.74
710.494	210.09
710.689	648.35
710.884	408.74
711.079	273.57
711.274	425.12
711.469	586.91
711.664	517.28
711.859	103.59
712.054	292.01
712.249	629.92
712.443	625.83
712.638	-15.19
712.833	140.46
713.028	345.25
713.223	388.26
713.417	474.28
713.612	140.46
713.807	511.14
714.002	924.83
714.196	300.2
714.391	150.7
714.586	631.97
714.78	392.36
714.975	300.2
715.17	203.94
715.364	308.39
715.559	662.69
715.754	-66.39
715.948	126.12
716.143	883.87
716.337	459.94
716.532	492.71
716.726	101.55
716.921	607.39
717.115	885.92
717.31	60.59
717.504	699.55
717.699	330.92
717.893	726.18
718.088	83.11
718.282	-9.05
718.476	572.58
718.671	517.28
718.865	144.55
719.059	253.09
719.254	500.9
719.448	840.86
719.642	1578.13
719.837	38.06
720.031	744.61
720.225	754.85
720.419	263.33
720.614	138.41
720.808	568.48
721.002	427.17
721.196	117.93
721.39	232.62
721.585	775.33
721.779	443.56
721.973	289.96
722.167	48.3
722.361	537.76
722.555	613.54
722.749	191.66
722.943	230.57
723.137	128.17
723.331	543.91
723.525	275.62
723.719	191.66
723.913	584.87
724.107	769.18
724.301	105.64
724.495	281.77
724.689	914.59
724.883	705.7
725.077	81.07
725.271	253.09
725.465	728.22
725.659	523.43
725.853	283.81
726.046	83.11
726.24	294.05
726.434	769.18
726.628	195.75
726.822	388.26
727.015	756.9
727.209	707.74
727.403	271.53
727.596	60.59
727.79	652.45
727.984	713.89
728.177	261.29
728.371	328.87
728.565	736.42
728.758	224.42
728.952	93.35
729.146	162.98
729.339	707.74
729.533	367.78
729.726	216.23
729.92	158.89
730.113	752.8
730.307	502.95
730.5	277.67
730.694	154.79
730.887	359.59
731.081	603.3
731.274	136.36
731.468	330.92
731.661	494.76
731.854	378.02
732.048	302.25
732.241	179.37
732.435	302.25
732.628	521.38
732.821	335.01
733.014	183.46
733.208	216.23
733.401	754.85
733.594	273.57
733.788	265.38
733.981	853.15
734.174	507.04
734.367	167.08
734.56	371.88
734.754	685.22
734.947	472.23
735.14	179.37
735.333	253.09
735.526	662.69
735.719	224.42
735.912	203.94
736.105	244.9
736.298	488.61
736.491	384.16
736.684	210.09
736.877	160.94
737.07	617.63
737.263	857.25
737.456	257.19
737.649	244.9
737.842	457.89
738.035	535.71
738.228	322.73
738.421	373.92
738.614	773.28
738.807	617.63
739	208.04
739.192	195.75
739.385	693.41
739.578	636.06
739.771	437.41
739.964	212.14
740.156	660.64
740.349	459.94
740.542	408.74
740.735	203.94
740.927	203.94
741.12	232.62
741.313	199.85
741.505	375.97
741.698	570.53
741.891	605.35
742.083	474.28
742.276	216.23
742.468	535.71
742.661	412.84
742.854	306.34
743.046	265.38
743.239	953.5
743.431	453.8
743.624	349.35
743.816	68.78
744.009	504.99
744.201	701.6
744.393	421.03
744.586	251.05
744.778	748.7
744.971	531.62
745.163	433.32
745.355	486.56
745.548	591.01
745.74	541.86
745.932	433.32
746.125	300.2
746.317	1064.09
746.509	623.78
746.702	324.77
746.894	382.12
747.086	582.82
747.278	871.58
747.471	527.52
747.663	492.71
747.855	582.82
748.047	945.31
748.239	279.72
748.431	275.62
748.623	1023.13
748.815	967.84
749.008	150.7
749.2	249
749.392	662.69
749.584	695.46
749.776	326.82
749.968	418.98
750.16	969.88
750.352	580.77
750.544	414.88
750.736	294.05
750.928	756.9
751.12	543.91
751.311	306.34
751.503	412.84
751.695	623.78
751.887	556.19
752.079	83.11
752.271	302.25
752.463	1238.17
752.654	758.94
752.846	357.54
753.038	371.88
753.23	406.69
753.421	670.88
753.613	400.55
753.805	636.06
753.997	814.24
754.188	758.94
754.38	208.04
754.572	314.53
754.763	611.49
754.955	734.37
755.146	437.41
755.338	437.41
755.53	646.3
755.721	556.19
755.913	130.22
756.104	318.63
756.296	484.52
756.487	771.23
756.679	236.71
756.87	320.68
757.062	441.51
757.253	724.13
757.445	326.82
757.636	566.43
757.827	502.95
758.019	1154.2
758.21	380.07
758.401	363.69
758.593	1135.77
758.784	1002.65
758.975	314.53
759.167	162.98
759.358	685.22
759.549	806.05
759.74	363.69
759.932	318.63
760.123	900.25
760.314	525.47
760.505	474.28
760.696	294.05
760.888	1090.71
761.079	453.8
761.27	296.1
761.461	249
761.652	904.35
761.843	543.91
762.034	375.97
762.225	664.74
762.416	566.43
762.607	539.81
762.798	363.69
762.989	265.38
763.18	1307.8
763.371	591.01
763.562	322.73
763.753	445.6
763.944	838.81
764.135	816.29
764.326	459.94
764.517	328.87
764.708	654.5
764.899	789.66
765.089	314.53
765.28	322.73
765.471	623.78
765.662	789.66
765.853	396.45
766.043	173.22
766.234	810.14
766.425	834.72
766.615	347.3
766.806	242.85
766.997	1014.94
767.187	709.79
767.378	408.74
767.569	177.32
767.759	738.46
767.95	726.18
768.141	494.76
768.331	355.49
768.522	621.73
768.712	912.54
768.903	300.2
769.093	277.67
769.284	1064.09
769.474	701.6
769.665	210.09
769.855	175.27
770.046	722.08
770.236	654.5
770.426	550.05
770.617	289.96
770.807	781.47
770.998	634.02
771.188	535.71
771.378	384.16
771.569	871.58
771.759	834.72
771.949	349.35
772.139	68.78
772.33	715.94
772.52	988.32
772.71	269.48
772.9	216.23
773.09	1094.81
773.281	973.98
773.471	365.73
773.661	330.92
773.851	873.63
774.041	582.82
774.231	357.54
774.421	488.61
774.611	1031.32
774.802	595.11
774.992	412.84
775.182	335.01
775.372	601.25
775.562	902.3
775.752	404.64
775.942	431.27
776.131	967.84
776.321	812.19
776.511	435.36
776.701	253.09
776.891	896.16
777.081	396.45
777.271	396.45
777.461	390.31
777.651	881.82
777.84	810.14
778.03	447.65
778.22	353.45
778.41	988.32
778.599	461.99
778.789	492.71
778.979	355.49
779.169	801.95
779.358	640.16
779.548	793.76
779.738	281.77
779.927	763.04
780.117	486.56
780.307	408.74
780.496	72.87
780.686	738.46
780.875	1166.49
781.065	324.77
781.254	363.69
781.444	777.37
781.633	783.52
781.823	310.44
782.012	380.07
782.202	527.52
782.391	660.64
782.581	363.69
782.77	500.9
782.96	881.82
783.149	658.59
783.338	418.98
783.528	130.22
783.717	890.01
783.906	963.74
784.096	529.57
784.285	265.38
784.474	656.54
784.663	529.57
784.853	418.98
785.042	476.32
785.231	679.07
785.42	957.6
785.61	474.28
785.799	300.2
785.988	601.25
786.177	724.13
786.366	349.35
786.555	599.2
786.744	842.91
786.933	672.93
787.122	296.1
787.312	140.46
787.501	502.95
787.69	844.96
787.879	349.35
788.068	437.41
788.257	392.36
788.445	644.26
788.634	498.85
788.823	318.63
789.012	1395.86
789.201	1035.42
789.39	593.06
789.579	341.16
789.768	599.2
789.957	707.74
790.145	445.6
790.334	263.33
790.523	552.1
790.712	683.17
790.9	453.8
791.089	267.43
791.278	892.06
791.467	773.28
791.655	609.44
791.844	875.68
792.033	576.67
792.221	552.1
792.41	435.36
792.599	150.7
792.787	904.35
792.976	840.86
793.164	339.11
793.353	412.84
793.541	918.68
793.73	801.95
793.918	396.45
794.107	408.74
794.295	660.64
794.484	666.78
794.672	470.18
794.861	408.74
795.049	765.09
795.238	1154.2
795.426	287.91
795.614	605.35
795.803	810.14
795.991	1082.52
796.179	418.98
796.368	410.79
796.556	1002.65
796.744	515.23
796.932	429.22
797.121	384.16
797.309	711.84
797.497	865.44
797.685	504.99
797.874	433.32
798.062	623.78
798.25	1070.23
798.438	330.92
798.626	437.41
798.814	883.87
799.002	1254.55
799.19	638.11
799.378	543.91
799.566	998.56
799.755	1096.86
799.943	640.16
800.131	455.84
800.318	812.19
800.506	750.75
800.694	478.37
800.882	609.44
801.07	1021.08
801.258	668.83
801.446	494.76
801.634	521.38
801.822	756.9
802.01	715.94
802.197	394.4
802.385	588.96
802.573	756.9
802.761	457.89
802.949	490.66
803.136	326.82
803.324	973.98
803.512	830.62
803.699	515.23
803.887	314.53
804.075	1062.04
804.262	537.76
804.45	447.65
804.638	595.11
804.825	572.58
805.013	584.87
805.201	502.95
805.388	308.39
805.576	742.56
805.763	1109.15
805.951	343.21
806.138	705.7
806.326	1213.59
806.513	869.53
806.701	539.81
806.888	425.12
807.075	814.24
807.263	1170.58
807.45	400.55
807.638	605.35
807.825	1189.02
808.012	971.93
808.2	548
808.387	646.3
808.574	861.34
808.761	1170.58
808.949	494.76
809.136	660.64
809.323	720.03
809.51	760.99
809.698	740.51
809.885	740.51
810.072	898.2
810.259	1059.99
810.446	654.5
810.633	574.63
810.82	1053.85
811.008	1252.5
811.195	818.33
811.382	519.33
811.569	744.61
811.756	552.1
811.943	658.59
812.13	552.1
812.317	828.57
812.504	726.18
812.691	586.91
812.878	732.32
813.064	1125.53
813.251	691.36
813.438	490.66
813.625	648.35
813.812	789.66
813.999	734.37
814.186	634.02
814.372	638.11
814.559	801.95
814.746	1166.49
814.933	586.91
815.12	867.49
815.306	646.3
815.493	668.83
815.68	449.7
815.866	548
816.053	1100.95
816.24	1348.76
816.426	644.26
816.613	504.99
816.799	1051.8
816.986	1027.23
817.173	640.16
817.359	611.49
817.546	939.16
817.732	500.9
817.919	359.59
818.105	648.35
818.292	638.11
818.478	820.38
818.665	750.75
818.851	617.63
819.037	1313.94
819.224	920.73
819.41	470.18
819.597	582.82
819.783	1141.91
819.969	990.36
820.156	654.5
820.342	539.81
820.528	1545.36
820.714	812.19
820.901	892.06
821.087	595.11
821.273	1232.02
821.459	853.15
821.646	492.71
821.832	537.76
822.018	873.63
822.204	881.82
822.39	636.06
822.576	484.52
822.762	1076.38
822.948	949.4
823.134	828.57
823.32	621.73
823.507	588.96
823.693	1023.13
823.879	1064.09
824.065	603.3
824.25	904.35
824.436	601.25
824.622	699.55
824.808	523.43
824.994	709.79
825.18	734.37
825.366	507.04
825.552	623.78
825.738	732.32
825.923	1070.23
826.109	799.9
826.295	552.1
826.481	552.1
826.667	824.48
826.852	769.18
827.038	648.35
827.224	1141.91
827.409	1293.46
827.595	502.95
827.781	849.05
827.966	1096.86
828.152	1113.24
828.338	586.91
828.523	470.18
828.709	642.21
828.894	1232.02
829.08	664.74
829.266	574.63
829.451	806.05
829.637	1064.09
829.822	707.74
830.008	570.53
830.193	1076.38
830.378	1383.57
830.564	703.65
830.749	443.56
830.935	1021.08
831.12	1119.39
831.305	601.25
831.491	754.85
831.676	543.91
831.861	1064.09
832.047	728.22
832.232	509.09
832.417	1225.88
832.602	941.21
832.788	521.38
832.973	554.15
833.158	849.05
833.343	873.63
833.528	773.28
833.714	683.17
833.899	1049.75
834.084	1391.77
834.269	867.49
834.454	685.22
834.639	1109.15
834.824	834.72
835.009	773.28
835.194	746.66
835.379	1041.56
835.564	1264.79
835.749	791.71
835.934	488.61
836.119	1031.32
836.304	855.2
836.489	627.87
836.674	828.57
836.859	744.61
837.044	1254.55
837.228	646.3
837.413	621.73
837.598	1014.94
837.783	1225.88
837.968	677.02
838.152	593.06
838.337	455.84
838.522	1203.35
838.707	1057.95
838.891	892.06
839.076	1078.43
839.261	1205.4
839.445	652.45
839.63	724.13
839.815	1266.84
839.999	896.16
840.184	644.26
840.368	713.89
840.553	1117.34
840.737	1029.27
840.922	588.96
841.106	631.97
841.291	601.25
841.475	914.59
841.66	631.97
841.844	734.37
842.029	1612.95
842.213	642.21
842.397	603.3
842.582	564.39
842.766	1363.09
842.951	1148.06
843.135	765.09
843.319	699.55
843.504	992.41
843.688	1137.82
843.872	564.39
844.056	627.87
844.241	1033.37
844.425	855.2
844.609	896.16
844.793	455.84
844.977	1137.82
845.161	998.56
845.346	566.43
845.53	664.74
845.714	822.43
845.898	1418.39
846.082	597.15
846.266	615.59
846.45	935.07
846.634	1019.04
846.818	644.26
847.002	781.47
847.186	1119.39
847.37	781.47
847.554	490.66
847.738	847.01
847.922	1033.37
848.106	853.15
848.29	578.72
848.473	650.4
848.657	1115.29
848.841	822.43
849.025	717.98
849.209	447.65
849.392	1156.25
849.576	890.01
849.76	410.79
849.944	818.33
850.127	1328.28
850.311	625.83
850.495	562.34
850.678	484.52
850.862	1279.13
851.046	1420.44
851.229	900.25
851.413	650.4
851.596	900.25
851.78	926.88
851.964	816.29
852.147	781.47
852.331	1674.39
852.514	1334.42
852.698	763.04
852.881	459.94
853.065	1193.11
853.248	1014.94
853.431	748.7
853.615	871.58
853.798	1481.88
853.982	969.88
854.165	840.86
854.348	674.98
854.532	658.59
854.715	838.81
854.898	656.54
855.081	662.69
855.265	1277.08
855.448	1322.13
855.631	685.22
855.814	771.23
855.997	1182.87
856.181	955.55
856.364	699.55
856.547	613.54
856.73	1021.08
856.913	904.35
857.096	474.28
857.279	707.74
857.462	765.09
857.645	1119.39
857.828	904.35
858.011	836.77
858.194	842.91
858.377	1225.88
858.56	511.14
858.743	740.51
858.926	674.98
859.109	1078.43
859.292	658.59
859.475	570.53
859.658	1244.31
859.841	1139.87
860.023	666.78
860.206	574.63
860.389	1033.37
860.572	1303.7
860.755	629.92
860.937	658.59
861.12	773.28
861.303	953.5
861.486	826.53
861.668	601.25
861.851	1166.49
862.034	1008.8
862.216	830.62
862.399	574.63
862.581	1031.32
862.764	1285.27
862.947	791.71
863.129	576.67
863.312	715.94
863.494	1350.81
863.677	1008.8
863.859	470.18
864.042	1240.22
864.224	1363.09
864.406	795.81
864.589	593.06
864.771	1023.13
864.954	760.99
865.136	631.97
865.318	414.88
865.501	1223.83
865.683	486.56
865.865	697.5
866.048	634.02
866.23	953.5
866.412	986.27
866.594	470.18
866.777	707.74
866.959	1135.77
867.141	760.99
867.323	951.45
867.505	822.43
867.687	904.35
867.869	1000.6
868.052	623.78
868.234	576.67
868.416	830.62
868.598	1027.23
868.78	687.26
868.962	615.59
869.144	1197.21
869.326	1103
869.508	603.3
869.69	480.42
869.872	736.42
870.054	1281.18
870.236	584.87
870.417	652.45
870.599	816.29
870.781	1346.71
870.963	785.57
871.145	576.67
871.327	734.37
871.508	1201.3
871.69	629.92
871.872	627.87
872.054	935.07
872.235	1137.82
872.417	658.59
872.599	521.38
872.78	1313.94
872.962	1035.42
873.144	562.34
873.325	689.31
873.507	1272.98
873.689	980.12
873.87	568.48
874.052	767.13
874.233	924.83
874.415	1221.78
874.596	699.55
874.778	582.82
874.959	969.88
875.141	1238.17
875.322	740.51
875.503	511.14
875.685	1082.52
875.866	658.59
876.048	591.01
876.229	548
876.41	922.78
876.592	994.46
876.773	625.83
876.954	474.28
877.136	1393.81
877.317	894.11
877.498	466.08
877.679	760.99
877.86	1094.81
878.042	961.69
878.223	744.61
878.404	1023.13
878.585	1184.92
878.766	1551.51
878.947	939.16
879.128	939.16
879.309	1074.33
879.49	1252.5
879.672	765.09
879.853	820.38
880.034	863.39
880.215	920.73
880.396	779.42
880.576	754.85
880.757	855.2
880.938	1328.28
881.119	634.02
881.3	656.54
881.481	961.69
881.662	1727.63
881.843	658.59
882.023	666.78
882.204	1109.15
882.385	994.46
882.566	752.8
882.747	732.32
882.927	1021.08
883.108	1143.96
883.289	670.88
883.469	963.74
883.65	894.11
883.831	1088.67
884.011	918.68
884.192	773.28
884.373	1289.37
884.553	1084.57
884.734	910.49
884.914	1019.04
885.095	1721.49
885.275	1334.42
885.456	1166.49
885.636	687.26
885.817	920.73
885.997	1051.8
886.178	699.55
886.358	887.97
886.538	1113.24
886.719	2141.32
886.899	754.85
887.08	896.16
887.26	1348.76
887.44	838.81
887.621	724.13
887.801	906.4
887.981	1649.81
888.161	1236.12
888.342	873.63
888.522	898.2
888.702	1354.9
888.882	1383.57
889.062	890.01
889.242	578.72
889.423	1502.36
889.603	1354.9
889.783	965.79
889.963	838.81
890.143	1305.75
890.323	1391.77
890.503	912.54
890.683	871.58
890.863	1129.63
891.043	1160.34
891.223	961.69
891.403	1088.67
891.583	1119.39
891.763	1121.43
891.943	924.83
892.122	820.38
892.302	1078.43
892.482	1123.48
892.662	969.88
892.842	980.12
893.022	1268.89
893.201	965.79
893.381	990.36
893.561	824.48
893.741	1240.22
893.92	1207.45
894.1	1031.32
894.28	1039.51
894.459	1346.71
894.639	1236.12
894.819	887.97
894.998	1092.76
895.178	1272.98
895.357	1293.46
895.537	847.01
895.716	785.57
895.896	1197.21
896.075	1600.66
896.255	1023.13
896.434	777.37
896.614	1371.29
896.793	1545.36
896.973	1004.7
897.152	945.31
897.331	1342.61
897.511	1502.36
897.69	773.28
897.87	969.88
898.049	1334.42
898.228	1207.45
898.407	1111.19
898.587	1166.49
898.766	1006.75
898.945	1315.99
899.124	1234.07
899.304	1047.71
899.483	1350.81
899.662	1690.77
899.841	890.01
900.02	928.92
900.199	1535.12
900.378	1297.56
900.557	879.77
900.737	859.29
900.916	1350.81
901.095	1414.29
901.274	1103
901.453	822.43
901.632	1068.19
901.811	1002.65
901.989	855.2
902.168	822.43
902.347	1344.66
902.526	1057.95
902.705	953.5
902.884	1025.18
903.063	1457.3
903.242	1531.03
903.42	890.01
903.599	1053.85
903.778	1455.25
903.957	1612.95
904.135	1055.9
904.314	1002.65
904.493	1176.73
904.672	1363.09
904.85	924.83
905.029	887.97
905.207	1348.76
905.386	1868.94
905.565	740.51
905.743	904.35
905.922	1092.76
906.1	1522.84
906.279	789.66
906.457	855.2
906.636	1154.2
906.814	1182.87
906.993	937.12
907.171	990.36
907.35	1311.89
907.528	1469.59
907.707	1178.78
907.885	849.05
908.063	1647.76
908.242	1016.99
908.42	943.26
908.598	769.18
908.777	1350.81
908.955	996.51
909.133	1016.99
909.311	928.92
909.49	1059.99
909.668	1047.71
909.846	955.55
910.024	756.9
910.202	1225.88
910.38	1330.33
910.559	771.23
910.737	887.97
910.915	1250.46
911.093	1260.7
911.271	1070.23
911.449	1217.69
911.627	1305.75
911.805	1653.91
911.983	857.25
912.161	842.91
912.339	1305.75
912.517	1461.4
912.695	998.56
912.872	1035.42
913.05	1025.18
913.228	1156.25
913.406	1031.32
913.584	771.23
913.762	1367.19
913.939	1039.51
914.117	863.39
914.295	822.43
914.473	1299.61
914.65	1182.87
914.828	955.55
915.006	910.49
915.184	861.34
915.361	1330.33
915.539	1045.66
915.716	1176.73
915.894	1225.88
916.072	1363.09
916.249	1064.09
916.427	1139.87
916.604	859.29
916.782	1301.65
916.959	752.8
917.137	902.3
917.314	1217.69
917.492	1391.77
917.669	1039.51
917.847	990.36
918.024	1285.27
918.201	1010.84
918.379	916.64
918.556	879.77
918.733	1313.94
918.911	1072.28
919.088	1117.34
919.265	926.88
919.442	1234.07
919.62	1213.59
919.797	787.61
919.974	777.37
920.151	1182.87
920.328	1139.87
920.506	869.53
920.683	1088.67
920.86	902.3
921.037	1084.57
921.214	998.56
921.391	816.29
921.568	1326.23
921.745	973.98
921.922	933.02
922.099	797.85
922.276	1447.06
922.453	1256.6
922.63	724.13
922.807	1256.6
922.984	1062.04
923.161	1006.75
923.338	836.77
923.514	801.95
923.691	1062.04
923.868	1207.45
924.045	812.19
924.222	771.23
924.399	1162.39
924.575	1281.18
924.752	914.59
924.929	879.77
925.105	1219.74
925.282	912.54
925.459	961.69
925.635	969.88
925.812	1143.96
925.989	953.5
926.165	847.01
926.342	636.06
926.518	769.18
926.695	937.12
926.871	765.09
927.048	660.64
927.224	1279.13
927.401	980.12
927.577	922.78
927.754	613.54
927.93	1336.47
928.107	1174.68
928.283	746.66
928.459	963.74
928.636	1086.62
928.812	937.12
928.988	859.29
929.165	691.36
929.341	906.4
929.517	1068.19
929.693	1037.47
929.87	521.38
930.046	1152.15
930.222	847.01
930.398	654.5
930.574	865.44
930.751	1055.9
930.927	924.83
931.103	810.14
931.279	744.61
931.455	701.6
931.631	1027.23
931.807	584.87
931.983	605.35
932.159	650.4
932.335	1053.85
932.511	756.9
932.687	760.99
932.863	1019.04
933.039	957.6
933.215	591.01
933.391	584.87
933.566	971.93
933.742	1084.57
933.918	656.54
934.094	494.76
934.27	900.25
934.445	920.73
934.621	867.49
934.797	597.15
934.973	1113.24
935.148	920.73
935.324	531.62
935.5	390.31
935.675	1109.15
935.851	863.39
936.027	521.38
936.202	677.02
936.378	926.88
936.553	842.91
936.729	1004.7
936.904	496.8
937.08	580.77
937.255	634.02
937.431	523.43
937.606	445.6
937.782	656.54
937.957	758.94
938.133	617.63
938.308	461.99
938.483	681.12
938.659	494.76
938.834	521.38
939.009	390.31
939.185	629.92
939.36	537.76
939.535	220.33
939.71	582.82
939.886	890.01
940.061	750.75
940.236	591.01
940.411	437.41
940.586	683.17
940.761	654.5
940.937	425.12
941.112	339.11
941.287	607.39
941.462	683.17
941.637	322.73
941.812	447.65
941.987	558.24
942.162	502.95
942.337	535.71
942.512	289.96
942.687	742.56
942.862	752.8
943.037	177.32
943.212	52.39
943.386	548
943.561	642.21
943.736	470.18
943.911	552.1
944.086	615.59
944.26	660.64
944.435	298.15
944.61	464.04
944.785	867.49
944.959	939.16
945.134	328.87
945.309	222.38
945.483	359.59
945.658	720.03
945.833	5.29
946.007	187.56
946.182	953.5
946.357	296.1
946.531	203.94
946.706	220.33
946.88	183.46
947.055	627.87
947.229	281.77
947.404	257.19
947.578	806.05
947.752	445.6
947.927	160.94
948.101	183.46
948.276	502.95
948.45	578.72
948.624	529.57
948.799	341.16
948.973	658.59
949.147	201.9
949.321	453.8
949.496	453.8
949.67	861.34
949.844	474.28
950.018	322.73
950.193	339.11
950.367	1062.04
950.541	570.53
950.715	464.04
950.889	382.12
951.063	421.03
951.237	754.85
951.411	64.68
951.585	179.37
951.759	638.11
951.933	586.91
952.107	382.12
952.281	494.76
952.455	779.42
952.629	760.99
952.803	246.95
952.977	234.66
953.151	654.5
953.325	578.72
953.499	447.65
953.672	162.98
953.846	359.59
954.02	439.46
954.194	220.33
954.368	326.82
954.541	699.55
954.715	482.47
954.889	324.77
955.062	193.7
955.236	476.32
955.41	560.29
955.583	402.6
955.757	126.12
955.93	484.52
956.104	246.95
956.278	324.77
956.451	273.57
956.625	578.72
956.798	957.6
956.972	595.11
957.145	81.07
957.319	578.72
957.492	429.22
957.665	472.23
957.839	156.84
958.012	584.87
958.185	472.23
958.359	302.25
958.532	453.8
958.705	724.13
958.879	603.3
959.052	314.53
959.225	119.98
959.398	521.38
959.572	548
959.745	289.96
959.918	304.29
960.091	384.16
960.264	711.84
960.438	138.41
960.611	191.66
960.784	666.78
960.957	412.84
961.13	664.74
961.303	167.08
961.476	502.95
961.649	689.31
961.822	242.85
961.995	242.85
962.168	576.67
962.341	603.3
962.514	294.05
962.686	128.17
962.859	537.76
963.032	683.17
963.205	296.1
963.378	66.73
963.551	617.63
963.723	474.28
963.896	292.01
964.069	390.31
964.242	429.22
964.414	789.66
964.587	316.58
964.76	461.99
964.932	562.34
965.105	423.08
965.278	371.88
965.45	165.03
965.623	453.8
965.795	599.2
965.968	275.62
966.14	283.81
966.313	504.99
966.485	455.84
966.658	339.11
966.83	158.89
967.003	767.13
967.175	646.3
967.348	181.42
967.52	322.73
967.692	754.85
967.865	636.06
968.037	253.09
968.209	550.05
968.382	578.72
968.554	717.98
968.726	412.84
968.898	298.15
969.071	517.28
969.243	572.58
969.415	337.06
969.587	367.78
969.759	943.26
969.932	730.27
970.104	316.58
970.276	3.24
970.448	433.32
970.62	375.97
970.792	423.08
970.964	261.29
971.136	963.74
971.308	646.3
971.48	259.24
971.652	324.77
971.824	904.35
971.996	429.22
972.168	259.24
972.339	388.26
972.511	750.75
972.683	560.29
972.855	488.61
973.027	335.01
973.199	513.19
973.37	693.41
973.542	392.36
973.714	343.21
973.886	502.95
974.057	689.31
974.229	199.85
974.401	208.04
974.572	255.14
974.744	179.37
974.915	191.66
975.087	230.57
975.259	842.91
975.43	461.99
975.602	226.47
975.773	208.04
975.945	318.63
976.116	699.55
976.288	119.98
976.459	476.32
976.63	384.16
976.802	584.87
976.973	179.37
977.145	392.36
977.316	873.63
977.487	797.85
977.659	402.6
977.83	255.14
978.001	881.82
978.172	488.61
978.344	267.43
978.515	228.52
978.686	314.53
978.857	818.33
979.028	289.96
979.2	218.28
979.371	711.84
979.542	427.17
979.713	457.89
979.884	-78.68
980.055	332.97
980.226	482.47
980.397	300.2
980.568	179.37
980.739	814.24
980.91	437.41
981.081	439.46
981.252	150.7
981.423	683.17
981.594	683.17
981.765	201.9
981.936	390.31
982.106	476.32
982.277	838.81
982.448	152.74
982.619	396.45
982.79	369.83
982.96	685.22
983.131	324.77
983.302	9.39
983.472	349.35
983.643	625.83
983.814	312.49
983.984	292.01
984.155	451.75
984.326	679.07
984.496	355.49
984.667	210.09
984.837	314.53
985.008	769.18
985.178	408.74
985.349	359.59
985.519	494.76
985.69	332.97
985.86	224.42
986.031	89.26
986.201	476.32
986.371	507.04
986.542	119.98
986.712	25.77
986.882	558.24
987.053	580.77
987.223	122.02
987.393	353.45
987.563	269.48
987.734	595.11
987.904	523.43
988.074	269.48
988.244	470.18
988.414	300.2
988.585	158.89
988.755	236.71
988.925	398.5
989.095	793.76
989.265	171.18
989.435	318.63
989.605	593.06
989.775	601.25
989.945	529.57
990.115	142.5
990.285	373.92
990.455	498.85
990.625	322.73
990.795	179.37
990.965	769.18
991.134	232.62
991.304	97.45
991.474	134.31
991.644	513.19
991.814	801.95
991.984	117.93
992.153	183.46
992.323	449.7
992.493	548
992.662	25.77
992.832	283.81
993.002	484.52
993.171	523.43
993.341	-13.14
993.511	369.83
993.68	326.82
993.85	699.55
994.019	60.59
994.189	64.68
994.358	502.95
994.528	316.58
994.697	-45.91
994.867	95.4
995.036	660.64
995.206	341.16
995.375	130.22
995.544	263.33
995.714	513.19
995.883	421.03
996.052	308.39
996.222	-93.01
996.391	873.63
996.56	478.37
996.73	44.2
996.899	-33.62
997.068	781.47
997.237	461.99
997.406	44.2
997.576	-13.14
997.745	541.86
997.914	425.12
998.083	-107.35
998.252	117.93
998.421	429.22
998.59	165.03
998.759	136.36
998.928	-58.2
999.097	564.39
999.266	480.42
999.435	195.75
999.604	-142.16
999.773	857.25
999.942	316.58
1000.111	-70.48
1000.28	-39.76
1000.448	117.93
1000.617	160.94
1000.786	220.33
1000.955	-21.33
1001.124	423.08
1001.292	1051.8
1001.461	81.07
1001.63	-21.33
1001.798	691.36
1001.967	715.94
1002.136	-99.16
1002.304	3.24
1002.473	429.22
1002.642	421.03
1002.81	124.07
1002.979	38.06
1003.147	545.95
1003.316	857.25
1003.484	33.96
1003.653	-13.14
1003.821	672.93
1003.99	328.87
1004.158	220.33
1004.327	152.74
1004.495	511.14
1004.663	216.23
1004.832	216.23
1005	-68.44
1005.168	492.71
1005.337	382.12
1005.505	-181.07
1005.673	162.98
1005.842	478.37
1006.01	502.95
1006.178	-86.87
1006.346	-4.95
1006.514	437.41
1006.683	613.54
1006.851	-0.85
1007.019	-33.62
1007.187	195.75
1007.355	-148.31
1007.523	-152.4
1007.691	-150.36
1007.859	17.58
1008.027	670.88
1008.195	56.49
1008.363	-97.11
1008.531	496.8
1008.699	119.98
1008.867	-156.5
1009.035	-19.29
1009.203	654.5
1009.37	369.83
1009.538	-19.29
1009.706	375.97
1009.874	289.96
1010.042	349.35
1010.209	-74.58
1010.377	-31.57
1010.545	617.63
1010.713	322.73
1010.88	-103.25
1011.048	25.77
1011.216	261.29
1011.383	703.65
1011.551	-82.77
1011.718	-146.26
1011.886	566.43
1012.054	289.96
1012.221	-93.01
1012.389	7.34
1012.556	285.86
1012.724	634.02
1012.891	83.11
1013.058	-119.64
1013.226	459.94
1013.393	474.28
1013.561	-193.36
1013.728	-158.55
1013.895	574.63
1014.063	433.32
1014.23	-162.64
1014.397	-95.06
1014.565	464.04
1014.732	281.77
1014.899	-66.39
1015.066	-226.13
1015.233	380.07
1015.401	560.29
1015.568	-84.82
1015.735	40.11
1015.902	273.57
1016.069	418.98
1016.236	-54.1
1016.403	-183.12
1016.57	160.94
1016.737	519.33
1016.904	101.55
1017.071	-131.92
1017.238	81.07
1017.405	404.64
1017.572	54.44
1017.739	152.74
1017.906	482.47
1018.073	486.56
1018.24	-152.4
1018.407	-31.57
1018.573	519.33
1018.74	275.62
1018.907	56.49
1019.074	-179.03
1019.241	513.19
1019.407	335.01
1019.574	-45.91
1019.741	-150.36
1019.907	351.4
1020.074	384.16
1020.241	-254.8
1020.407	-168.79
1020.574	349.35
1020.74	457.89
1020.907	-68.44
1021.073	-86.87
1021.24	853.15
1021.406	599.2
1021.573	-144.21
1021.739	-95.06
1021.906	552.1
1022.072	230.57
1022.239	-86.87
1022.405	-70.48
1022.571	320.68
1022.738	99.5
1022.904	-84.82
1023.07	48.3
1023.237	289.96
1023.403	521.38
1023.569	-21.33
1023.735	-70.48
1023.902	332.97
1024.068	382.12
1024.234	-148.31
1024.4	-150.36
1024.566	312.49
1024.732	484.52
1024.898	-166.74
1025.065	-316.24
1025.231	490.66
1025.397	222.38
1025.563	-45.91
1025.729	-129.88
1025.895	-111.44
1026.061	42.15
1026.227	-273.23
1026.392	-74.58
1026.558	437.41
1026.724	394.4
1026.89	-164.69
1027.056	40.11
1027.222	382.12
1027.388	144.55
1027.553	-189.27
1027.719	-68.44
1027.885	619.68
1028.051	410.79
1028.216	-217.94
1028.382	-64.34
1028.548	515.23
1028.713	158.89
1028.879	-277.33
1029.045	40.11
1029.21	482.47
1029.376	570.53
1029.541	-31.57
1029.707	-19.29
1029.873	439.46
1030.038	498.85
1030.204	-66.39
1030.369	-62.29
1030.534	564.39
1030.7	226.47
1030.865	-54.1
1031.031	-158.55
1031.196	322.73
1031.361	406.69
1031.527	-70.48
1031.692	-136.02
1031.857	-154.45
1032.023	353.45
1032.188	-191.31
1032.353	-52.05
1032.518	572.58
1032.684	335.01
1032.849	-226.13
1033.014	-82.77
1033.179	408.74
1033.344	365.73
1033.509	-17.24
1033.674	-90.96
1033.839	468.13
1034.004	466.08
1034.17	-160.59
1034.335	-215.89
1034.5	220.33
1034.664	128.17
1034.829	-234.32
1034.994	-95.06
1035.159	318.63
1035.324	285.86
1035.489	-127.83
1035.654	-117.59
1035.819	591.01
1035.984	302.25
1036.148	-45.91
1036.313	-166.74
1036.478	459.94
1036.643	249
1036.807	-158.55
1036.972	-215.89
1037.137	619.68
1037.301	234.66
1037.466	-230.23
1037.631	-76.63
1037.795	588.96
1037.96	259.24
1038.124	165.03
1038.289	-209.75
1038.454	339.11
1038.618	404.64
1038.783	-111.44
1038.947	-70.48
1039.111	308.39
1039.276	99.5
1039.44	-197.46
1039.605	324.77
1039.769	183.46
1039.933	261.29
1040.098	-119.64
1040.262	148.65
1040.426	464.04
1040.591	414.88
1040.755	-219.99
1040.919	-103.25
1041.083	361.64
1041.248	136.36
1041.412	-293.71
1041.576	-262.99
1041.74	255.14
1041.904	406.69
1042.068	-176.98
1042.232	-119.64
1042.397	500.9
1042.561	332.97
1042.725	-328.53
1042.889	50.35
1043.053	441.51
1043.217	283.81
1043.381	-60.24
1043.544	-234.32
1043.708	390.31
1043.872	5.29
1044.036	-281.43
1044.2	-205.65
1044.364	470.18
1044.528	502.95
1044.691	4834.4
1044.855	-236.37
1045.019	519.33
1045.183	416.93
1045.346	-54.1
1045.51	-127.83
1045.674	335.01
1045.837	367.78
1046.001	-136.02
1046.165	-123.73
1046.328	758.94
1046.492	318.63
1046.655	1.19
1046.819	-70.48
1046.983	195.75
1047.146	404.64
1047.31	-125.78
1047.473	-322.38
1047.636	316.58
1047.8	109.74
1047.963	-70.48
1048.127	-187.22
1048.29	93.35
