Data from Ink_Intensity_USB4F045381__171__00171.txt Node

Date: Mon Jul 17 11:37:25 EDT 2023
User: mmckonesweet
Spectrometer: USB4F04538
Trigger mode: 4
Integration Time (sec): 9.000000E-1
Scans to average: 1
Electric dark correction enabled: true
Nonlinearity correction enabled: false
Boxcar width: 0
XAxis mode: Wavelengths
Number of Pixels in Spectrum: 3648
>>>>>Begin Spectral Data<<<<<
345.52	-1083.72
345.736	-1083.72
345.952	-1083.72
346.168	-981.32
346.384	-958.79
346.6	-135.51
346.816	-311.63
347.032	-215.38
347.248	315.05
347.464	-172.37
347.68	-141.65
347.896	102.06
348.112	358.05
348.328	-88.4
348.544	-43.35
348.76	79.53
348.975	253.61
349.191	-260.43
349.407	-205.14
349.623	-29.01
349.839	-139.6
350.055	-149.84
350.27	11.95
350.486	100.01
350.702	267.94
350.918	249.51
351.133	-192.85
351.349	95.91
351.565	331.43
351.781	-266.58
351.996	-59.73
352.212	204.46
352.428	-182.61
352.644	-254.29
352.859	-266.58
353.075	302.76
353.291	93.87
353.506	-135.51
353.722	-252.24
353.938	-98.64
354.153	503.46
354.369	50.86
354.584	-285.01
354.8	188.07
355.016	-332.11
355.231	-289.1
355.447	-86.36
355.662	159.4
355.878	802.46
356.093	-414.03
356.309	-67.92
356.524	-229.71
356.74	208.55
356.955	-235.86
357.171	-57.68
357.386	179.88
357.602	-258.39
357.817	-121.17
358.033	-229.71
358.248	376.48
358.464	229.03
358.679	-133.46
358.895	-332.11
359.11	-49.49
359.325	233.13
359.541	3.75
359.756	-4.44
359.972	-360.78
360.187	169.64
360.402	-270.67
360.618	-141.65
360.833	968.35
361.048	188.07
361.264	-135.51
361.479	-67.92
361.694	3.75
361.909	194.22
362.125	-299.34
362.34	-203.09
362.555	296.61
362.77	91.82
362.986	-336.21
363.201	-151.89
363.416	136.87
363.631	52.91
363.847	-164.18
364.062	-172.37
364.277	143.02
364.492	155.3
364.707	-180.56
364.922	-401.74
365.138	222.89
365.353	267.94
365.568	-254.29
365.783	-166.23
365.998	81.58
366.213	536.23
366.428	-250.19
366.643	38.57
366.858	261.8
367.073	257.7
367.288	-65.88
367.503	-246.1
367.718	83.63
367.933	339.62
368.148	-315.73
368.363	-108.88
368.578	-22.87
368.793	392.87
369.008	-225.62
369.223	-301.39
369.438	202.41
369.653	306.85
369.868	-278.87
370.083	-219.47
370.298	69.29
370.513	356.01
370.728	44.71
370.943	-155.99
371.157	-196.95
371.372	474.79
371.587	-299.34
371.802	-405.84
372.017	20.14
372.232	464.55
372.446	-59.73
372.661	-276.82
372.876	173.74
373.091	102.06
373.306	-162.13
373.52	-246.1
373.735	-235.86
373.95	503.46
374.165	-151.89
374.379	-176.47
374.594	-80.21
374.809	145.06
375.023	26.28
375.238	-223.57
375.453	190.12
375.667	-311.63
375.882	-250.19
376.097	-225.62
376.311	38.57
376.526	-0.34
376.741	-172.37
376.955	-8.53
377.17	437.92
377.384	515.75
377.599	-57.68
377.813	-332.11
378.028	491.17
378.242	175.78
378.457	-84.31
378.672	-373.07
378.886	89.77
379.101	-72.02
379.315	-250.19
379.53	-176.47
379.744	194.22
379.958	183.98
380.173	-151.89
380.387	-141.65
380.602	132.78
380.816	-143.7
381.031	-268.63
381.245	-141.65
381.459	161.45
381.674	2731.65
381.888	-258.39
382.103	40.62
382.317	-213.33
382.531	362.15
382.746	-14.68
382.96	-168.27
383.174	-98.64
383.388	417.44
383.603	40.62
383.817	-256.34
384.031	97.96
384.246	335.53
384.46	-2.39
384.674	188.07
384.888	59.05
385.103	24.23
385.317	-332.11
385.531	-141.65
385.745	335.53
385.959	284.33
386.174	-211.28
386.388	-315.73
386.602	-47.44
386.816	-90.45
387.03	-131.41
387.244	-127.32
387.458	40.62
387.672	269.99
387.887	-319.82
388.101	-340.3
388.315	296.61
388.529	126.63
388.743	-215.38
388.957	-289.1
389.171	286.37
389.385	-184.66
389.599	-158.03
389.813	11.95
390.027	126.63
390.241	601.76
390.455	-194.9
390.669	-84.31
390.883	-100.69
391.097	356.01
391.311	32.43
391.525	-180.56
391.738	151.21
391.952	118.44
392.166	-67.92
392.38	-215.38
392.594	241.32
392.808	366.25
393.022	-102.74
393.236	-129.36
393.449	220.84
393.663	233.13
393.877	-231.76
394.091	-131.41
394.305	-37.2
394.518	-98.64
394.732	-368.98
394.946	-182.61
395.16	487.08
395.373	85.67
395.587	-231.76
395.801	-301.39
396.015	384.68
396.228	200.36
396.442	-315.73
396.656	-362.83
396.869	294.57
397.083	419.49
397.297	-108.88
397.51	-201.04
397.724	339.62
397.938	77.48
398.151	-307.54
398.365	-393.55
398.578	253.61
398.792	337.57
399.005	-104.79
399.219	-151.89
399.433	48.81
399.646	220.84
399.86	22.19
400.073	48.81
400.287	243.37
400.5	87.72
400.714	-37.2
400.927	-160.08
401.141	122.54
401.354	1007.26
401.567	153.26
401.781	-266.58
401.994	249.51
402.208	605.86
402.421	-145.75
402.635	-112.98
402.848	-65.88
403.061	249.51
403.275	-33.11
403.488	-203.09
403.701	439.97
403.915	278.18
404.128	-6.49
404.341	-217.43
404.555	112.3
404.768	36.52
404.981	40.62
405.195	-184.66
405.408	380.58
405.621	251.56
405.834	-20.82
406.048	-274.77
406.261	378.53
406.474	384.68
406.687	-186.71
406.9	-94.55
407.114	69.29
407.327	190.12
407.54	-307.54
407.753	-340.3
407.966	-137.56
408.179	300.71
408.392	-229.71
408.605	-366.93
408.819	194.22
409.032	149.16
409.245	-274.77
409.458	18.09
409.671	243.37
409.884	321.19
410.097	-252.24
410.31	-41.3
410.523	161.45
410.736	-33.11
410.949	-88.4
411.162	-123.22
411.375	343.72
411.588	269.99
411.801	13.99
412.014	-190.8
412.227	-18.77
412.44	-20.82
412.653	-229.71
412.865	-69.97
413.078	196.26
413.291	204.46
413.504	-141.65
413.717	-143.7
413.93	259.75
414.143	-211.28
414.356	-166.23
414.568	-239.95
414.781	274.09
414.994	40.62
415.207	-209.23
415.42	-137.56
415.632	229.03
415.845	405.16
416.058	-272.72
416.271	-346.45
416.483	38.57
416.696	515.75
416.909	-174.42
417.121	-201.04
417.334	157.35
417.547	523.94
417.759	-207.19
417.972	-266.58
418.185	-53.59
418.397	202.41
418.61	-239.95
418.823	-239.95
419.035	364.2
419.248	-16.73
419.46	-151.89
419.673	-78.16
419.885	147.11
420.098	-24.92
420.311	-151.89
420.523	-383.31
420.736	269.99
420.948	-6.49
421.161	-115.03
421.373	-405.84
421.586	134.82
421.798	-69.97
422.01	-295.25
422.223	-35.16
422.435	-160.08
422.648	265.89
422.86	-184.66
423.073	-133.46
423.285	249.51
423.497	-287.06
423.71	-225.62
423.922	-250.19
424.134	132.78
424.347	399.01
424.559	-16.73
424.771	102.06
424.984	28.33
425.196	165.54
425.408	-377.17
425.621	-289.1
425.833	290.47
426.045	339.62
426.257	-289.1
426.47	-258.39
426.682	57
426.894	188.07
427.106	-158.03
427.318	-246.1
427.531	-74.07
427.743	114.34
427.955	-262.48
428.167	237.22
428.379	134.82
428.591	-20.82
428.804	-139.6
429.016	-215.38
429.228	-94.55
429.44	194.22
429.652	-69.97
429.864	-266.58
430.076	-22.87
430.288	-20.82
430.5	-223.57
430.712	-86.36
430.924	233.13
431.136	93.87
431.348	-274.77
431.56	-217.43
431.772	48.81
431.984	-67.92
432.196	-260.43
432.408	-213.33
432.62	-131.41
432.832	116.39
433.044	44.71
433.256	-172.37
433.468	231.08
433.679	-344.4
433.891	-295.25
434.103	97.96
434.315	356.01
434.527	153.26
434.739	-121.17
434.95	-225.62
435.162	233.13
435.374	-115.03
435.586	-201.04
435.798	-270.67
436.009	-209.23
436.221	-63.83
436.433	-194.9
436.645	-123.22
436.856	-133.46
437.068	245.41
437.28	-266.58
437.491	73.39
437.703	175.78
437.915	75.43
438.126	-115.03
438.338	28.33
438.55	44.71
438.761	167.59
438.973	-176.47
439.184	-147.8
439.396	97.96
439.608	171.69
439.819	-278.87
440.031	-182.61
440.242	153.26
440.454	188.07
440.665	-168.27
440.877	-147.8
441.088	208.55
441.3	-33.11
441.511	-379.22
441.723	-250.19
441.934	208.55
442.146	18.09
442.357	-100.69
442.569	130.73
442.78	44.71
442.991	450.21
443.203	112.3
443.414	-242
443.626	335.53
443.837	-121.17
444.048	-237.91
444.26	-315.73
444.471	54.95
444.682	241.32
444.894	-418.13
445.105	-373.07
445.316	267.94
445.528	143.02
445.739	-115.03
445.95	-119.12
446.161	69.29
446.373	181.93
446.584	-151.89
446.795	-201.04
447.006	241.32
447.217	392.87
447.429	-371.02
447.64	-272.72
447.851	323.24
448.062	104.11
448.273	-405.84
448.484	-248.15
448.695	272.04
448.907	-115.03
449.118	-110.93
449.329	38.57
449.54	-67.92
449.751	-256.34
449.962	-201.04
450.173	-274.77
450.384	304.81
450.595	364.2
450.806	-252.24
451.017	-98.64
451.228	263.85
451.439	237.22
451.65	-248.15
451.861	-368.98
452.072	-239.95
452.283	65.19
452.494	-33.11
452.705	-323.92
452.915	370.34
453.126	126.63
453.337	-223.57
453.548	-278.87
453.759	259.75
453.97	583.33
454.181	-6.49
454.391	-196.95
454.602	85.67
454.813	81.58
455.024	-151.89
455.235	-182.61
455.445	136.87
455.656	46.76
455.867	-41.3
456.078	-225.62
456.288	-96.6
456.499	112.3
456.71	-328.02
456.921	28.33
457.131	200.36
457.342	93.87
457.553	-139.6
457.763	-227.67
457.974	204.46
458.184	220.84
458.395	-270.67
458.606	-289.1
458.816	235.18
459.027	530.08
459.237	-108.88
459.448	-323.92
459.659	294.57
459.869	554.66
460.08	-389.46
460.29	-139.6
460.501	452.26
460.711	-127.32
460.922	-303.44
461.132	-248.15
461.343	679.58
461.553	-219.47
461.764	-223.57
461.974	-282.96
462.184	235.18
462.395	67.24
462.605	-102.74
462.816	-276.82
463.026	71.34
463.236	378.53
463.447	-233.81
463.657	-217.43
463.867	235.18
464.078	-131.41
464.288	-203.09
464.498	-270.67
464.709	26.28
464.919	-18.77
465.129	-115.03
465.339	-170.32
465.55	167.59
465.76	208.55
465.97	-258.39
466.18	-242
466.391	251.56
466.601	159.4
466.811	-151.89
467.021	-360.78
467.231	155.3
467.441	269.99
467.651	-207.19
467.862	-491.85
468.072	69.29
468.282	286.37
468.492	-239.95
468.702	-196.95
468.912	-78.16
469.122	659.1
469.332	-12.63
469.542	-278.87
469.752	202.41
469.962	13.99
470.172	-330.06
470.382	-274.77
470.592	165.54
470.802	364.2
471.012	-67.92
471.222	-323.92
471.432	263.85
471.642	175.78
471.852	-155.99
472.062	-307.54
472.272	30.38
472.482	-188.75
472.691	-299.34
472.901	-344.4
473.111	67.24
473.321	646.82
473.531	-350.54
473.741	-135.51
473.95	183.98
474.16	245.41
474.37	-166.23
474.58	-428.37
474.79	374.44
474.999	233.13
475.209	-364.88
475.419	-174.42
475.628	-112.98
475.838	296.61
476.048	-219.47
476.258	-414.03
476.467	269.99
476.677	-151.89
476.886	-106.84
477.096	-106.84
477.306	-119.12
477.515	286.37
477.725	-211.28
477.935	-139.6
478.144	351.91
478.354	-182.61
478.563	-213.33
478.773	-303.44
478.982	290.47
479.192	261.8
479.401	-24.92
479.611	-289.1
479.82	-168.27
480.03	132.78
480.239	-377.17
480.449	-364.88
480.658	501.41
480.868	-145.75
481.077	-190.8
481.287	-201.04
481.496	188.07
481.705	454.31
481.915	-8.53
482.124	11.95
482.333	65.19
482.543	317.09
482.752	-162.13
482.961	-299.34
483.171	212.65
483.38	-45.4
483.589	-201.04
483.799	-270.67
484.008	42.67
484.217	245.41
484.426	-254.29
484.636	-272.72
484.845	100.01
485.054	-244.05
485.263	28.33
485.472	-137.56
485.682	376.48
485.891	65.19
486.1	-430.41
486.309	-223.57
486.518	177.83
486.727	333.48
486.936	-282.96
487.146	-141.65
487.355	364.2
487.564	-178.51
487.773	-158.03
487.982	-215.38
488.191	-67.92
488.4	16.04
488.609	-237.91
488.818	-270.67
489.027	573.09
489.236	351.91
489.445	-196.95
489.654	-237.91
489.863	249.51
490.072	110.25
490.281	159.4
490.49	-233.81
490.698	401.06
490.907	351.91
491.116	-151.89
491.325	-346.45
491.534	343.72
491.743	85.67
491.952	-145.75
492.16	-119.12
492.369	202.41
492.578	269.99
492.787	-143.7
492.996	-328.02
493.204	-96.6
493.413	521.89
493.622	-471.37
493.831	-375.12
494.039	286.37
494.248	-207.19
494.457	-272.72
494.665	-399.7
494.874	128.68
495.083	530.08
495.291	-182.61
495.5	-235.86
495.709	229.03
495.917	32.43
496.126	-207.19
496.335	-303.44
496.543	-24.92
496.752	124.58
496.96	28.33
497.169	-381.26
497.377	65.19
497.586	325.29
497.794	-151.89
498.003	-489.81
498.211	52.91
498.42	396.96
498.628	-217.43
498.837	-328.02
499.045	204.46
499.254	118.44
499.462	-303.44
499.671	-256.34
499.879	462.5
500.087	310.95
500.296	-219.47
500.504	-297.3
500.713	114.34
500.921	544.42
501.129	-315.73
501.338	-233.81
501.546	-4.44
501.754	38.57
501.962	-252.24
502.171	-362.83
502.379	93.87
502.587	417.44
502.795	-213.33
503.004	-248.15
503.212	36.52
503.42	290.47
503.628	-242
503.837	-176.47
504.045	155.3
504.253	356.01
504.461	-319.82
504.669	-418.13
504.877	112.3
505.085	392.87
505.294	-426.32
505.502	-49.49
505.71	161.45
505.918	208.55
506.126	-352.59
506.334	-377.17
506.542	-63.83
506.75	138.92
506.958	-215.38
507.166	-278.87
507.374	-84.31
507.582	487.08
507.79	-172.37
507.998	-321.87
508.206	161.45
508.414	122.54
508.622	-244.05
508.83	-258.39
509.037	439.97
509.245	-39.25
509.453	-362.83
509.661	-399.7
509.869	151.21
510.077	-37.2
510.285	-139.6
510.492	-502.09
510.7	554.66
510.908	-98.64
511.116	-254.29
511.324	-344.4
511.531	-37.2
511.739	48.81
511.947	-90.45
512.155	34.47
512.362	44.71
512.57	-201.04
512.778	-237.91
512.985	-438.61
513.193	253.61
513.401	286.37
513.608	-248.15
513.816	-311.63
514.024	106.15
514.231	298.66
514.439	-239.95
514.646	-266.58
514.854	179.88
515.061	331.43
515.269	-295.25
515.477	-153.94
515.684	-129.36
515.892	243.37
516.099	-416.08
516.307	-330.06
516.514	224.94
516.722	433.83
516.929	-215.38
517.136	-397.65
517.344	288.42
517.551	145.06
517.759	-246.1
517.966	-227.67
518.173	-20.82
518.381	1.71
518.588	-198.99
518.796	-334.16
519.003	159.4
519.21	-35.16
519.418	-242
519.625	-0.34
519.832	3.75
520.039	151.21
520.247	-491.85
520.454	-297.3
520.661	237.22
520.868	214.7
521.076	-262.48
521.283	-213.33
521.49	593.57
521.697	243.37
521.904	-127.32
522.112	-270.67
522.319	216.74
522.526	87.72
522.733	-354.64
522.94	-307.54
523.147	30.38
523.354	218.79
523.561	-395.6
523.768	-217.43
523.975	347.81
524.183	63.15
524.39	-209.23
524.597	-418.13
524.804	-33.11
525.011	-108.88
525.218	-317.78
525.425	-223.57
525.632	413.35
525.838	-147.8
526.045	-160.08
526.252	-317.78
526.459	1013.4
526.666	872.09
526.873	-311.63
527.08	-315.73
527.287	315.05
527.494	300.71
527.701	-362.83
527.907	-336.21
528.114	44.71
528.321	-26.96
528.528	-192.85
528.735	-348.5
528.941	-90.45
529.148	-10.58
529.355	-180.56
529.562	-303.44
529.768	351.91
529.975	-84.31
530.182	-227.67
530.388	-291.15
530.595	247.46
530.802	-184.66
531.008	-18.77
531.215	-299.34
531.422	462.5
531.628	693.92
531.835	-237.91
532.042	-207.19
532.248	-104.79
532.455	95.91
532.661	-137.56
532.868	-328.02
533.074	114.34
533.281	317.09
533.487	-194.9
533.694	-340.3
533.9	-139.6
534.107	202.41
534.313	-334.16
534.52	-301.39
534.726	392.87
534.933	523.94
535.139	-264.53
535.345	-418.13
535.552	110.25
535.758	118.44
535.965	-256.34
536.171	-328.02
536.377	204.46
536.584	282.28
536.79	-184.66
536.996	-201.04
537.203	52.91
537.409	159.4
537.615	-254.29
537.821	-135.51
538.028	206.5
538.234	175.78
538.44	-274.77
538.646	-194.9
538.853	169.64
539.059	-61.78
539.265	95.91
539.471	-475.47
539.677	206.5
539.883	-45.4
540.09	-295.25
540.296	130.73
540.502	-0.34
540.708	-176.47
540.914	-22.87
541.12	-254.29
541.326	183.98
541.532	-41.3
541.738	-139.6
541.944	-168.27
542.15	249.51
542.356	-59.73
542.562	-336.21
542.768	-198.99
542.974	581.28
543.18	497.32
543.386	-274.77
543.592	-446.8
543.798	382.63
544.004	319.14
544.21	-282.96
544.415	-149.84
544.621	130.73
544.827	356.01
545.033	-401.74
545.239	-0.34
545.445	-201.04
545.651	116.39
545.856	-233.81
546.062	-252.24
546.268	-65.88
546.474	24.23
546.679	-256.34
546.885	-207.19
547.091	-170.32
547.297	458.4
547.502	-196.95
547.708	-405.84
547.914	-57.68
548.119	200.36
548.325	-342.35
548.531	-403.79
548.736	425.64
548.942	-76.12
549.147	-282.96
549.353	-86.36
549.559	323.24
549.764	134.82
549.97	-201.04
550.175	-323.92
550.381	216.74
550.586	-74.07
550.792	-209.23
550.997	-291.15
551.203	114.34
551.408	114.34
551.614	-356.69
551.819	-340.3
552.025	388.77
552.23	495.27
552.435	-454.99
552.641	-86.36
552.846	-98.64
553.052	274.09
553.257	-74.07
553.462	-229.71
553.668	-90.45
553.873	351.91
554.078	-319.82
554.283	-299.34
554.489	126.63
554.694	104.11
554.899	-325.97
555.105	-106.84
555.31	145.06
555.515	169.64
555.72	-131.41
555.925	-373.07
556.131	177.83
556.336	-55.64
556.541	-289.1
556.746	-377.17
556.951	376.48
557.156	382.63
557.361	-174.42
557.567	-96.6
557.772	507.55
557.977	192.17
558.182	-215.38
558.387	-227.67
558.592	-16.73
558.797	337.57
559.002	-225.62
559.207	-135.51
559.412	46.76
559.617	503.46
559.822	-229.71
560.027	-389.46
560.232	155.3
560.437	243.37
560.642	-375.12
560.847	-280.91
561.051	116.39
561.256	97.96
561.461	-143.7
561.666	-366.93
561.871	75.43
562.076	183.98
562.281	-201.04
562.485	-364.88
562.69	181.93
562.895	298.66
563.1	-266.58
563.305	-323.92
563.509	388.77
563.714	626.34
563.919	-229.71
564.123	-233.81
564.328	22.19
564.533	315.05
564.737	-186.71
564.942	-203.09
565.147	409.25
565.351	614.05
565.556	-184.66
565.761	-158.03
565.965	149.16
566.17	-141.65
566.374	-231.76
566.579	-330.06
566.784	104.11
566.988	-61.78
567.193	-414.03
567.397	-276.82
567.602	-188.75
567.806	138.92
568.011	-233.81
568.215	-188.75
568.42	32.43
568.624	-14.68
568.828	-223.57
569.033	-94.55
569.237	175.78
569.442	161.45
569.646	-379.22
569.85	-180.56
570.055	-49.49
570.259	134.82
570.463	-72.02
570.668	-235.86
570.872	7.85
571.076	32.43
571.281	-160.08
571.485	-164.18
571.689	40.62
571.893	220.84
572.098	-151.89
572.302	-196.95
572.506	179.88
572.71	38.57
572.914	-246.1
573.119	-233.81
573.323	376.48
573.527	315.05
573.731	-184.66
573.935	-389.46
574.139	114.34
574.343	-53.59
574.547	-309.58
574.751	-198.99
574.955	442.02
575.159	345.77
575.364	-207.19
575.568	-278.87
575.772	-12.63
575.976	356.01
576.18	-237.91
576.383	-446.8
576.587	319.14
576.791	229.03
576.995	-446.8
577.199	-403.79
577.403	298.66
577.607	329.38
577.811	-405.84
578.015	-158.03
578.219	42.67
578.422	296.61
578.626	-194.9
578.83	1.71
579.034	327.33
579.238	102.06
579.442	-242
579.645	196.26
579.849	24.23
580.053	155.3
580.257	-135.51
580.46	-244.05
580.664	290.47
580.868	233.13
581.071	-76.12
581.275	-155.99
581.479	-248.15
581.682	208.55
581.886	-213.33
582.09	-135.51
582.293	167.59
582.497	333.48
582.7	-45.4
582.904	-225.62
583.107	57
583.311	63.15
583.515	-61.78
583.718	-151.89
583.922	237.22
584.125	497.32
584.329	-252.24
584.532	-137.56
584.735	370.34
584.939	208.55
585.142	-364.88
585.346	-242
585.549	169.64
585.753	20.14
585.956	-110.93
586.159	-110.93
586.363	437.92
586.566	143.02
586.769	-217.43
586.973	-289.1
587.176	110.25
587.379	349.86
587.582	81.58
587.786	26.28
587.989	-10.58
588.192	732.83
588.395	-160.08
588.599	75.43
588.802	100.01
589.005	202.41
589.208	-139.6
589.411	-184.66
589.615	290.47
589.818	437.92
590.021	73.39
590.224	-94.55
590.427	313
590.63	214.7
590.833	-295.25
591.036	-250.19
591.239	-108.88
591.442	-82.26
591.645	18.09
591.848	-289.1
592.051	179.88
592.254	347.81
592.457	-94.55
592.66	-151.89
592.863	110.25
593.066	171.69
593.269	-227.67
593.472	-61.78
593.675	-98.64
593.878	308.9
594.081	-96.6
594.284	-196.95
594.486	138.92
594.689	-10.58
594.892	-96.6
595.095	-115.03
595.298	208.55
595.5	-69.97
595.703	-72.02
595.906	-51.54
596.109	435.88
596.311	399.01
596.514	-452.94
596.717	-65.88
596.92	343.72
597.122	204.46
597.325	-371.02
597.528	-248.15
597.73	390.82
597.933	126.63
598.136	-237.91
598.338	-401.74
598.541	190.12
598.743	319.14
598.946	-94.55
599.148	-153.94
599.351	325.29
599.554	358.05
599.756	-92.5
599.959	-164.18
600.161	306.85
600.363	562.85
600.566	79.53
600.768	-147.8
600.971	485.03
601.173	310.95
601.376	-207.19
601.578	-125.27
601.78	194.22
601.983	587.43
602.185	-209.23
602.388	34.47
602.59	161.45
602.792	81.58
602.995	7.85
603.197	-65.88
603.399	415.4
603.601	257.7
603.804	-115.03
604.006	-237.91
604.208	46.76
604.41	-280.91
604.613	-45.4
604.815	-151.89
605.017	593.57
605.219	57
605.421	210.6
605.623	-217.43
605.826	495.27
606.028	458.4
606.23	-215.38
606.432	-184.66
606.634	544.42
606.836	366.25
607.038	-295.25
607.24	-2.39
607.442	233.13
607.644	120.49
607.846	48.81
608.048	-250.19
608.25	396.96
608.452	-78.16
608.654	-119.12
608.856	-323.92
609.058	104.11
609.26	200.36
609.462	-110.93
609.664	-182.61
609.866	655.01
610.067	431.78
610.269	-10.58
610.471	-158.03
610.673	-6.49
610.875	208.55
611.077	-237.91
611.278	-69.97
611.48	229.03
611.682	693.92
611.884	-39.25
612.085	-53.59
612.287	-53.59
612.489	417.44
612.69	-330.06
612.892	-112.98
613.094	304.81
613.295	216.74
613.497	-256.34
613.699	-65.88
613.9	519.84
614.102	302.76
614.304	-45.4
614.505	-227.67
614.707	108.2
614.908	89.77
615.11	-194.9
615.311	-31.06
615.513	329.38
615.714	351.91
615.916	-233.81
616.117	-61.78
616.319	112.3
616.52	282.28
616.722	-135.51
616.923	-151.89
617.124	331.43
617.326	237.22
617.527	28.33
617.729	143.02
617.93	259.75
618.131	368.29
618.333	-100.69
618.534	-61.78
618.735	-139.6
618.937	525.99
619.138	-246.1
619.339	-196.95
619.54	302.76
619.742	83.63
619.943	100.01
620.144	-12.63
620.345	433.83
620.546	499.36
620.748	-287.06
620.949	-100.69
621.15	261.8
621.351	288.42
621.552	-94.55
621.753	-233.81
621.954	-133.46
622.155	655.01
622.356	-168.27
622.558	65.19
622.759	138.92
622.96	650.91
623.161	-123.22
623.362	-123.22
623.563	231.08
623.764	306.85
623.965	-80.21
624.166	89.77
624.366	143.02
624.567	249.51
624.768	-332.11
624.969	-110.93
625.17	83.63
625.371	261.8
625.572	95.91
625.773	-225.62
625.973	454.31
626.174	347.81
626.375	9.9
626.576	-53.59
626.777	302.76
626.977	745.12
627.178	-160.08
627.379	-12.63
627.58	245.41
627.78	124.58
627.981	13.99
628.182	24.23
628.382	452.26
628.583	-184.66
628.784	-155.99
628.984	104.11
629.185	300.71
629.386	356.01
629.586	-4.44
629.787	-190.8
629.987	333.48
630.188	222.89
630.388	-37.2
630.589	22.19
630.79	835.23
630.99	235.18
631.191	-16.73
631.391	71.34
631.591	315.05
631.792	581.28
631.992	61.1
632.193	-43.35
632.393	544.42
632.594	253.61
632.794	-45.4
632.994	79.53
633.195	216.74
633.395	210.6
633.595	-104.79
633.796	192.17
633.996	65.19
634.196	482.98
634.397	-151.89
634.597	7.85
634.797	40.62
634.997	589.47
635.198	179.88
635.398	-112.98
635.598	298.66
635.798	568.99
635.998	396.96
636.199	-160.08
636.399	108.2
636.599	1.71
636.799	24.23
636.999	280.23
637.199	321.19
637.399	439.97
637.599	-112.98
637.799	85.67
637.999	143.02
638.199	568.99
638.399	-123.22
638.599	9.9
638.799	405.16
638.999	679.58
639.199	69.29
639.399	120.49
639.599	601.76
639.799	11.95
639.999	-84.31
640.199	-139.6
640.399	274.09
640.599	390.82
640.799	26.28
640.998	110.25
641.198	482.98
641.398	304.81
641.598	95.91
641.798	3.75
641.997	1205.91
642.197	286.37
642.397	75.43
642.597	-86.36
642.796	341.67
642.996	560.8
643.196	93.87
643.395	-135.51
643.595	374.44
643.795	-119.12
643.994	93.87
644.194	167.59
644.394	499.36
644.593	321.19
644.793	-76.12
644.992	188.07
645.192	433.83
645.392	-110.93
645.591	147.11
645.791	46.76
645.99	384.68
646.19	192.17
646.389	16.04
646.589	143.02
646.788	427.68
646.987	401.06
647.187	294.57
647.386	196.26
647.586	356.01
647.785	536.23
647.984	120.49
648.184	126.63
648.383	224.94
648.582	130.73
648.782	108.2
648.981	138.92
649.18	85.67
649.38	356.01
649.579	-12.63
649.778	-4.44
649.977	345.77
650.177	450.21
650.376	3.75
650.575	-10.58
650.774	655.01
650.973	61.1
651.173	-127.32
651.372	126.63
651.571	401.06
651.77	503.46
651.969	40.62
652.168	147.11
652.367	89.77
652.566	407.2
652.765	24.23
652.964	310.95
653.163	822.94
653.362	237.22
653.561	11.95
653.76	52.91
653.959	229.03
654.158	487.08
654.357	249.51
654.556	106.15
654.755	425.64
654.954	513.7
655.153	32.43
655.352	140.97
655.551	642.72
655.749	155.3
655.948	106.15
656.147	175.78
656.346	417.44
656.545	259.75
656.743	274.09
656.942	188.07
657.141	396.96
657.34	69.29
657.538	87.72
657.737	159.4
657.936	204.46
658.135	429.73
658.333	104.11
658.532	259.75
658.731	757.41
658.929	544.42
659.128	368.29
659.326	-4.44
659.525	657.06
659.724	274.09
659.922	-141.65
660.121	20.14
660.319	409.25
660.518	120.49
660.716	57
660.915	-8.53
661.113	700.06
661.312	65.19
661.51	218.79
661.709	-18.77
661.907	419.49
662.105	693.92
662.304	79.53
662.502	181.93
662.701	698.02
662.899	341.67
663.097	360.1
663.296	30.38
663.494	636.58
663.692	743.07
663.891	16.04
664.089	18.09
664.287	556.71
664.485	622.24
664.684	100.01
664.882	216.74
665.08	442.02
665.278	374.44
665.476	-88.4
665.675	472.74
665.873	777.89
666.071	673.44
666.269	69.29
666.467	399.01
666.665	439.97
666.863	364.2
667.061	313
667.259	93.87
667.457	380.58
667.655	489.12
667.853	-16.73
668.051	310.95
668.249	235.18
668.447	503.46
668.645	44.71
668.843	351.91
669.041	577.19
669.239	269.99
669.437	179.88
669.635	288.42
669.833	218.79
670.031	603.81
670.229	306.85
670.426	243.37
670.624	315.05
670.822	261.8
671.02	147.11
671.218	175.78
671.415	298.66
671.613	448.16
671.811	282.28
672.009	138.92
672.206	550.56
672.404	380.58
672.602	450.21
672.799	337.57
672.997	532.13
673.195	607.91
673.392	323.24
673.59	116.39
673.788	667.3
673.985	-33.11
674.183	192.17
674.38	218.79
674.578	603.81
674.775	269.99
674.973	83.63
675.17	159.4
675.368	802.46
675.565	612
675.763	143.02
675.96	155.3
676.158	763.55
676.355	390.82
676.553	118.44
676.75	235.18
676.947	399.01
677.145	308.9
677.342	335.53
677.539	341.67
677.737	534.18
677.934	902.81
678.131	364.2
678.329	200.36
678.526	806.56
678.723	634.53
678.92	323.24
679.118	169.64
679.315	71.34
679.512	777.89
679.709	356.01
679.906	331.43
680.104	675.49
680.301	431.78
680.498	188.07
680.695	155.3
680.892	290.47
681.089	382.63
681.286	382.63
681.483	179.88
681.68	556.71
681.877	614.05
682.075	235.18
682.272	353.96
682.469	525.99
682.665	329.38
682.862	171.69
683.059	100.01
683.256	470.69
683.453	501.41
683.65	288.42
683.847	274.09
684.044	466.6
684.241	210.6
684.438	319.14
684.635	192.17
684.831	972.44
685.028	986.78
685.225	224.94
685.422	454.31
685.619	444.07
685.815	562.85
686.012	360.1
686.209	347.81
686.405	202.41
686.602	679.58
686.799	229.03
686.996	181.93
687.192	241.32
687.389	933.53
687.586	196.26
687.782	337.57
687.979	786.08
688.175	689.82
688.372	315.05
688.568	255.65
688.765	401.06
688.962	859.81
689.158	394.92
689.355	161.45
689.551	708.26
689.748	315.05
689.944	335.53
690.14	196.26
690.337	802.46
690.533	313
690.73	470.69
690.926	308.9
691.123	644.77
691.319	528.03
691.515	196.26
691.712	489.12
691.908	585.38
692.104	616.1
692.301	394.92
692.497	140.97
692.693	614.05
692.889	659.1
693.086	390.82
693.282	206.5
693.478	552.61
693.674	978.59
693.87	362.15
694.067	208.55
694.263	509.6
694.459	437.92
694.655	427.68
694.851	405.16
695.047	677.54
695.243	634.53
695.439	433.83
695.635	263.85
695.831	683.68
696.027	564.9
696.224	313
696.42	663.2
696.615	777.89
696.811	614.05
697.007	210.6
697.203	290.47
697.399	583.33
697.595	831.13
697.791	302.76
697.987	429.73
698.183	288.42
698.379	392.87
698.575	294.57
698.77	378.53
698.966	700.06
699.162	814.75
699.358	302.76
699.554	292.52
699.749	708.26
699.945	763.55
700.141	413.35
700.337	437.92
700.532	472.74
700.728	431.78
700.924	280.23
701.119	173.74
701.315	704.16
701.511	544.42
701.706	360.1
701.902	243.37
702.097	618.15
702.293	634.53
702.489	380.58
702.684	374.44
702.88	577.19
703.075	507.55
703.271	351.91
703.466	210.6
703.662	532.13
703.857	704.16
704.053	331.43
704.248	317.09
704.443	646.82
704.639	679.58
704.834	448.16
705.03	272.04
705.225	732.83
705.42	849.57
705.616	478.88
705.811	288.42
706.006	487.08
706.202	378.53
706.397	458.4
706.592	245.41
706.787	698.02
706.983	591.52
707.178	585.38
707.373	487.08
707.568	827.04
707.763	812.7
707.959	360.1
708.154	358.05
708.349	614.05
708.544	685.73
708.739	626.34
708.934	286.37
709.129	810.65
709.324	888.48
709.519	333.48
709.714	292.52
709.909	966.3
710.104	728.74
710.299	323.24
710.494	462.5
710.689	753.31
710.884	609.95
711.079	497.32
711.274	609.95
711.469	788.13
711.664	716.45
711.859	390.82
712.054	612
712.249	845.47
712.443	851.61
712.638	272.04
712.833	368.29
713.028	695.97
713.223	609.95
713.417	659.1
713.612	382.63
713.807	806.56
714.002	1203.86
714.196	648.86
714.391	388.77
714.586	925.34
714.78	693.92
714.975	374.44
715.17	425.64
715.364	585.38
715.559	933.53
715.754	159.4
715.948	370.34
716.143	1117.85
716.337	732.83
716.532	687.78
716.726	415.4
716.921	730.78
717.115	1105.56
717.31	327.33
717.504	951.96
717.699	575.14
717.893	878.24
718.088	339.62
718.282	329.38
718.476	771.74
718.671	749.22
718.865	394.92
719.059	335.53
719.254	648.86
719.448	1001.12
719.642	1744.53
719.837	300.71
720.031	921.24
720.225	923.29
720.419	487.08
720.614	401.06
720.808	855.71
721.002	687.78
721.196	333.48
721.39	470.69
721.585	974.49
721.779	800.41
721.973	546.47
722.167	380.58
722.361	710.3
722.555	833.18
722.749	419.49
722.943	513.7
723.137	528.03
723.331	835.23
723.525	519.84
723.719	509.6
723.913	818.85
724.107	1064.6
724.301	353.96
724.495	538.27
724.689	1126.04
724.883	960.16
725.077	437.92
725.271	480.93
725.465	1031.83
725.659	736.93
725.853	575.14
726.046	286.37
726.24	632.48
726.434	841.37
726.628	558.75
726.822	536.23
727.015	984.73
727.209	984.73
727.403	503.46
727.596	360.1
727.79	904.86
727.984	831.13
728.177	564.9
728.371	560.8
728.565	984.73
728.758	472.74
728.952	380.58
729.146	548.51
729.339	978.59
729.533	724.64
729.726	560.8
729.92	417.44
730.113	1015.45
730.307	814.75
730.5	534.18
730.694	513.7
730.887	540.32
731.081	888.48
731.274	364.2
731.468	577.19
731.661	698.02
731.854	632.48
732.048	521.89
732.241	442.02
732.435	525.99
732.628	880.29
732.821	618.15
733.014	442.02
733.208	540.32
733.401	913.05
733.594	597.67
733.788	521.89
733.981	1076.89
734.174	927.39
734.367	460.45
734.56	624.29
734.754	929.44
734.947	726.69
735.14	431.78
735.333	601.76
735.526	1101.47
735.719	638.62
735.912	511.65
736.105	478.88
736.298	767.65
736.491	548.51
736.684	507.55
736.877	485.03
737.07	896.67
737.263	1048.22
737.456	560.8
737.649	382.63
737.842	761.5
738.035	857.76
738.228	630.43
738.421	714.4
738.614	976.54
738.807	923.29
739	444.07
739.192	472.74
739.385	958.11
739.578	917.15
739.771	749.22
739.964	536.23
740.156	945.82
740.349	808.61
740.542	712.35
740.735	413.35
740.927	552.61
741.12	599.71
741.313	528.03
741.505	626.34
741.698	878.24
741.891	911
742.083	616.1
742.276	540.32
742.468	786.08
742.661	820.89
742.854	616.1
743.046	538.27
743.239	1240.73
743.431	796.32
743.624	622.24
743.816	401.06
744.009	659.1
744.201	917.15
744.393	827.04
744.586	392.87
744.778	1048.22
744.971	718.5
745.163	689.82
745.355	743.07
745.548	859.81
745.74	667.3
745.932	726.69
746.125	556.71
746.317	1367.7
746.509	921.24
746.702	630.43
746.894	743.07
747.086	954.01
747.278	1201.82
747.471	753.31
747.663	736.93
747.855	827.04
748.047	1130.14
748.239	515.75
748.431	544.42
748.623	1277.59
748.815	1277.59
749.008	435.88
749.2	556.71
749.392	1066.65
749.584	978.59
749.776	716.45
749.968	720.54
750.16	1238.68
750.352	855.71
750.544	734.88
750.736	560.8
750.928	937.63
751.12	749.22
751.311	642.72
751.503	638.62
751.695	925.34
751.887	835.23
752.079	439.97
752.271	601.76
752.463	1562.26
752.654	1046.17
752.846	671.39
753.038	648.86
753.23	741.02
753.421	1056.41
753.613	626.34
753.805	843.42
753.997	1203.86
754.188	986.78
754.38	597.67
754.572	562.85
754.763	786.08
754.955	1089.18
755.146	665.25
755.338	667.3
755.53	1089.18
755.721	874.14
755.913	517.79
756.104	536.23
756.296	806.56
756.487	1126.04
756.679	495.27
756.87	601.76
757.062	784.03
757.253	997.02
757.445	622.24
757.636	829.09
757.827	872.09
758.019	1472.15
758.21	579.23
758.401	571.04
758.593	1441.43
758.784	1191.58
758.975	548.51
759.167	618.15
759.358	900.76
759.549	1191.58
759.74	532.13
759.932	655.01
760.123	1162.9
760.314	784.03
760.505	708.26
760.696	667.3
760.888	1296.02
761.079	880.29
761.27	550.56
761.461	454.31
761.652	1246.87
761.843	814.75
762.034	720.54
762.225	962.2
762.416	749.22
762.607	937.63
762.798	681.63
762.989	603.81
763.18	1644.18
763.371	845.47
763.562	634.53
763.753	698.02
763.944	1253.02
764.135	1119.9
764.326	769.69
764.517	767.65
764.708	958.11
764.899	1113.75
765.089	620.19
765.28	507.55
765.471	941.72
765.662	1080.99
765.853	720.54
766.043	677.54
766.234	1107.61
766.425	1207.96
766.615	753.31
766.806	556.71
766.997	1220.25
767.187	1019.55
767.378	693.92
767.569	591.52
767.759	1085.08
767.95	1017.5
768.141	851.61
768.331	614.05
768.522	1035.93
768.712	1150.62
768.903	655.01
769.093	599.71
769.284	1367.7
769.474	1044.12
769.665	476.84
769.855	456.36
770.046	1240.73
770.236	822.94
770.426	904.86
770.617	575.14
770.807	1035.93
770.998	972.44
771.188	886.43
771.378	691.87
771.569	1298.07
771.759	1115.8
771.949	661.15
772.139	437.92
772.33	964.25
772.52	1306.26
772.71	626.34
772.9	493.22
773.09	1293.97
773.281	1271.45
773.471	732.83
773.661	679.58
773.851	1365.65
774.041	896.67
774.231	655.01
774.421	792.22
774.611	1363.61
774.802	925.34
774.992	800.41
775.182	730.78
775.372	949.92
775.562	1134.23
775.752	636.58
775.942	773.79
776.131	1279.64
776.321	1097.37
776.511	734.88
776.701	630.43
776.891	1191.58
777.081	829.09
777.271	790.17
777.461	669.34
777.651	1181.34
777.84	1253.02
778.03	816.8
778.22	704.16
778.41	1298.07
778.599	865.95
778.789	818.85
778.979	568.99
779.169	1066.65
779.358	982.68
779.548	911
779.738	558.75
779.927	1029.79
780.117	726.69
780.307	806.56
780.496	403.11
780.686	1080.99
780.875	1390.23
781.065	626.34
781.254	712.35
781.444	986.78
781.633	890.53
781.823	724.64
782.012	700.06
782.202	859.81
782.391	915.1
782.581	624.29
782.77	808.61
782.96	1113.75
783.149	849.57
783.338	624.29
783.528	485.03
783.717	1183.38
783.906	1312.41
784.096	863.9
784.285	554.66
784.474	872.09
784.663	794.27
784.853	763.55
785.042	747.17
785.231	923.29
785.42	1154.71
785.61	784.03
785.799	671.39
785.988	837.28
786.177	949.92
786.366	857.76
786.555	892.57
786.744	1177.24
786.933	980.64
787.122	657.06
787.312	501.41
787.501	956.06
787.69	1123.99
787.879	761.5
788.068	751.26
788.257	687.78
788.445	870.05
788.634	763.55
788.823	581.28
789.012	1638.03
789.201	1285.78
789.39	894.62
789.579	630.43
789.768	982.68
789.957	954.01
790.145	804.51
790.334	540.32
790.523	964.25
790.712	841.37
790.9	831.13
791.089	597.67
791.278	1193.62
791.467	1109.66
791.655	956.06
791.844	1162.9
792.033	878.24
792.221	915.1
792.41	859.81
792.599	495.27
792.787	1205.91
792.976	1220.25
793.164	673.44
793.353	736.93
793.541	1191.58
793.73	1060.51
793.918	755.36
794.107	677.54
794.295	986.78
794.484	976.54
794.672	683.68
794.861	724.64
795.049	1220.25
795.238	1408.66
795.426	644.77
795.614	859.81
795.803	1121.95
795.991	1396.37
796.179	691.87
796.368	798.37
796.556	1281.69
796.744	820.89
796.932	679.58
797.121	601.76
797.309	1019.55
797.497	1228.44
797.685	712.35
797.874	771.74
798.062	929.44
798.25	1412.76
798.438	810.65
798.626	773.79
798.814	1175.19
799.002	1582.74
799.19	1015.45
799.378	784.03
799.566	1318.55
799.755	1453.72
799.943	1003.16
800.131	798.37
800.318	1076.89
800.506	1113.75
800.694	749.22
800.882	878.24
801.07	1330.84
801.258	986.78
801.446	784.03
801.634	847.52
801.822	1183.38
802.01	984.73
802.197	880.29
802.385	917.15
802.573	1095.32
802.761	1003.16
802.949	849.57
803.136	650.91
803.324	1289.88
803.512	1089.18
803.699	865.95
803.887	659.1
804.075	1379.99
804.262	947.87
804.45	667.3
804.638	994.97
804.825	847.52
805.013	1048.22
805.201	788.13
805.388	859.81
805.576	1048.22
805.763	1588.88
805.951	722.59
806.138	1007.26
806.326	1666.71
806.513	1146.52
806.701	906.91
806.888	765.6
807.075	1191.58
807.263	1609.36
807.45	708.26
807.638	921.24
807.825	1535.64
808.012	1341.08
808.2	847.52
808.387	1121.95
808.574	1238.68
808.761	1511.06
808.949	890.53
809.136	929.44
809.323	890.53
809.51	1089.18
809.698	1283.74
809.885	1011.36
810.072	1314.45
810.259	1330.84
810.446	994.97
810.633	812.7
810.82	1357.46
811.008	1470.1
811.195	1054.36
811.382	1015.45
811.569	1148.57
811.756	927.39
811.943	904.86
812.13	921.24
812.317	1091.23
812.504	1031.83
812.691	921.24
812.878	986.78
813.064	1642.13
813.251	1142.43
813.438	802.46
813.625	1072.79
813.812	1128.09
813.999	1197.72
814.186	1005.21
814.372	1021.6
814.559	1183.38
814.746	1588.88
814.933	1029.79
815.12	1154.71
815.306	1029.79
815.493	972.44
815.68	908.96
815.866	982.68
816.053	1511.06
816.24	1582.74
816.426	1089.18
816.613	935.58
816.799	1347.22
816.986	1345.17
817.173	794.27
817.359	863.9
817.546	1330.84
817.732	935.58
817.919	663.2
818.105	1117.85
818.292	1253.02
818.478	1369.75
818.665	1154.71
818.851	831.13
819.037	1795.73
819.224	1271.45
819.41	892.57
819.597	827.04
819.783	1635.99
819.969	1349.27
820.156	945.82
820.342	933.53
820.528	1883.79
820.714	1240.73
820.901	1183.38
821.087	1001.12
821.273	1640.08
821.459	1191.58
821.646	851.61
821.832	900.76
822.018	1226.39
822.204	1296.02
822.39	900.76
822.576	863.9
822.762	1390.23
822.948	1257.11
823.134	1138.33
823.32	960.16
823.507	882.33
823.693	1308.31
823.879	1445.52
824.065	937.63
824.25	1437.33
824.436	1052.31
824.622	931.48
824.808	839.33
824.994	1203.86
825.18	1056.41
825.366	976.54
825.552	861.85
825.738	1068.7
825.923	1451.67
826.109	1228.44
826.295	878.24
826.481	1181.34
826.667	1138.33
826.852	1013.4
827.038	949.92
827.224	1504.92
827.409	1699.47
827.595	870.05
827.781	1203.86
827.966	1506.96
828.152	1457.81
828.338	1031.83
828.523	784.03
828.709	1076.89
828.894	1523.35
829.08	1019.55
829.266	1013.4
829.451	1103.51
829.637	1398.42
829.822	1050.27
830.008	974.49
830.193	1511.06
830.378	1654.42
830.564	1117.85
830.749	810.65
830.935	1400.47
831.12	1466
831.305	974.49
831.491	1162.9
831.676	960.16
831.861	1345.17
832.047	1052.31
832.232	812.7
832.417	1490.58
832.602	1330.84
832.788	925.34
832.973	904.86
833.158	1275.54
833.343	1289.88
833.528	1076.89
833.714	1117.85
833.899	1306.26
834.084	1746.58
834.269	1179.29
834.454	976.54
834.639	1392.28
834.824	1220.25
835.009	1091.23
835.194	1173.14
835.379	1441.43
835.564	1767.06
835.749	1216.15
835.934	894.62
836.119	1527.44
836.304	1314.45
836.489	1076.89
836.674	1234.58
836.859	1236.63
837.044	1549.97
837.228	1091.23
837.413	906.91
837.598	1402.52
837.783	1431.19
837.968	1062.55
838.152	908.96
838.337	943.77
838.522	1549.97
838.707	1480.34
838.891	1154.71
839.076	1343.13
839.261	1603.22
839.445	1015.45
839.63	1117.85
839.815	1695.38
839.999	1191.58
840.184	966.3
840.368	1136.28
840.553	1578.64
840.737	1502.87
840.922	970.4
841.106	980.64
841.291	1117.85
841.475	1363.61
841.66	941.72
841.844	1046.17
842.029	2037.39
842.213	1076.89
842.397	992.92
842.582	884.38
842.766	1640.08
842.951	1638.03
843.135	1003.16
843.319	1095.32
843.504	1349.27
843.688	1629.84
843.872	837.28
844.056	1017.5
844.241	1498.77
844.425	1250.97
844.609	1185.43
844.793	769.69
844.977	1482.39
845.161	1431.19
845.346	913.05
845.53	949.92
845.714	1339.03
845.898	1658.51
846.082	751.26
846.266	1019.55
846.45	1328.79
846.634	1406.61
846.818	980.64
847.002	1099.42
847.186	1466
847.37	1056.41
847.554	870.05
847.738	1123.99
847.922	1304.21
848.106	1441.43
848.29	1040.03
848.473	1021.6
848.657	1457.81
848.841	1371.8
849.025	1046.17
849.209	949.92
849.392	1414.81
849.576	1203.86
849.76	700.06
849.944	1205.91
850.127	1742.48
850.311	1085.08
850.495	921.24
850.678	876.19
850.862	1633.94
851.046	1631.89
851.229	1220.25
851.413	964.25
851.596	1289.88
851.78	1279.64
851.964	1222.3
852.147	1070.75
852.331	1965.71
852.514	1519.25
852.698	1164.95
852.881	954.01
853.065	1640.08
853.248	1298.07
853.431	1210.01
853.615	1087.13
853.798	1805.97
853.982	1379.99
854.165	1181.34
854.348	1097.37
854.532	1056.41
854.715	1101.47
854.898	1123.99
855.081	1040.03
855.265	1658.51
855.448	1638.03
855.631	1007.26
855.814	1103.51
855.997	1525.4
856.181	1306.26
856.364	1169.05
856.547	884.38
856.73	1308.31
856.913	1259.16
857.096	845.47
857.279	1144.47
857.462	1255.06
857.645	1511.06
857.828	1150.62
858.011	1117.85
858.194	1128.09
858.377	1449.62
858.56	880.29
858.743	1078.94
858.926	1113.75
859.109	1355.41
859.292	1025.69
859.475	855.71
859.658	1584.79
859.841	1500.82
860.023	921.24
860.206	962.2
860.389	1275.54
860.572	1644.18
860.755	927.39
860.937	1023.64
861.12	1259.16
861.303	1293.97
861.486	1113.75
861.668	880.29
861.851	1408.66
862.034	1248.92
862.216	1070.75
862.399	847.52
862.581	1498.77
862.764	1717.9
862.947	1099.42
863.129	929.44
863.312	1042.07
863.494	1535.64
863.677	1318.55
863.859	888.48
864.042	1556.11
864.224	1627.79
864.406	1117.85
864.589	894.62
864.771	1390.23
864.954	1130.14
865.136	1056.41
865.318	872.09
865.501	1379.99
865.683	876.19
865.865	984.73
866.048	962.2
866.23	1351.32
866.412	1398.42
866.594	908.96
866.777	1027.74
866.959	1506.96
867.141	1185.43
867.323	1351.32
867.505	1175.19
867.687	1250.97
867.869	1291.93
868.052	992.92
868.234	913.05
868.416	1277.59
868.598	1531.54
868.78	1089.18
868.962	923.29
869.144	1527.44
869.326	1496.72
869.508	1037.98
869.69	954.01
869.872	1158.81
870.054	1601.17
870.236	941.72
870.417	962.2
870.599	1207.96
870.781	1789.58
870.963	1152.67
871.145	956.06
871.327	1011.36
871.508	1427.09
871.69	1046.17
871.872	1119.9
872.054	1308.31
872.235	1472.15
872.417	1119.9
872.599	954.01
872.78	1588.88
872.962	1357.46
873.144	994.97
873.325	1078.94
873.507	1699.47
873.689	1457.81
873.87	986.78
874.052	1134.23
874.233	1373.85
874.415	1494.68
874.596	1019.55
874.778	919.2
874.959	1259.16
875.141	1658.51
875.322	1105.56
875.503	982.68
875.685	1529.49
875.866	927.39
876.048	976.54
876.229	939.68
876.41	1205.91
876.592	1363.61
876.773	1013.4
876.954	822.94
877.136	1627.79
877.317	1261.21
877.498	865.95
877.679	1205.91
877.86	1521.3
878.042	1379.99
878.223	933.53
878.404	1388.18
878.585	1461.91
878.766	1740.43
878.947	1384.09
879.128	1289.88
879.309	1558.16
879.49	1611.41
879.672	1191.58
879.853	1171.1
880.034	1091.23
880.215	1373.85
880.396	1283.74
880.576	1025.69
880.757	1103.51
880.938	1746.58
881.119	1019.55
881.3	1058.46
881.481	1113.75
881.662	2158.22
881.843	925.34
882.023	974.49
882.204	1486.48
882.385	1455.76
882.566	1072.79
882.747	1066.65
882.927	1267.35
883.108	1470.1
883.289	1111.71
883.469	1220.25
883.65	1404.57
883.831	1412.76
884.011	1345.17
884.192	1146.52
884.373	1713.81
884.553	1592.98
884.734	1343.13
884.914	1400.47
885.095	1978
885.275	1738.38
885.456	1398.42
885.636	896.67
885.817	1320.6
885.997	1431.19
886.178	1111.71
886.358	1275.54
886.538	1449.62
886.719	2471.56
886.899	1150.62
887.08	1248.92
887.26	1658.51
887.44	1199.77
887.621	1117.85
887.801	1322.65
887.981	2125.45
888.161	1652.37
888.342	1128.09
888.522	1265.3
888.702	1744.53
888.882	1865.36
889.062	1369.75
889.242	1023.64
889.423	1779.34
889.603	1584.79
889.783	1355.41
889.963	1169.05
890.143	1701.52
890.323	1873.55
890.503	1193.62
890.683	1359.51
890.863	1607.31
891.043	1631.89
891.223	1339.03
891.403	1500.82
891.583	1617.55
891.763	1592.98
891.943	1412.76
892.122	1164.95
892.302	1572.5
892.482	1457.81
892.662	1449.62
892.842	1414.81
893.022	1685.14
893.201	1375.89
893.381	1461.91
893.561	1271.45
893.741	1848.97
893.92	1666.71
894.1	1478.29
894.28	1457.81
894.459	1709.71
894.639	1654.42
894.819	1359.51
894.998	1396.37
895.178	1640.08
895.357	1732.24
895.537	1289.88
895.716	1236.63
895.896	1523.35
896.075	1926.8
896.255	1486.48
896.434	1046.17
896.614	1881.74
896.793	1953.42
896.973	1390.23
897.152	1506.96
897.331	1762.96
897.511	1795.73
897.69	1214.1
897.87	1406.61
898.049	1705.62
898.228	1617.55
898.407	1429.14
898.587	1402.52
898.766	1490.58
898.945	1799.82
899.124	1678.99
899.304	1470.1
899.483	1650.32
899.662	2070.16
899.841	1265.3
900.02	1412.76
900.199	1848.97
900.378	1707.66
900.557	1287.83
900.737	1183.38
900.916	1785.49
901.095	1826.45
901.274	1691.28
901.453	1216.15
901.632	1445.52
901.811	1443.48
901.989	1287.83
902.168	1265.3
902.347	1803.92
902.526	1638.03
902.705	1379.99
902.884	1423
903.063	1953.42
903.242	1867.41
903.42	1277.59
903.599	1480.34
903.778	1828.49
903.957	1932.94
904.135	1427.09
904.314	1351.32
904.493	1713.81
904.672	1656.47
904.85	1416.85
905.029	1287.83
905.207	1785.49
905.386	2324.1
905.565	1222.3
905.743	1314.45
905.922	1537.68
906.1	1748.62
906.279	1066.65
906.457	1162.9
906.636	1547.92
906.814	1595.03
906.993	1277.59
907.171	1210.01
907.35	1840.78
907.528	1803.92
907.707	1676.95
907.885	1164.95
908.063	2072.2
908.242	1355.41
908.42	1273.5
908.598	1136.28
908.777	1750.67
908.955	1367.7
909.133	1388.18
909.311	1316.5
909.49	1543.83
909.668	1564.31
909.846	1349.27
910.024	1060.51
910.202	1517.2
910.38	1738.38
910.559	1281.69
910.737	1158.81
910.915	1644.18
911.093	1631.89
911.271	1437.33
911.449	1423
911.627	1605.27
911.805	1998.48
911.983	1359.51
912.161	1228.44
912.339	1646.23
912.517	1887.89
912.695	1433.24
912.872	1377.94
913.05	1318.55
913.228	1619.6
913.406	1283.74
913.584	1248.92
913.762	1775.25
913.939	1547.92
914.117	1230.49
914.295	1126.04
914.473	1681.04
914.65	1672.85
914.828	1302.17
915.006	1205.91
915.184	1308.31
915.361	1621.65
915.539	1375.89
915.716	1451.67
915.894	1683.09
916.072	1631.89
916.249	1398.42
916.427	1330.84
916.604	1257.11
916.782	1646.23
916.959	1203.86
917.137	1101.47
917.314	1582.74
917.492	1724.05
917.669	1373.85
917.847	1363.61
918.024	1732.24
918.201	1330.84
918.379	1214.1
918.556	1289.88
918.733	1746.58
918.911	1545.88
919.088	1535.64
919.265	1277.59
919.442	1576.59
919.62	1511.06
919.797	1117.85
919.974	1160.86
920.151	1506.96
920.328	1486.48
920.506	1226.39
920.683	1357.46
920.86	1222.3
921.037	1402.52
921.214	1269.4
921.391	1138.33
921.568	1711.76
921.745	1195.67
921.922	1228.44
922.099	1064.6
922.276	1775.25
922.453	1539.73
922.63	1111.71
922.807	1558.16
922.984	1515.16
923.161	1328.79
923.338	1207.96
923.514	1074.84
923.691	1386.13
923.868	1457.81
924.045	1107.61
924.222	1062.55
924.399	1504.92
924.575	1668.75
924.752	1248.92
924.929	1240.73
925.105	1582.74
925.282	1232.54
925.459	1162.9
925.635	1191.58
925.812	1349.27
925.989	1412.76
926.165	1236.63
926.342	1040.03
926.518	1269.4
926.695	1527.44
926.871	1054.36
927.048	1044.12
927.224	1547.92
927.401	1253.02
927.577	1175.19
927.754	982.68
927.93	1695.38
928.107	1511.06
928.283	1042.07
928.459	1269.4
928.636	1496.72
928.812	1250.97
928.988	970.4
929.165	904.86
929.341	1298.07
929.517	1396.37
929.693	1423
929.87	839.33
930.046	1482.39
930.222	1242.78
930.398	988.83
930.574	1152.67
930.751	1212.06
930.927	1146.52
931.103	964.25
931.279	1123.99
931.455	990.88
931.631	1306.26
931.807	937.63
931.983	968.35
932.159	1015.45
932.335	1185.43
932.511	968.35
932.687	988.83
932.863	1304.21
933.039	1242.78
933.215	831.13
933.391	824.99
933.566	1193.62
933.742	1265.3
933.918	898.72
934.094	790.17
934.27	1185.43
934.445	1273.5
934.621	1085.08
934.797	958.11
934.973	1357.46
935.148	1281.69
935.324	784.03
935.5	677.54
935.675	1402.52
935.851	1244.82
936.027	880.29
936.202	904.86
936.378	1144.47
936.553	1027.74
936.729	1091.23
936.904	722.59
937.08	792.22
937.255	857.76
937.431	718.5
937.606	593.57
937.782	917.15
937.957	1037.98
938.133	751.26
938.308	597.67
938.483	812.7
938.659	769.69
938.834	657.06
939.009	579.23
939.185	812.7
939.36	599.71
939.535	290.47
939.71	749.22
939.886	1173.14
940.061	904.86
940.236	831.13
940.411	644.77
940.586	1017.5
940.761	1025.69
940.937	568.99
941.112	454.31
941.287	921.24
941.462	872.09
941.637	421.54
941.812	482.98
941.987	863.9
942.162	661.15
942.337	601.76
942.512	562.85
942.687	958.11
942.862	992.92
943.037	358.05
943.212	224.94
943.386	765.6
943.561	757.41
943.736	597.67
943.911	872.09
944.086	865.95
944.26	779.93
944.435	478.88
944.61	544.42
944.785	1068.7
944.959	1150.62
945.134	474.79
945.309	388.77
945.483	487.08
945.658	984.73
945.833	261.8
946.007	356.01
946.182	1052.31
946.357	513.7
946.531	253.61
946.706	407.2
946.88	339.62
947.055	710.3
947.229	523.94
947.404	347.81
947.578	874.14
947.752	558.75
947.927	317.09
948.101	386.72
948.276	720.54
948.45	741.02
948.624	644.77
948.799	372.39
948.973	769.69
949.147	466.6
949.321	564.9
949.496	419.49
949.67	831.13
949.844	669.34
950.018	435.88
950.193	390.82
950.367	1232.54
950.541	669.34
950.715	597.67
950.889	675.49
951.063	536.23
951.237	931.48
951.411	231.08
951.585	267.94
951.759	745.12
951.933	704.16
952.107	382.63
952.281	593.57
952.455	988.83
952.629	974.49
952.803	399.01
952.977	296.61
953.151	868
953.325	734.88
953.499	581.28
953.672	366.25
953.846	511.65
954.02	601.76
954.194	333.48
954.368	454.31
954.541	833.18
954.715	497.32
954.889	511.65
955.062	378.53
955.236	589.47
955.41	599.71
955.583	517.79
955.757	315.05
955.93	622.24
956.104	368.29
956.278	382.63
956.451	382.63
956.625	779.93
956.798	1162.9
956.972	784.03
957.145	388.77
957.319	726.69
957.492	603.81
957.665	581.28
957.839	353.96
958.012	802.46
958.185	521.89
958.359	439.97
958.532	564.9
958.705	833.18
958.879	790.17
959.052	626.34
959.225	212.65
959.398	644.77
959.572	732.83
959.745	325.29
959.918	503.46
960.091	554.66
960.264	802.46
960.438	214.7
960.611	343.72
960.784	806.56
960.957	489.12
961.13	835.23
961.303	351.91
961.476	612
961.649	734.88
961.822	290.47
961.995	499.36
962.168	771.74
962.341	693.92
962.514	417.44
962.686	450.21
962.859	689.82
963.032	810.65
963.205	321.19
963.378	241.32
963.551	771.74
963.723	646.82
963.896	595.62
964.069	663.2
964.242	640.67
964.414	861.85
964.587	417.44
964.76	519.84
964.932	695.97
965.105	646.82
965.278	417.44
965.45	356.01
965.623	790.17
965.795	802.46
965.968	407.2
966.14	442.02
966.313	695.97
966.485	718.5
966.658	386.72
966.83	331.43
967.003	929.44
967.175	736.93
967.348	425.64
967.52	474.79
967.692	892.57
967.865	759.46
968.037	409.25
968.209	677.54
968.382	599.71
968.554	915.1
968.726	464.55
968.898	452.26
969.071	763.55
969.243	775.84
969.415	513.7
969.587	503.46
969.759	1175.19
969.932	816.8
970.104	468.64
970.276	175.78
970.448	558.75
970.62	474.79
970.792	564.9
970.964	562.85
971.136	1085.08
971.308	784.03
971.48	364.2
971.652	284.33
971.824	1048.22
971.996	546.47
972.168	468.64
972.339	532.13
972.511	868
972.683	591.52
972.855	556.71
973.027	374.44
973.199	675.49
973.37	806.56
973.542	644.77
973.714	605.86
973.886	562.85
974.057	870.05
974.229	358.05
974.401	356.01
974.572	419.49
974.744	239.27
974.915	370.34
975.087	384.68
975.259	1033.88
975.43	423.59
975.602	304.81
975.773	335.53
975.945	536.23
976.116	847.52
976.288	325.29
976.459	587.43
976.63	548.51
976.802	710.3
976.973	333.48
977.145	489.12
977.316	1072.79
977.487	945.82
977.659	513.7
977.83	448.16
978.001	1062.55
978.172	601.76
978.344	325.29
978.515	468.64
978.686	480.93
978.857	976.54
979.028	448.16
979.2	360.1
979.371	919.2
979.542	585.38
979.713	573.09
979.884	22.19
980.055	386.72
980.226	552.61
980.397	380.58
980.568	202.41
980.739	855.71
980.91	605.86
981.081	538.27
981.252	351.91
981.423	685.73
981.594	771.74
981.765	278.18
981.936	480.93
982.106	638.62
982.277	937.63
982.448	335.53
982.619	605.86
982.79	548.51
982.96	849.57
983.131	503.46
983.302	202.41
983.472	446.12
983.643	568.99
983.814	507.55
983.984	401.06
984.155	642.72
984.326	814.75
984.496	370.34
984.667	364.2
984.837	503.46
985.008	904.86
985.178	585.38
985.349	360.1
985.519	544.42
985.69	366.25
985.86	433.83
986.031	325.29
986.201	667.3
986.371	681.63
986.542	173.74
986.712	138.92
986.882	691.87
987.053	628.39
987.223	294.57
987.393	472.74
987.563	466.6
987.734	708.26
987.904	685.73
988.074	247.46
988.244	689.82
988.414	489.12
988.585	294.57
988.755	407.2
988.925	616.1
989.095	906.91
989.265	356.01
989.435	429.73
989.605	698.02
989.775	609.95
989.945	571.04
990.115	269.99
990.285	571.04
990.455	634.53
990.625	331.43
990.795	237.22
990.965	988.83
991.134	386.72
991.304	245.41
991.474	356.01
991.644	687.78
991.814	994.97
991.984	224.94
992.153	224.94
992.323	468.64
992.493	597.67
992.662	140.97
992.832	468.64
993.002	620.19
993.171	523.94
993.341	102.06
993.511	390.82
993.68	368.29
993.85	757.41
994.019	89.77
994.189	179.88
994.358	575.14
994.528	329.38
994.697	-76.12
994.867	122.54
995.036	831.13
995.206	405.16
995.375	186.02
995.544	421.54
995.714	661.15
995.883	538.27
996.052	386.72
996.222	-57.68
996.391	1042.07
996.56	552.61
996.73	126.63
996.899	89.77
997.068	929.44
997.237	489.12
997.406	134.82
997.576	30.38
997.745	632.48
997.914	530.08
998.083	-20.82
998.252	233.13
998.421	493.22
998.59	249.51
998.759	159.4
998.928	28.33
999.097	814.75
999.266	560.8
999.435	331.43
999.604	-16.73
999.773	906.91
999.942	429.73
1000.111	-26.96
1000.28	36.52
1000.448	161.45
1000.617	265.89
1000.786	372.39
1000.955	13.99
1001.124	577.19
1001.292	1134.23
1001.461	106.15
1001.63	143.02
1001.798	835.23
1001.967	802.46
1002.136	-12.63
1002.304	110.25
1002.473	593.57
1002.642	491.17
1002.81	212.65
1002.979	157.35
1003.147	667.3
1003.316	1052.31
1003.484	169.64
1003.653	85.67
1003.821	718.5
1003.99	405.16
1004.158	192.17
1004.327	212.65
1004.495	589.47
1004.663	411.3
1004.832	272.04
1005	-35.16
1005.168	556.71
1005.337	523.94
1005.505	73.39
1005.673	282.28
1005.842	505.51
1006.01	634.53
1006.178	24.23
1006.346	71.34
1006.514	591.52
1006.683	745.12
1006.851	81.58
1007.019	-51.54
1007.187	163.5
1007.355	-65.88
1007.523	-45.4
1007.691	-53.59
1007.859	122.54
1008.027	716.45
1008.195	118.44
1008.363	-47.44
1008.531	566.95
1008.699	274.09
1008.867	-57.68
1009.035	44.71
1009.203	712.35
1009.37	345.77
1009.538	63.15
1009.706	474.79
1009.874	427.68
1010.042	335.53
1010.209	-8.53
1010.377	42.67
1010.545	556.71
1010.713	439.97
1010.88	22.19
1011.048	77.48
1011.216	253.61
1011.383	794.27
1011.551	-4.44
1011.718	-29.01
1011.886	657.06
1012.054	437.92
1012.221	18.09
1012.389	36.52
1012.556	286.37
1012.724	773.79
1012.891	106.15
1013.058	-115.03
1013.226	515.75
1013.393	544.42
1013.561	-31.06
1013.728	-135.51
1013.895	630.43
1014.063	487.08
1014.23	-69.97
1014.397	-24.92
1014.565	548.51
1014.732	325.29
1014.899	-20.82
1015.066	-14.68
1015.233	466.6
1015.401	573.09
1015.568	112.3
1015.735	177.83
1015.902	388.77
1016.069	544.42
1016.236	71.34
1016.403	-26.96
1016.57	159.4
1016.737	556.71
1016.904	36.52
1017.071	-67.92
1017.238	249.51
1017.405	517.79
1017.572	65.19
1017.739	310.95
1017.906	482.98
1018.073	525.99
1018.24	-26.96
1018.407	30.38
1018.573	548.51
1018.74	360.1
1018.907	106.15
1019.074	-110.93
1019.241	552.61
1019.407	409.25
1019.574	-20.82
1019.741	-141.65
1019.907	460.45
1020.074	466.6
1020.241	-106.84
1020.407	-86.36
1020.574	462.5
1020.74	462.5
1020.907	75.43
1021.073	-137.56
1021.24	888.48
1021.406	716.45
1021.573	-127.32
1021.739	40.62
1021.906	609.95
1022.072	290.47
1022.239	-41.3
1022.405	-33.11
1022.571	384.68
1022.738	224.94
1022.904	-108.88
1023.07	159.4
1023.237	433.83
1023.403	601.76
1023.569	-12.63
1023.735	93.87
1023.902	378.53
1024.068	456.36
1024.234	-133.46
1024.4	-0.34
1024.566	442.02
1024.732	493.22
1024.898	-20.82
1025.065	-139.6
1025.231	636.58
1025.397	243.37
1025.563	-22.87
1025.729	-41.3
1025.895	-29.01
1026.061	87.72
1026.227	-151.89
1026.392	-0.34
1026.558	552.61
1026.724	450.21
1026.89	-4.44
1027.056	40.62
1027.222	478.88
1027.388	216.74
1027.553	-100.69
1027.719	-78.16
1027.885	781.98
1028.051	468.64
1028.216	-285.01
1028.382	3.75
1028.548	446.12
1028.713	136.87
1028.879	-145.75
1029.045	102.06
1029.21	485.03
1029.376	544.42
1029.541	-26.96
1029.707	22.19
1029.873	450.21
1030.038	583.33
1030.204	-108.88
1030.369	-31.06
1030.534	544.42
1030.7	298.66
1030.865	16.04
1031.031	-63.83
1031.196	378.53
1031.361	403.11
1031.527	-86.36
1031.692	-194.9
1031.857	-67.92
1032.023	448.16
1032.188	-184.66
1032.353	-26.96
1032.518	716.45
1032.684	462.5
1032.849	-143.7
1033.014	36.52
1033.179	452.26
1033.344	431.78
1033.509	30.38
1033.674	-45.4
1033.839	448.16
1034.004	446.12
1034.17	-182.61
1034.335	-194.9
1034.5	255.65
1034.664	48.81
1034.829	-160.08
1034.994	-61.78
1035.159	339.62
1035.324	425.64
1035.489	-26.96
1035.654	-155.99
1035.819	575.14
1035.984	423.59
1036.148	-43.35
1036.313	-35.16
1036.478	601.76
1036.643	243.37
1036.807	-121.17
1036.972	-182.61
1037.137	577.19
1037.301	282.28
1037.466	-217.43
1037.631	3.75
1037.795	482.98
1037.96	392.87
1038.124	79.53
1038.289	-205.14
1038.454	448.16
1038.618	356.01
1038.783	-131.41
1038.947	71.34
1039.111	396.96
1039.276	231.08
1039.44	-96.6
1039.605	376.48
1039.769	243.37
1039.933	265.89
1040.098	-92.5
1040.262	171.69
1040.426	507.55
1040.591	480.93
1040.755	-80.21
1040.919	-61.78
1041.083	462.5
1041.248	267.94
1041.412	-254.29
1041.576	-102.74
1041.74	161.45
1041.904	439.97
1042.068	-166.23
1042.232	-14.68
1042.397	540.32
1042.561	425.64
1042.725	-323.92
1042.889	32.43
1043.053	468.64
1043.217	421.54
1043.381	71.34
1043.544	-168.27
1043.708	630.43
1043.872	-10.58
1044.036	-307.54
1044.2	-180.56
1044.364	595.62
1044.528	612
1044.691	3178.11
1044.855	-250.19
1045.019	437.92
1045.183	413.35
1045.346	-8.53
1045.51	-90.45
1045.674	411.3
1045.837	456.36
1046.001	-18.77
1046.165	-102.74
1046.328	773.79
1046.492	380.58
1046.655	95.91
1046.819	20.14
1046.983	241.32
1047.146	417.44
1047.31	-24.92
1047.473	-213.33
1047.636	253.61
1047.8	54.95
1047.963	-67.92
1048.127	-139.6
1048.29	81.58
