Data from Ink_Intensity_USB4F045381__172__00172.txt Node

Date: Mon Jul 17 11:37:26 EDT 2023
User: mmckonesweet
Spectrometer: USB4F04538
Trigger mode: 4
Integration Time (sec): 9.000000E-1
Scans to average: 1
Electric dark correction enabled: true
Nonlinearity correction enabled: false
Boxcar width: 0
XAxis mode: Wavelengths
Number of Pixels in Spectrum: 3648
>>>>>Begin Spectral Data<<<<<
345.52	-975.86
345.736	-975.86
345.952	-975.86
346.168	-1053.68
346.384	-1033.2
346.6	-105.47
346.816	-277.5
347.032	-236.54
347.248	254.97
347.464	-175.1
347.68	-109.57
347.896	107.52
348.112	365.56
348.328	-117.76
348.544	29.7
348.76	5.12
348.975	259.07
349.191	-171.01
349.407	-160.77
349.623	70.65
349.839	-41.98
350.055	-99.33
350.27	-3.07
350.486	183.29
350.702	345.08
350.918	271.36
351.133	-312.32
351.349	189.44
351.565	361.47
351.781	-265.21
351.996	-3.07
352.212	297.98
352.428	-121.85
352.644	-136.19
352.859	-209.92
353.075	293.88
353.291	109.57
353.506	-80.89
353.722	-236.54
353.938	-72.7
354.153	453.63
354.369	78.85
354.584	-222.2
354.8	189.44
355.016	-240.64
355.231	-183.29
355.447	-15.36
355.662	95.23
355.878	822.26
356.093	-371.71
356.309	-11.26
356.524	-211.96
356.74	263.16
356.955	-205.82
357.171	-80.89
357.386	173.05
357.602	-197.63
357.817	-113.66
358.033	-89.09
358.248	394.23
358.464	148.48
358.679	-205.82
358.895	-234.49
359.11	25.6
359.325	324.6
359.541	74.75
359.756	-84.99
359.972	-216.06
360.187	214.01
360.402	-205.82
360.618	-211.96
360.833	1029.1
361.048	144.38
361.264	-189.44
361.479	-93.18
361.694	-21.5
361.909	203.77
362.125	-195.58
362.34	-113.66
362.555	285.69
362.77	128
362.986	-261.12
363.201	-181.25
363.416	222.2
363.631	87.04
363.847	-199.68
364.062	-183.29
364.277	201.72
364.492	89.09
364.707	-203.77
364.922	-357.37
365.138	234.49
365.353	326.65
365.568	-232.44
365.783	-152.57
365.998	70.65
366.213	492.54
366.428	-226.3
366.643	5.12
366.858	234.49
367.073	214.01
367.288	-111.61
367.503	-224.25
367.718	70.65
367.933	386.04
368.148	-308.22
368.363	-84.99
368.578	-23.55
368.793	410.62
369.008	-201.72
369.223	-263.16
369.438	177.15
369.653	431.1
369.868	-228.35
370.083	-246.78
370.298	60.42
370.513	388.09
370.728	101.37
370.943	-158.72
371.157	-154.62
371.372	562.17
371.587	-275.45
371.802	-281.6
372.017	144.38
372.232	365.56
372.446	-60.42
372.661	-252.92
372.876	250.88
373.091	130.05
373.306	-93.18
373.52	-230.4
373.735	-222.2
373.95	418.81
374.165	-78.85
374.379	-132.09
374.594	-138.24
374.809	115.71
375.023	58.37
375.238	-203.77
375.453	150.53
375.667	-162.81
375.882	-179.2
376.097	-203.77
376.311	-25.6
376.526	-31.74
376.741	-261.12
376.955	60.42
377.17	558.07
377.384	656.37
377.599	-41.98
377.813	-275.45
378.028	654.33
378.242	205.82
378.457	-29.7
378.672	-367.61
378.886	115.71
379.101	58.37
379.315	-328.7
379.53	-123.9
379.744	166.91
379.958	121.85
380.173	-130.05
380.387	-285.69
380.602	216.06
380.816	-160.77
381.031	-113.66
381.245	-154.62
381.459	304.12
381.674	2671.58
381.888	-164.86
382.103	103.42
382.317	-181.25
382.531	461.82
382.746	-99.33
382.96	-148.48
383.174	-80.89
383.388	492.54
383.603	78.85
383.817	-171.01
384.031	123.9
384.246	496.63
384.46	-7.17
384.674	279.55
384.888	9.22
385.103	21.5
385.317	-326.65
385.531	-72.7
385.745	320.51
385.959	375.8
386.174	-177.15
386.388	-220.16
386.602	15.36
386.816	-197.63
387.03	-136.19
387.244	-117.76
387.458	193.53
387.672	363.51
387.887	-347.13
388.101	-320.51
388.315	340.99
388.529	164.86
388.743	-97.28
388.957	-289.79
389.171	328.7
389.385	-203.77
389.599	-113.66
389.813	80.89
390.027	181.25
390.241	617.46
390.455	-156.67
390.669	-117.76
390.883	-97.28
391.097	406.52
391.311	-17.41
391.525	-117.76
391.738	277.5
391.952	226.3
392.166	-33.79
392.38	-236.54
392.594	265.21
392.808	238.59
393.022	-107.52
393.236	-218.11
393.449	158.72
393.663	205.82
393.877	-265.21
394.091	-113.66
394.305	-54.27
394.518	-29.7
394.732	-289.79
394.946	-158.72
395.16	427
395.373	91.13
395.587	-236.54
395.801	-177.15
396.015	254.97
396.228	189.44
396.442	-293.88
396.656	-289.79
396.869	361.47
397.083	476.15
397.297	-72.7
397.51	-152.57
397.724	330.75
397.938	125.95
398.151	-277.5
398.365	-259.07
398.578	205.82
398.792	281.6
399.005	-95.23
399.219	-82.94
399.433	136.19
399.646	181.25
399.86	-35.84
400.073	-80.89
400.287	193.53
400.5	1.02
400.714	-44.03
400.927	-76.8
401.141	209.92
401.354	1133.55
401.567	119.81
401.781	-252.92
401.994	222.2
402.208	541.69
402.421	-136.19
402.635	-152.57
402.848	41.98
403.061	302.08
403.275	13.31
403.488	-236.54
403.701	396.28
403.915	201.72
404.128	87.04
404.341	-66.56
404.555	93.18
404.768	39.94
404.981	39.94
405.195	-261.12
405.408	515.06
405.621	320.51
405.834	128
406.048	-175.1
406.261	451.58
406.474	480.25
406.687	-138.24
406.9	17.41
407.114	89.09
407.327	207.87
407.54	-275.45
407.753	-304.12
407.966	-68.61
408.179	234.49
408.392	-314.36
408.605	-332.79
408.819	187.39
409.032	175.1
409.245	-158.72
409.458	9.22
409.671	209.92
409.884	257.02
410.097	-343.03
410.31	-25.6
410.523	214.01
410.736	5.12
410.949	-60.42
411.162	-128
411.375	369.66
411.588	316.41
411.801	-11.26
412.014	-207.87
412.227	13.31
412.44	-5.12
412.653	-195.58
412.865	15.36
413.078	297.98
413.291	136.19
413.504	-119.81
413.717	-195.58
413.93	279.55
414.143	-128
414.356	-44.03
414.568	-359.42
414.781	261.12
414.994	142.33
415.207	-89.09
415.42	-164.86
415.632	279.55
415.845	541.69
416.058	-279.55
416.271	-257.02
416.483	74.75
416.696	459.77
416.909	-259.07
417.121	-142.33
417.334	89.09
417.547	476.15
417.759	-250.88
417.972	-261.12
418.185	-9.22
418.397	263.16
418.61	-181.25
418.823	-160.77
419.035	437.24
419.248	1.02
419.46	-97.28
419.673	-89.09
419.885	175.1
420.098	9.22
420.311	-189.44
420.523	-359.42
420.736	222.2
420.948	60.42
421.161	-128
421.373	-379.9
421.586	128
421.798	-68.61
422.01	-285.69
422.223	-113.66
422.435	13.31
422.648	226.3
422.86	-185.34
423.073	-158.72
423.285	318.46
423.497	-293.88
423.71	-185.34
423.922	-240.64
424.134	189.44
424.347	427
424.559	3.07
424.771	123.9
424.984	-82.94
425.196	154.62
425.408	-369.66
425.621	-297.98
425.833	265.21
426.045	234.49
426.257	-216.06
426.47	-191.49
426.682	70.65
426.894	222.2
427.106	-175.1
427.318	-164.86
427.531	-156.67
427.743	185.34
427.955	-177.15
428.167	242.68
428.379	140.29
428.591	-11.26
428.804	-39.94
429.016	-244.73
429.228	-89.09
429.44	185.34
429.652	60.42
429.864	-302.08
430.076	-84.99
430.288	33.79
430.5	-140.29
430.712	-113.66
430.924	324.6
431.136	99.33
431.348	-310.27
431.56	-240.64
431.772	58.37
431.984	-17.41
432.196	-252.92
432.408	-195.58
432.62	-13.31
432.832	66.56
433.044	76.8
433.256	-136.19
433.468	289.79
433.679	-242.68
433.891	-324.6
434.103	-5.12
434.315	398.33
434.527	156.67
434.739	-41.98
434.95	-195.58
435.162	226.3
435.374	33.79
435.586	-138.24
435.798	-183.29
436.009	-244.73
436.221	-56.32
436.433	-248.83
436.645	-162.81
436.856	-117.76
437.068	297.98
437.28	-267.26
437.491	41.98
437.703	189.44
437.915	99.33
438.126	-68.61
438.338	62.46
438.55	27.65
438.761	164.86
438.973	-187.39
439.184	-222.2
439.396	-29.7
439.608	226.3
439.819	-283.64
440.031	-80.89
440.242	150.53
440.454	166.91
440.665	-93.18
440.877	-17.41
441.088	177.15
441.3	52.22
441.511	-359.42
441.723	-240.64
441.934	164.86
442.146	64.51
442.357	31.74
442.569	37.89
442.78	146.43
442.991	416.76
443.203	72.7
443.414	-232.44
443.626	314.36
443.837	-80.89
444.048	-203.77
444.26	-318.46
444.471	128
444.682	263.16
444.894	-414.71
445.105	-332.79
445.316	312.32
445.528	164.86
445.739	-80.89
445.95	-216.06
446.161	93.18
446.373	234.49
446.584	-119.81
446.795	-175.1
447.006	197.63
447.217	447.48
447.429	-312.32
447.64	-310.27
447.851	345.08
448.062	119.81
448.273	-334.84
448.484	-166.91
448.695	189.44
448.907	-138.24
449.118	-164.86
449.329	-9.22
449.54	-148.48
449.751	-203.77
449.962	-203.77
450.173	-171.01
450.384	242.68
450.595	259.07
450.806	-228.35
451.017	-183.29
451.228	353.27
451.439	275.45
451.65	-228.35
451.861	-357.37
452.072	-203.77
452.283	-1.02
452.494	-39.94
452.705	-240.64
452.915	410.62
453.126	140.29
453.337	-91.13
453.548	-197.63
453.759	173.05
453.97	599.03
454.181	54.27
454.391	-203.77
454.602	78.85
454.813	87.04
455.024	-189.44
455.235	-285.69
455.445	128
455.656	171.01
455.867	-31.74
456.078	-279.55
456.288	44.03
456.499	111.61
456.71	-287.74
456.921	-25.6
457.131	222.2
457.342	87.04
457.553	-97.28
457.763	-109.57
457.974	168.96
458.184	304.12
458.395	-252.92
458.606	-285.69
458.816	254.97
459.027	527.35
459.237	-80.89
459.448	-396.28
459.659	379.9
459.869	592.89
460.08	-330.75
460.29	-107.52
460.501	494.58
460.711	-56.32
460.922	-359.42
461.132	-244.73
461.343	789.49
461.553	-242.68
461.764	-248.83
461.974	-203.77
462.184	238.59
462.395	214.01
462.605	-187.39
462.816	-277.5
463.026	62.46
463.236	361.47
463.447	-240.64
463.657	-265.21
463.867	234.49
464.078	-97.28
464.288	-166.91
464.498	-265.21
464.709	113.66
464.919	84.99
465.129	-171.01
465.339	-250.88
465.55	74.75
465.76	183.29
465.97	-111.61
466.18	-273.4
466.391	230.4
466.601	60.42
466.811	-89.09
467.021	-332.79
467.231	74.75
467.441	377.85
467.651	-187.39
467.862	-457.72
468.072	78.85
468.282	381.95
468.492	-203.77
468.702	-201.72
468.912	74.75
469.122	502.78
469.332	33.79
469.542	-244.73
469.752	326.65
469.962	99.33
470.172	-277.5
470.382	-273.4
470.592	152.57
470.802	328.7
471.012	-60.42
471.222	-236.54
471.432	291.84
471.642	185.34
471.852	-111.61
472.062	-330.75
472.272	-48.13
472.482	-246.78
472.691	-351.23
472.901	-381.95
473.111	150.53
473.321	551.93
473.531	-259.07
473.741	-52.22
473.95	216.06
474.16	222.2
474.37	-144.38
474.58	-318.46
474.79	408.57
474.999	263.16
475.209	-302.08
475.419	-283.64
475.628	-3.07
475.838	359.42
476.048	-138.24
476.258	-375.8
476.467	297.98
476.677	-46.08
476.886	3.07
477.096	-148.48
477.306	-183.29
477.515	349.18
477.725	-132.09
477.935	-160.77
478.144	367.61
478.354	-113.66
478.563	-128
478.773	-211.96
478.982	226.3
479.192	297.98
479.401	-107.52
479.611	-271.36
479.82	-168.96
480.03	54.27
480.239	-297.98
480.449	-314.36
480.658	478.2
480.868	-64.51
481.077	-121.85
481.287	-160.77
481.496	125.95
481.705	410.62
481.915	-3.07
482.124	54.27
482.333	148.48
482.543	330.75
482.752	-160.77
482.961	-168.96
483.171	230.4
483.38	29.7
483.589	-121.85
483.799	-328.7
484.008	-23.55
484.217	209.92
484.426	-189.44
484.636	-279.55
484.845	41.98
485.054	-187.39
485.263	103.42
485.472	-224.25
485.682	470.01
485.891	70.65
486.1	-312.32
486.309	-187.39
486.518	140.29
486.727	357.37
486.936	-248.83
487.146	-48.13
487.355	359.42
487.564	-193.53
487.773	-185.34
487.982	-236.54
488.191	-78.85
488.4	19.46
488.609	-195.58
488.818	-267.26
489.027	578.55
489.236	320.51
489.445	-175.1
489.654	-257.02
489.863	269.31
490.072	162.81
490.281	101.37
490.49	-240.64
490.698	461.82
490.907	463.86
491.116	-191.49
491.325	-347.13
491.534	334.84
491.743	72.7
491.952	-207.87
492.16	-164.86
492.369	183.29
492.578	273.4
492.787	-121.85
492.996	-373.75
493.204	-144.38
493.413	410.62
493.622	-424.95
493.831	-369.66
494.039	455.67
494.248	-179.2
494.457	-203.77
494.665	-365.56
494.874	185.34
495.083	472.06
495.291	-246.78
495.5	-322.56
495.709	259.07
495.917	123.9
496.126	-115.71
496.335	-343.03
496.543	-19.46
496.752	128
496.96	9.22
497.169	-404.47
497.377	19.46
497.586	306.17
497.794	-15.36
498.003	-416.76
498.211	50.18
498.42	443.39
498.628	-187.39
498.837	-320.51
499.045	224.25
499.254	160.77
499.462	-230.4
499.671	-254.97
499.879	529.4
500.087	246.78
500.296	-207.87
500.504	-236.54
500.713	107.52
500.921	484.34
501.129	-257.02
501.338	-234.49
501.546	160.77
501.754	54.27
501.962	-289.79
502.171	-349.18
502.379	128
502.587	494.58
502.795	-179.2
503.004	-267.26
503.212	27.65
503.42	216.06
503.628	-275.45
503.837	-105.47
504.045	164.86
504.253	369.66
504.461	-283.64
504.669	-435.19
504.877	183.29
505.085	408.57
505.294	-375.8
505.502	-113.66
505.71	80.89
505.918	314.36
506.126	-318.46
506.334	-304.12
506.542	25.6
506.75	148.48
506.958	-132.09
507.166	-164.86
507.374	-64.51
507.582	414.71
507.79	-138.24
507.998	-306.17
508.206	128
508.414	138.24
508.622	-244.73
508.83	-195.58
509.037	359.42
509.245	-39.94
509.453	-226.3
509.661	-394.23
509.869	259.07
510.077	-5.12
510.285	-70.65
510.492	-543.74
510.7	631.8
510.908	-27.65
511.116	-179.2
511.324	-250.88
511.531	-39.94
511.739	140.29
511.947	-138.24
512.155	48.13
512.362	103.42
512.57	-195.58
512.778	-328.7
512.985	-373.75
513.193	283.64
513.401	312.32
513.608	-244.73
513.816	-304.12
514.024	160.77
514.231	345.08
514.439	-224.25
514.646	-226.3
514.854	160.77
515.061	291.84
515.269	-173.05
515.477	-183.29
515.684	-211.96
515.892	242.68
516.099	-271.36
516.307	-406.52
516.514	232.44
516.722	470.01
516.929	-236.54
517.136	-316.41
517.344	396.28
517.551	150.53
517.759	-224.25
517.966	-150.53
518.173	-35.84
518.381	3.07
518.588	-226.3
518.796	-297.98
519.003	283.64
519.21	80.89
519.418	-285.69
519.625	82.94
519.832	13.31
520.039	152.57
520.247	-478.2
520.454	-293.88
520.661	324.6
520.868	146.43
521.076	-220.16
521.283	-216.06
521.49	709.62
521.697	123.9
521.904	-189.44
522.112	-191.49
522.319	220.16
522.526	156.67
522.733	-326.65
522.94	-308.22
523.147	78.85
523.354	277.5
523.561	-379.9
523.768	-187.39
523.975	250.88
524.183	72.7
524.39	-171.01
524.597	-379.9
524.804	29.7
525.011	-195.58
525.218	-250.88
525.425	-330.75
525.632	402.43
525.838	-56.32
526.045	-273.4
526.252	-316.41
526.459	1178.61
526.666	908.27
526.873	-353.27
527.08	-340.99
527.287	312.32
527.494	304.12
527.701	-252.92
527.907	-259.07
528.114	101.37
528.321	62.46
528.528	-261.12
528.735	-236.54
528.941	-23.55
529.148	-76.8
529.355	-164.86
529.562	-228.35
529.768	431.1
529.975	-13.31
530.182	-171.01
530.388	-314.36
530.595	230.4
530.802	-277.5
531.008	-140.29
531.215	-269.31
531.422	412.67
531.628	742.39
531.835	-171.01
532.042	-146.43
532.248	-52.22
532.455	152.57
532.661	-220.16
532.868	-250.88
533.074	111.61
533.281	297.98
533.487	-105.47
533.694	-246.78
533.9	-209.92
534.107	183.29
534.313	-334.84
534.52	-375.8
534.726	281.6
534.933	476.15
535.139	-351.23
535.345	-343.03
535.552	142.33
535.758	70.65
535.965	-234.49
536.171	-306.17
536.377	312.32
536.584	459.77
536.79	-214.01
536.996	-187.39
537.203	205.82
537.409	205.82
537.615	-252.92
537.821	-31.74
538.028	302.08
538.234	234.49
538.44	-244.73
538.646	-160.77
538.853	216.06
539.059	13.31
539.265	154.62
539.471	-406.52
539.677	259.07
539.883	-11.26
540.09	-267.26
540.296	168.96
540.502	78.85
540.708	-95.23
540.914	-154.62
541.12	-187.39
541.326	132.09
541.532	58.37
541.738	-148.48
541.944	-171.01
542.15	275.45
542.356	13.31
542.562	-336.89
542.768	-179.2
542.974	693.24
543.18	572.41
543.386	-277.5
543.592	-433.15
543.798	398.33
544.004	250.88
544.21	-293.88
544.415	-130.05
544.621	33.79
544.827	345.08
545.033	-427
545.239	46.08
545.445	-193.53
545.651	140.29
545.856	-234.49
546.062	-297.98
546.268	-54.27
546.474	52.22
546.679	-209.92
546.885	-103.42
547.091	-82.94
547.297	513.02
547.502	-144.38
547.708	-263.16
547.914	-146.43
548.119	140.29
548.325	-277.5
548.531	-326.65
548.736	447.48
548.942	-93.18
549.147	-283.64
549.353	-23.55
549.559	275.45
549.764	164.86
549.97	-300.03
550.175	-248.83
550.381	136.19
550.586	-82.94
550.792	-156.67
550.997	-244.73
551.203	74.75
551.408	214.01
551.614	-261.12
551.819	-285.69
552.025	504.82
552.23	486.39
552.435	-334.84
552.641	-101.37
552.846	-31.74
553.052	367.61
553.257	-99.33
553.462	-236.54
553.668	-175.1
553.873	214.01
554.078	-246.78
554.283	-318.46
554.489	144.38
554.694	11.26
554.899	-285.69
555.105	-60.42
555.31	275.45
555.515	214.01
555.72	-107.52
555.925	-324.6
556.131	295.93
556.336	-35.84
556.541	-250.88
556.746	-414.71
556.951	347.13
557.156	386.04
557.361	-121.85
557.567	-91.13
557.772	564.22
557.977	199.68
558.182	-259.07
558.387	-334.84
558.592	21.5
558.797	424.95
559.002	-130.05
559.207	-130.05
559.412	78.85
559.617	414.71
559.822	-242.68
560.027	-271.36
560.232	150.53
560.437	246.78
560.642	-355.32
560.847	-271.36
561.051	134.14
561.256	128
561.461	-259.07
561.666	-289.79
561.871	99.33
562.076	234.49
562.281	-166.91
562.485	-318.46
562.69	175.1
562.895	279.55
563.1	-214.01
563.305	-291.84
563.509	406.52
563.714	564.22
563.919	-168.96
564.123	-125.95
564.328	1.02
564.533	392.19
564.737	-168.96
564.942	-275.45
565.147	467.96
565.351	494.58
565.556	-173.05
565.761	-64.51
565.965	76.8
566.17	-52.22
566.374	-234.49
566.579	-347.13
566.784	107.52
566.988	-25.6
567.193	-308.22
567.397	-281.6
567.602	-189.44
567.806	-1.02
568.011	-207.87
568.215	-142.33
568.42	1.02
568.624	82.94
568.828	-250.88
569.033	1.02
569.237	232.44
569.442	207.87
569.646	-308.22
569.85	-148.48
570.055	33.79
570.259	214.01
570.463	-25.6
570.668	-130.05
570.872	87.04
571.076	76.8
571.281	-72.7
571.485	-136.19
571.689	70.65
571.893	330.75
572.098	-23.55
572.302	-220.16
572.506	152.57
572.71	72.7
572.914	-168.96
573.119	-179.2
573.323	375.8
573.527	369.66
573.731	-240.64
573.935	-285.69
574.139	121.85
574.343	-142.33
574.547	-252.92
574.751	-314.36
574.955	427
575.159	320.51
575.364	-224.25
575.568	-302.08
575.772	-25.6
575.976	390.14
576.18	-244.73
576.383	-330.75
576.587	371.71
576.791	142.33
576.995	-355.32
577.199	-308.22
577.403	222.2
577.607	351.23
577.811	-287.74
578.015	1.02
578.219	158.72
578.422	238.59
578.626	-99.33
578.83	-11.26
579.034	351.23
579.238	66.56
579.442	-261.12
579.645	166.91
579.849	50.18
580.053	171.01
580.257	-224.25
580.46	-74.75
580.664	297.98
580.868	269.31
581.071	66.56
581.275	-105.47
581.479	-175.1
581.682	287.74
581.886	-248.83
582.09	-150.53
582.293	279.55
582.497	144.38
582.7	-11.26
582.904	-285.69
583.107	37.89
583.311	-5.12
583.515	-95.23
583.718	-62.46
583.922	125.95
584.125	533.5
584.329	-244.73
584.532	-41.98
584.735	398.33
584.939	179.2
585.142	-279.55
585.346	-250.88
585.549	181.25
585.753	-39.94
585.956	-76.8
586.159	-44.03
586.363	517.11
586.566	220.16
586.769	-209.92
586.973	-277.5
587.176	175.1
587.379	279.55
587.582	214.01
587.786	1.02
587.989	19.46
588.192	599.03
588.395	-119.81
588.599	164.86
588.802	236.54
589.005	222.2
589.208	-70.65
589.411	-207.87
589.615	314.36
589.818	418.81
590.021	50.18
590.224	-117.76
590.427	340.99
590.63	214.01
590.833	-322.56
591.036	-267.26
591.239	41.98
591.442	17.41
591.645	115.71
591.848	-246.78
592.051	132.09
592.254	353.27
592.457	-150.53
592.66	-144.38
592.863	-7.17
593.066	230.4
593.269	-209.92
593.472	-93.18
593.675	-84.99
593.878	345.08
594.081	-64.51
594.284	-314.36
594.486	214.01
594.689	82.94
594.892	-17.41
595.095	-76.8
595.298	236.54
595.5	-35.84
595.703	-44.03
595.906	-21.5
596.109	472.06
596.311	328.7
596.514	-420.86
596.717	-105.47
596.92	406.52
597.122	257.02
597.325	-408.57
597.528	-216.06
597.73	400.38
597.933	46.08
598.136	-162.81
598.338	-463.86
598.541	308.22
598.743	406.52
598.946	-142.33
599.148	-91.13
599.351	361.47
599.554	304.12
599.756	-41.98
599.959	-236.54
600.161	336.89
600.363	685.05
600.566	87.04
600.768	-128
600.971	467.96
601.173	304.12
601.376	-177.15
601.578	-121.85
601.78	191.49
601.983	646.13
602.185	-179.2
602.388	46.08
602.59	209.92
602.792	82.94
602.995	128
603.197	-113.66
603.399	388.09
603.601	203.77
603.804	-115.71
604.006	-156.67
604.208	91.13
604.41	-275.45
604.613	5.12
604.815	-103.42
605.017	723.96
605.219	17.41
605.421	230.4
605.623	-185.34
605.826	459.77
606.028	498.68
606.23	-128
606.432	-166.91
606.634	545.78
606.836	396.28
607.038	-222.2
607.24	-3.07
607.442	111.61
607.644	154.62
607.846	-48.13
608.048	-142.33
608.25	529.4
608.452	-41.98
608.654	-84.99
608.856	-310.27
609.058	109.57
609.26	291.84
609.462	-48.13
609.664	-113.66
609.866	601.08
610.067	363.51
610.269	52.22
610.471	-109.57
610.673	54.27
610.875	289.79
611.077	-216.06
611.278	-17.41
611.48	185.34
611.682	549.88
611.884	-37.89
612.085	-48.13
612.287	-56.32
612.489	287.74
612.69	-244.73
612.892	-117.76
613.094	402.43
613.295	332.79
613.497	-277.5
613.699	-168.96
613.9	549.88
614.102	410.62
614.304	-11.26
614.505	-259.07
614.707	101.37
614.908	142.33
615.11	-250.88
615.311	-54.27
615.513	297.98
615.714	396.28
615.916	-224.25
616.117	-95.23
616.319	197.63
616.52	402.43
616.722	-183.29
616.923	-183.29
617.124	484.34
617.326	300.03
617.527	64.51
617.729	148.48
617.93	381.95
618.131	371.71
618.333	-46.08
618.534	-99.33
618.735	-11.26
618.937	588.79
619.138	-193.53
619.339	-164.86
619.54	259.07
619.742	148.48
619.943	13.31
620.144	-21.5
620.345	402.43
620.546	439.29
620.748	-185.34
620.949	-19.46
621.15	263.16
621.351	279.55
621.552	-78.85
621.753	-271.36
621.954	-191.49
622.155	689.14
622.356	-160.77
622.558	125.95
622.759	168.96
622.96	625.65
623.161	-27.65
623.362	-87.04
623.563	300.03
623.764	320.51
623.965	-70.65
624.166	105.47
624.366	111.61
624.567	365.56
624.768	-343.03
624.969	-80.89
625.17	103.42
625.371	297.98
625.572	27.65
625.773	-173.05
625.973	392.19
626.174	408.57
626.375	-48.13
626.576	54.27
626.777	369.66
626.977	717.81
627.178	-41.98
627.379	-7.17
627.58	150.53
627.78	234.49
627.981	74.75
628.182	80.89
628.382	445.43
628.583	-136.19
628.784	-199.68
628.984	66.56
629.185	461.82
629.386	369.66
629.586	58.37
629.787	-52.22
629.987	353.27
630.188	261.12
630.388	5.12
630.589	103.42
630.79	803.83
630.99	295.93
631.191	39.94
631.391	-27.65
631.591	492.54
631.792	599.03
631.992	130.05
632.193	-48.13
632.393	721.91
632.594	316.41
632.794	-109.57
632.994	66.56
633.195	201.72
633.395	334.84
633.595	-136.19
633.796	259.07
633.996	134.14
634.196	633.85
634.397	-179.2
634.597	1.02
634.797	76.8
634.997	619.51
635.198	214.01
635.398	-50.18
635.598	322.56
635.798	543.74
635.998	435.19
636.199	-23.55
636.399	111.61
636.599	66.56
636.799	13.31
636.999	320.51
637.199	377.85
637.399	529.4
637.599	-44.03
637.799	175.1
637.999	136.19
638.199	721.91
638.399	-101.37
638.599	41.98
638.799	410.62
638.999	699.38
639.199	168.96
639.399	82.94
639.599	627.7
639.799	-5.12
639.999	-80.89
640.199	-115.71
640.399	365.56
640.599	316.41
640.799	35.84
640.998	189.44
641.198	533.5
641.398	404.47
641.598	179.2
641.798	41.98
641.997	1235.95
642.197	234.49
642.397	125.95
642.597	50.18
642.796	429.05
642.996	615.41
643.196	160.77
643.395	-89.09
643.595	394.23
643.795	-58.37
643.994	17.41
644.194	29.7
644.394	484.34
644.593	386.04
644.793	-158.72
644.992	222.2
645.192	398.33
645.392	-134.14
645.591	103.42
645.791	95.23
645.99	443.39
646.19	336.89
646.389	93.18
646.589	58.37
646.788	504.82
646.987	377.85
647.187	218.11
647.386	332.79
647.586	254.97
647.785	486.39
647.984	111.61
648.184	95.23
648.383	209.92
648.582	214.01
648.782	91.13
648.981	197.63
649.18	78.85
649.38	388.09
649.579	125.95
649.778	-7.17
649.977	496.63
650.177	447.48
650.376	9.22
650.575	9.22
650.774	680.95
650.973	123.9
651.173	-84.99
651.372	48.13
651.571	435.19
651.77	574.46
651.969	3.07
652.168	166.91
652.367	78.85
652.566	496.63
652.765	29.7
652.964	349.18
653.163	762.87
653.362	291.84
653.561	109.57
653.76	37.89
653.959	246.78
654.158	504.82
654.357	318.46
654.556	101.37
654.755	484.34
654.954	621.56
655.153	136.19
655.352	216.06
655.551	631.8
655.749	214.01
655.948	156.67
656.147	205.82
656.346	488.44
656.545	297.98
656.743	158.72
656.942	162.81
657.141	334.84
657.34	146.43
657.538	146.43
657.737	76.8
657.936	283.64
658.135	410.62
658.333	62.46
658.532	191.49
658.731	852.98
658.929	611.32
659.128	379.9
659.326	72.7
659.525	730.1
659.724	183.29
659.922	-111.61
660.121	-74.75
660.319	449.53
660.518	142.33
660.716	50.18
660.915	48.13
661.113	685.05
661.312	99.33
661.51	224.25
661.709	-19.46
661.907	605.17
662.105	746.48
662.304	62.46
662.502	224.25
662.701	685.05
662.899	271.36
663.097	422.91
663.296	46.08
663.494	678.9
663.692	797.68
663.891	91.13
664.089	13.31
664.287	476.15
664.485	697.33
664.684	78.85
664.882	271.36
665.08	369.66
665.278	422.91
665.476	9.22
665.675	410.62
665.873	852.98
666.071	578.55
666.269	158.72
666.467	437.24
666.665	488.44
666.863	381.95
667.061	390.14
667.259	142.33
667.457	340.99
667.655	574.46
667.853	64.51
668.051	285.69
668.249	140.29
668.447	525.3
668.645	123.9
668.843	361.47
669.041	465.91
669.239	293.88
669.437	291.84
669.635	308.22
669.833	340.99
670.031	566.26
670.229	246.78
670.426	287.74
670.624	353.27
670.822	246.78
671.02	222.2
671.218	297.98
671.415	230.4
671.613	488.44
671.811	390.14
672.009	271.36
672.206	678.9
672.404	449.53
672.602	369.66
672.799	257.02
672.997	533.5
673.195	685.05
673.392	326.65
673.59	74.75
673.788	619.51
673.985	-119.81
674.183	181.25
674.38	209.92
674.578	666.61
674.775	316.41
674.973	132.09
675.17	39.94
675.368	781.3
675.565	549.88
675.763	218.11
675.96	123.9
676.158	738.29
676.355	420.86
676.553	140.29
676.75	136.19
676.947	461.82
677.145	244.73
677.342	283.64
677.539	345.08
677.737	416.76
677.934	918.51
678.131	381.95
678.329	162.81
678.526	844.79
678.723	668.66
678.92	314.36
679.118	177.15
679.315	214.01
679.512	787.44
679.709	367.61
679.906	340.99
680.104	713.72
680.301	459.77
680.498	154.62
680.695	140.29
680.892	361.47
681.089	390.14
681.286	248.83
681.483	146.43
681.68	615.41
681.877	750.58
682.075	275.45
682.272	484.34
682.469	576.5
682.665	369.66
682.862	168.96
683.059	78.85
683.256	574.46
683.453	566.26
683.65	345.08
683.847	320.51
684.044	424.95
684.241	181.25
684.438	367.61
684.635	136.19
684.831	959.47
685.028	910.32
685.225	250.88
685.422	431.1
685.619	500.73
685.815	498.68
686.012	373.75
686.209	320.51
686.405	287.74
686.602	775.16
686.799	93.18
686.996	201.72
687.192	222.2
687.389	1008.62
687.586	279.55
687.782	250.88
687.979	885.75
688.175	793.59
688.372	422.91
688.568	234.49
688.765	369.66
688.962	824.31
689.158	375.8
689.355	80.89
689.551	693.24
689.748	314.36
689.944	359.42
690.14	105.47
690.337	707.57
690.533	431.1
690.73	424.95
690.926	359.42
691.123	633.85
691.319	490.49
691.515	146.43
691.712	486.39
691.908	670.71
692.104	586.74
692.301	449.53
692.497	97.28
692.693	758.77
692.889	721.91
693.086	459.77
693.282	205.82
693.478	492.54
693.674	986.1
693.87	334.84
694.067	252.92
694.263	570.36
694.459	533.5
694.655	498.68
694.851	390.14
695.047	711.67
695.243	775.16
695.439	570.36
695.635	214.01
695.831	633.85
696.027	615.41
696.224	304.12
696.42	633.85
696.615	898.03
696.811	680.95
697.007	263.16
697.203	304.12
697.399	680.95
697.595	842.74
697.791	328.7
697.987	504.82
698.183	406.52
698.379	367.61
698.575	345.08
698.77	324.6
698.966	799.73
699.162	867.31
699.358	443.39
699.554	388.09
699.749	832.5
699.945	797.68
700.141	566.26
700.337	543.74
700.532	588.79
700.728	394.23
700.924	338.94
701.119	226.3
701.315	758.77
701.511	492.54
701.706	467.96
701.902	156.67
702.097	576.5
702.293	660.47
702.489	480.25
702.684	334.84
702.88	517.11
703.075	439.29
703.271	383.99
703.466	195.58
703.662	631.8
703.857	748.53
704.053	320.51
704.248	394.23
704.443	863.22
704.639	812.02
704.834	467.96
705.03	320.51
705.225	726
705.42	945.14
705.616	488.44
705.811	332.79
706.006	592.89
706.202	470.01
706.397	486.39
706.592	359.42
706.787	760.82
706.983	576.5
707.178	607.22
707.373	474.1
707.568	859.12
707.763	910.32
707.959	318.46
708.154	314.36
708.349	723.96
708.544	769.01
708.739	658.42
708.934	355.32
709.129	900.08
709.324	869.36
709.519	347.13
709.714	300.03
709.909	852.98
710.104	889.84
710.299	441.34
710.494	490.49
710.689	828.4
710.884	683
711.079	584.7
711.274	584.7
711.469	726
711.664	795.64
711.859	369.66
712.054	459.77
712.249	801.78
712.443	760.82
712.638	345.08
712.833	359.42
713.028	670.71
713.223	664.57
713.417	762.87
713.612	445.43
713.807	855.03
714.002	1311.72
714.196	603.13
714.391	414.71
714.586	930.8
714.78	707.57
714.975	482.3
715.17	304.12
715.364	543.74
715.559	910.32
715.754	191.49
715.948	429.05
716.143	1182.7
716.337	701.43
716.532	701.43
716.726	500.73
716.921	900.08
717.115	1151.98
717.31	238.59
717.504	1047.54
717.699	623.61
717.893	951.28
718.088	295.93
718.282	347.13
718.476	728.05
718.671	814.07
718.865	447.48
719.059	457.72
719.254	719.86
719.448	1061.87
719.642	1760.23
719.837	279.55
720.031	842.74
720.225	975.86
720.419	531.45
720.614	404.47
720.808	902.13
721.002	744.44
721.196	502.78
721.39	508.92
721.585	1018.86
721.779	809.97
721.973	525.3
722.167	295.93
722.361	773.11
722.555	988.14
722.749	422.91
722.943	439.29
723.137	429.05
723.331	775.16
723.525	422.91
723.719	472.06
723.913	783.35
724.107	963.57
724.301	453.63
724.495	543.74
724.689	1166.32
724.883	1029.1
725.077	439.29
725.271	453.63
725.465	1131.5
725.659	732.15
725.853	648.18
726.046	390.14
726.24	551.93
726.434	1016.82
726.628	427
726.822	590.84
727.015	1000.43
727.209	992.24
727.403	459.77
727.596	345.08
727.79	916.47
727.984	852.98
728.177	539.64
728.371	486.39
728.565	1002.48
728.758	439.29
728.952	410.62
729.146	396.28
729.339	1057.78
729.533	738.29
729.726	508.92
729.92	429.05
730.113	1065.97
730.307	736.24
730.5	482.3
730.694	549.88
730.887	695.29
731.081	867.31
731.274	406.52
731.468	576.5
731.661	816.12
731.854	734.2
732.048	525.3
732.241	433.15
732.435	721.91
732.628	824.31
732.821	549.88
733.014	447.48
733.208	467.96
733.401	883.7
733.594	553.98
733.788	568.31
733.981	1111.02
734.174	904.18
734.367	513.02
734.56	660.47
734.754	1039.34
734.947	840.69
735.14	459.77
735.333	523.26
735.526	971.76
735.719	689.14
735.912	470.01
736.105	431.1
736.298	861.17
736.491	754.68
736.684	486.39
736.877	527.35
737.07	832.5
737.263	1147.89
737.456	531.45
737.649	488.44
737.842	799.73
738.035	912.37
738.228	619.51
738.421	670.71
738.614	1104.88
738.807	984.05
739	424.95
739.192	480.25
739.385	938.99
739.578	971.76
739.771	779.25
739.964	492.54
740.156	893.94
740.349	812.02
740.542	748.53
740.735	523.26
740.927	623.61
741.12	574.46
741.313	492.54
741.505	660.47
741.698	934.9
741.891	904.18
742.083	762.87
742.276	635.89
742.468	840.69
742.661	838.64
742.854	723.96
743.046	570.36
743.239	1225.71
743.431	771.06
743.624	685.05
743.816	531.45
744.009	775.16
744.201	953.33
744.393	844.79
744.586	486.39
744.778	1041.39
744.971	846.84
745.163	553.98
745.355	689.14
745.548	814.07
745.74	723.96
745.932	793.59
746.125	642.04
746.317	1362.92
746.509	889.84
746.702	586.74
746.894	668.66
747.086	1010.67
747.278	1123.31
747.471	762.87
747.663	705.53
747.855	883.7
748.047	1217.52
748.239	566.26
748.431	603.13
748.623	1168.37
748.815	1229.81
749.008	492.54
749.2	533.5
749.392	1049.58
749.584	1012.72
749.776	654.33
749.968	709.62
750.16	1393.64
750.352	842.74
750.544	623.61
750.736	611.32
750.928	1018.86
751.12	893.94
751.311	789.49
751.503	732.15
751.695	959.47
751.887	887.79
752.079	445.43
752.271	711.67
752.463	1668.07
752.654	1061.87
752.846	771.06
753.038	721.91
753.23	789.49
753.421	1135.6
753.613	660.47
753.805	850.93
753.997	1035.25
754.188	1088.5
754.38	541.69
754.572	674.81
754.763	863.22
754.955	988.14
755.146	709.62
755.338	672.76
755.53	979.95
755.721	961.52
755.913	510.97
756.104	476.15
756.296	852.98
756.487	1061.87
756.679	635.89
756.87	666.61
757.062	910.32
757.253	988.14
757.445	658.42
757.636	801.78
757.827	936.95
758.019	1534.95
758.21	521.21
758.401	697.33
758.593	1381.35
758.784	1219.57
758.975	619.51
759.167	590.84
759.358	920.56
759.549	1141.74
759.74	711.67
759.932	611.32
760.123	1291.24
760.314	723.96
760.505	863.22
760.696	723.96
760.888	1403.88
761.079	836.6
761.27	617.46
761.461	553.98
761.652	1238
761.843	865.27
762.034	697.33
762.225	982
762.416	910.32
762.607	1010.67
762.798	709.62
762.989	715.77
763.18	1768.42
763.371	871.41
763.562	760.82
763.753	697.33
763.944	1240.05
764.135	1135.6
764.326	867.31
764.517	664.57
764.708	1008.62
764.899	1162.22
765.089	683
765.28	486.39
765.471	1016.82
765.662	1113.07
765.853	732.15
766.043	558.07
766.234	1197.04
766.425	1190.89
766.615	738.29
766.806	580.6
766.997	1229.81
767.187	1100.78
767.378	748.53
767.569	527.35
767.759	1145.84
767.95	934.9
768.141	783.35
768.331	736.24
768.522	889.84
768.712	1125.36
768.903	680.95
769.093	670.71
769.284	1410.03
769.474	1102.83
769.665	607.22
769.855	480.25
770.046	1151.98
770.236	775.16
770.426	898.03
770.617	656.37
770.807	957.43
770.998	947.19
771.188	932.85
771.378	639.99
771.569	1156.08
771.759	1084.4
771.949	590.84
772.139	474.1
772.33	1033.2
772.52	1238
772.71	553.98
772.9	582.65
773.09	1367.02
773.281	1250.28
773.471	650.23
773.661	676.85
773.851	1328.11
774.041	865.27
774.231	644.09
774.421	812.02
774.611	1465.32
774.802	1025.01
774.992	650.23
775.182	617.46
775.372	986.1
775.562	1094.64
775.752	740.34
775.942	787.44
776.131	1291.24
776.321	1076.21
776.511	728.05
776.701	553.98
776.891	1278.96
777.081	750.58
777.271	812.02
777.461	648.18
777.651	1246.19
777.84	1334.25
778.03	857.07
778.22	771.06
778.41	1303.53
778.599	781.3
778.789	799.73
778.979	672.76
779.169	1068.02
779.358	1004.53
779.548	1051.63
779.738	488.44
779.927	1063.92
780.117	795.64
780.307	836.6
780.496	517.11
780.686	1098.74
780.875	1418.22
781.065	758.77
781.254	578.55
781.444	1041.39
781.633	992.24
781.823	578.55
782.012	683
782.202	885.75
782.391	1043.44
782.581	584.7
782.77	971.76
782.96	1168.37
783.149	961.52
783.338	791.54
783.528	480.25
783.717	1350.64
783.906	1274.86
784.096	846.84
784.285	592.89
784.474	951.28
784.663	861.17
784.853	852.98
785.042	791.54
785.231	877.55
785.42	1158.13
785.61	797.68
785.799	539.64
785.988	861.17
786.177	963.57
786.366	713.72
786.555	922.61
786.744	1213.42
786.933	955.38
787.122	652.28
787.312	609.27
787.501	900.08
787.69	1121.26
787.879	750.58
788.068	689.14
788.257	787.44
788.445	961.52
788.634	680.95
788.823	633.85
789.012	1743.85
789.201	1430.51
789.39	857.07
789.579	734.2
789.768	971.76
789.957	1043.44
790.145	809.97
790.334	506.87
790.523	877.55
790.712	975.86
790.9	795.64
791.089	621.56
791.278	1233.9
791.467	938.99
791.655	1014.77
791.844	1233.9
792.033	898.03
792.221	984.05
792.41	881.65
792.599	631.8
792.787	1235.95
792.976	1213.42
793.164	717.81
793.353	758.77
793.541	1217.52
793.73	1238
793.918	881.65
794.107	740.34
794.295	1012.72
794.484	955.38
794.672	893.94
794.861	699.38
795.049	1238
795.238	1471.47
795.426	613.37
795.614	869.36
795.803	1090.54
795.991	1348.59
796.179	752.63
796.368	781.3
796.556	1410.03
796.744	861.17
796.932	750.58
797.121	664.57
797.309	971.76
797.497	1270.76
797.685	795.64
797.874	740.34
798.062	869.36
798.25	1344.49
798.438	793.59
798.626	668.66
798.814	1147.89
799.002	1514.47
799.19	879.6
799.378	809.97
799.566	1360.88
799.755	1440.75
799.943	959.47
800.131	781.3
800.318	1121.26
800.506	1135.6
800.694	812.02
800.882	947.19
801.07	1469.42
801.258	1004.53
801.446	805.88
801.634	912.37
801.822	1141.74
802.01	1151.98
802.197	805.88
802.385	914.42
802.573	1180.65
802.761	936.95
802.949	820.21
803.136	726
803.324	1379.31
803.512	1197.04
803.699	859.12
803.887	672.76
804.075	1446.89
804.262	1045.49
804.45	723.96
804.638	908.27
804.825	912.37
805.013	979.95
805.201	941.04
805.388	818.16
805.576	1127.41
805.763	1481.71
805.951	746.48
806.138	984.05
806.326	1573.86
806.513	1358.83
806.701	814.07
806.888	783.35
807.075	1278.96
807.263	1623.02
807.45	744.44
807.638	1057.78
807.825	1557.48
808.012	1356.78
808.2	1008.62
808.387	1203.18
808.574	1336.3
808.761	1518.57
808.949	850.93
809.136	998.38
809.323	1025.01
809.51	1049.58
809.698	1248.24
809.885	1082.35
810.072	1178.61
810.259	1321.96
810.446	875.51
810.633	803.83
810.82	1371.12
811.008	1493.99
811.195	1188.85
811.382	861.17
811.569	1231.85
811.756	945.14
811.943	986.1
812.13	873.46
812.317	1076.21
812.504	1022.96
812.691	1031.15
812.878	1016.82
813.064	1551.34
813.251	1252.33
813.438	873.46
813.625	1100.78
813.812	1188.85
813.999	1240.05
814.186	965.62
814.372	984.05
814.559	1260.52
814.746	1520.62
814.933	959.47
815.12	1235.95
815.306	1160.17
815.493	996.34
815.68	949.23
815.866	934.9
816.053	1477.61
816.24	1735.65
816.426	1106.93
816.613	893.94
816.799	1410.03
816.986	1483.75
817.173	959.47
817.359	869.36
817.546	1287.15
817.732	984.05
817.919	758.77
818.105	1080.3
818.292	1125.36
818.478	1297.39
818.665	1065.97
818.851	932.85
819.037	1770.47
819.224	1330.16
819.41	902.13
819.597	895.99
819.783	1795.04
819.969	1340.4
820.156	1074.16
820.342	875.51
820.528	2085.86
820.714	1225.71
820.901	1281
821.087	910.32
821.273	1635.3
821.459	1293.29
821.646	1057.78
821.832	912.37
822.018	1328.11
822.204	1283.05
822.39	1016.82
822.576	838.64
822.762	1348.59
822.948	1321.96
823.134	1240.05
823.32	926.71
823.507	869.36
823.693	1270.76
823.879	1410.03
824.065	848.88
824.25	1291.24
824.436	1043.44
824.622	1016.82
824.808	824.31
824.994	1295.34
825.18	1065.97
825.366	881.65
825.552	992.24
825.738	1164.27
825.923	1530.86
826.109	1201.13
826.295	1037.3
826.481	1047.54
826.667	1160.17
826.852	1168.37
827.038	885.75
827.224	1555.43
827.409	1666.02
827.595	830.45
827.781	1256.43
827.966	1561.58
828.152	1469.42
828.338	1006.58
828.523	799.73
828.709	1098.74
828.894	1557.48
829.08	1108.98
829.266	918.51
829.451	1160.17
829.637	1475.56
829.822	1186.8
830.008	930.8
830.193	1532.9
830.378	1539.05
830.564	1176.56
830.749	951.28
830.935	1442.79
831.12	1463.27
831.305	971.76
831.491	1082.35
831.676	928.75
831.861	1557.48
832.047	1117.17
832.232	844.79
832.417	1522.66
832.602	1348.59
832.788	996.34
832.973	1004.53
833.158	1307.63
833.343	1268.72
833.528	1098.74
833.714	1074.16
833.899	1496.04
834.084	1786.85
834.269	1248.24
834.454	1057.78
834.639	1563.62
834.824	1389.55
835.009	1082.35
835.194	1160.17
835.379	1565.67
835.564	1594.34
835.749	1209.33
835.934	973.81
836.119	1422.31
836.304	1303.53
836.489	1104.88
836.674	1283.05
836.859	1125.36
837.044	1577.96
837.228	1098.74
837.413	1000.43
837.598	1467.37
837.783	1590.25
837.968	1045.49
838.152	830.45
838.337	1004.53
838.522	1510.38
838.707	1487.85
838.891	1364.97
839.076	1364.97
839.261	1588.2
839.445	1076.21
839.63	1207.28
839.815	1688.55
839.999	1205.23
840.184	1049.58
840.368	1004.53
840.553	1457.13
840.737	1602.54
840.922	889.84
841.106	836.6
841.291	971.76
841.475	1416.17
841.66	1000.43
841.844	1100.78
842.029	1924.07
842.213	1090.54
842.397	1053.68
842.582	1012.72
842.766	1545.19
842.951	1561.58
843.135	1063.92
843.319	977.91
843.504	1356.78
843.688	1512.42
843.872	996.34
844.056	1086.45
844.241	1459.18
844.425	1311.72
844.609	1215.47
844.793	857.07
844.977	1545.19
845.161	1364.97
845.346	979.95
845.53	1039.34
845.714	1324.01
845.898	1657.83
846.082	891.89
846.266	1025.01
846.45	1244.14
846.634	1354.73
846.818	1078.26
847.002	1242.09
847.186	1553.38
847.37	1094.64
847.554	979.95
847.738	1272.81
847.922	1397.74
848.106	1362.92
848.29	916.47
848.473	1002.48
848.657	1479.66
848.841	1377.26
849.025	1133.55
849.209	877.55
849.392	1600.49
849.576	1233.9
849.76	826.36
849.944	1147.89
850.127	1700.84
850.311	1074.16
850.495	887.79
850.678	971.76
850.862	1555.43
851.046	1696.74
851.229	1289.2
851.413	990.19
851.596	1307.63
851.78	1235.95
851.964	1084.4
852.147	1076.21
852.331	2112.48
852.514	1516.52
852.698	1172.46
852.881	914.42
853.065	1629.16
853.248	1358.83
853.431	1184.75
853.615	1246.19
853.798	1879.01
853.982	1463.27
854.165	1319.92
854.348	1049.58
854.532	1086.45
854.715	1215.47
854.898	1115.12
855.081	1006.58
855.265	1623.02
855.448	1788.9
855.631	1016.82
855.814	1090.54
855.997	1541.1
856.181	1309.68
856.364	1164.27
856.547	906.23
856.73	1338.35
856.913	1397.74
857.096	889.84
857.279	1164.27
857.462	1233.9
857.645	1606.63
857.828	1209.33
858.011	1164.27
858.194	1205.23
858.377	1557.48
858.56	1043.44
858.743	1225.71
858.926	1100.78
859.109	1377.26
859.292	955.38
859.475	900.08
859.658	1659.88
859.841	1537
860.023	924.66
860.206	959.47
860.389	1410.03
860.572	1663.97
860.755	1164.27
860.937	1041.39
861.12	1174.51
861.303	1305.58
861.486	1094.64
861.668	965.62
861.851	1426.41
862.034	1418.22
862.216	1217.52
862.399	893.94
862.581	1461.23
862.764	1670.12
862.947	1080.3
863.129	1061.87
863.312	1108.98
863.494	1694.69
863.677	1369.07
863.859	848.88
864.042	1508.33
864.224	1672.17
864.406	1168.37
864.589	971.76
864.771	1528.81
864.954	1020.91
865.136	1076.21
865.318	826.36
865.501	1430.51
865.683	885.75
865.865	984.05
866.048	1049.58
866.23	1311.72
866.412	1373.16
866.594	922.61
866.777	1160.17
866.959	1537
867.141	1086.45
867.323	1287.15
867.505	1266.67
867.687	1281
867.869	1360.88
868.052	1063.92
868.234	992.24
868.416	1301.48
868.598	1508.33
868.78	1037.3
868.962	1057.78
869.144	1686.5
869.326	1506.28
869.508	1164.27
869.69	967.67
869.872	1125.36
870.054	1676.26
870.236	898.03
870.417	1086.45
870.599	1113.07
870.781	1657.83
870.963	1182.7
871.145	951.28
871.327	975.86
871.508	1524.71
871.69	1178.61
871.872	1076.21
872.054	1276.91
872.235	1569.77
872.417	1143.79
872.599	971.76
872.78	1737.7
872.962	1436.65
873.144	943.09
873.325	1025.01
873.507	1715.17
873.689	1434.6
873.87	971.76
874.052	1227.76
874.233	1194.99
874.415	1577.96
874.596	1068.02
874.778	855.03
874.959	1467.37
875.141	1588.2
875.322	1070.06
875.503	951.28
875.685	1483.75
875.866	1016.82
876.048	938.99
876.229	855.03
876.41	1389.55
876.592	1463.27
876.773	961.52
876.954	971.76
877.136	1752.04
877.317	1313.77
877.498	861.17
877.679	1098.74
877.86	1493.99
878.042	1360.88
878.223	1057.78
878.404	1516.52
878.585	1545.19
878.766	1680.36
878.947	1424.36
879.128	1225.71
879.309	1551.34
879.49	1670.12
879.672	1121.26
879.853	1123.31
880.034	1233.9
880.215	1328.11
880.396	1115.12
880.576	1076.21
880.757	1184.75
880.938	1649.64
881.119	996.34
881.3	1233.9
881.481	1328.11
881.662	2231.26
881.843	1031.15
882.023	998.38
882.204	1637.35
882.385	1381.35
882.566	1111.02
882.747	1055.73
882.927	1391.59
883.108	1510.38
883.289	1106.93
883.469	1328.11
883.65	1324.01
883.831	1463.27
884.011	1367.02
884.192	1194.99
884.373	1698.79
884.553	1565.67
884.734	1289.2
884.914	1389.55
885.095	2145.25
885.275	1895.4
885.456	1508.33
885.636	1102.83
885.817	1496.04
885.997	1356.78
886.178	1133.55
886.358	1227.76
886.538	1522.66
886.719	2477.02
886.899	1184.75
887.08	1266.67
887.26	1694.69
887.44	1201.13
887.621	1133.55
887.801	1332.2
887.981	2092
888.161	1782.76
888.342	1375.21
888.522	1223.66
888.702	1737.7
888.882	1788.9
889.062	1426.41
889.242	1094.64
889.423	1721.32
889.603	1643.49
889.783	1299.44
889.963	1305.58
890.143	1696.74
890.323	1719.27
890.503	1209.33
890.683	1258.48
890.863	1541.1
891.043	1594.34
891.223	1395.69
891.403	1557.48
891.583	1584.1
891.763	1614.82
891.943	1321.96
892.122	1223.66
892.302	1545.19
892.482	1543.14
892.662	1520.62
892.842	1324.01
893.022	1565.67
893.201	1405.93
893.381	1375.21
893.561	1262.57
893.741	1778.66
893.92	1663.97
894.1	1375.21
894.28	1401.83
894.459	1745.89
894.639	1674.21
894.819	1377.26
894.998	1448.94
895.178	1700.84
895.357	1612.78
895.537	1319.92
895.716	1311.72
895.896	1657.83
896.075	1938.4
896.255	1287.15
896.434	1272.81
896.614	1836
896.793	1956.83
896.973	1463.27
897.152	1504.23
897.331	1807.33
897.511	1819.62
897.69	1240.05
897.87	1354.73
898.049	1676.26
898.228	1598.44
898.407	1514.47
898.587	1649.64
898.766	1426.41
898.945	1831.91
899.124	1700.84
899.304	1553.38
899.483	1770.47
899.662	2030.56
899.841	1344.49
900.02	1354.73
900.199	1991.65
900.378	1682.41
900.557	1414.12
900.737	1221.61
900.916	1627.11
901.095	1874.92
901.274	1623.02
901.453	1104.88
901.632	1475.56
901.811	1459.18
901.989	1393.64
902.168	1268.72
902.347	1858.53
902.526	1563.62
902.705	1405.93
902.884	1508.33
903.063	2014.18
903.242	1942.5
903.42	1350.64
903.599	1602.54
903.778	1819.62
903.957	1991.65
904.135	1461.23
904.314	1541.1
904.493	1651.69
904.672	1752.04
904.85	1336.3
905.029	1295.34
905.207	1737.7
905.386	2290.65
905.565	1188.85
905.743	1289.2
905.922	1397.74
906.1	1715.17
906.279	1270.76
906.457	1426.41
906.636	1633.26
906.814	1530.86
906.993	1246.19
907.171	1256.43
907.35	1733.61
907.528	1762.28
907.707	1571.82
907.885	1233.9
908.063	2030.56
908.242	1391.59
908.42	1278.96
908.598	1164.27
908.777	1813.48
908.955	1493.99
909.133	1438.7
909.311	1264.62
909.49	1647.59
909.668	1545.19
909.846	1385.45
910.024	1121.26
910.202	1573.86
910.38	1838.05
910.559	1151.98
910.737	1274.86
910.915	1733.61
911.093	1696.74
911.271	1389.55
911.449	1465.32
911.627	1680.36
911.805	2141.15
911.983	1287.15
912.161	1274.86
912.339	1641.45
912.517	1883.11
912.695	1440.75
912.872	1414.12
913.05	1324.01
913.228	1702.89
913.406	1330.16
913.584	1180.65
913.762	1649.64
913.939	1336.3
914.117	1260.52
914.295	1190.89
914.473	1676.26
914.65	1756.13
914.828	1326.06
915.006	1258.48
915.184	1278.96
915.361	1733.61
915.539	1557.48
915.716	1459.18
915.894	1645.54
916.072	1758.18
916.249	1506.28
916.427	1461.23
916.604	1301.48
916.782	1532.9
916.959	1229.81
917.137	1274.86
917.314	1606.63
917.492	1770.47
917.669	1481.71
917.847	1485.8
918.024	1561.58
918.201	1453.03
918.379	1381.35
918.556	1422.31
918.733	1770.47
918.911	1442.79
919.088	1524.71
919.265	1276.91
919.442	1616.87
919.62	1577.96
919.797	1084.4
919.974	1104.88
920.151	1510.38
920.328	1541.1
920.506	1307.63
920.683	1410.03
920.86	1303.53
921.037	1313.77
921.214	1262.57
921.391	1299.44
921.568	1745.89
921.745	1412.07
921.922	1145.84
922.099	1190.89
922.276	1676.26
922.453	1504.23
922.63	1170.41
922.807	1545.19
922.984	1491.95
923.161	1299.44
923.338	1291.24
923.514	1113.07
923.691	1461.23
923.868	1590.25
924.045	1162.22
924.222	1070.06
924.399	1426.41
924.575	1725.41
924.752	1217.52
924.929	1285.1
925.105	1594.34
925.282	1235.95
925.459	1176.56
925.635	1248.24
925.812	1377.26
925.989	1219.57
926.165	1287.15
926.342	1045.49
926.518	1119.21
926.695	1338.35
926.871	1154.03
927.048	982
927.224	1612.78
927.401	1203.18
927.577	1252.33
927.754	1008.62
927.93	1598.44
928.107	1539.05
928.283	1037.3
928.459	1221.61
928.636	1432.55
928.812	1264.62
928.988	1090.54
929.165	1004.53
929.341	1242.09
929.517	1385.45
929.693	1389.55
929.87	1016.82
930.046	1440.75
930.222	1305.58
930.398	1045.49
930.574	1086.45
930.751	1274.86
930.927	1070.06
931.103	1123.31
931.279	1037.3
931.455	1045.49
931.631	1446.89
931.807	904.18
931.983	1012.72
932.159	898.03
932.335	1401.83
932.511	951.28
932.687	918.51
932.863	1258.48
933.039	1283.05
933.215	912.37
933.391	846.84
933.566	1250.28
933.742	1221.61
933.918	914.42
934.094	769.01
934.27	1211.37
934.445	1223.66
934.621	914.42
934.797	816.12
934.973	1369.07
935.148	1258.48
935.324	846.84
935.5	592.89
935.675	1358.83
935.851	1188.85
936.027	1012.72
936.202	957.43
936.378	1102.83
936.553	1012.72
936.729	1317.87
936.904	775.16
937.08	930.8
937.255	934.9
937.431	742.39
937.606	646.13
937.782	869.36
937.957	977.91
938.133	844.79
938.308	732.15
938.483	1004.53
938.659	758.77
938.834	842.74
939.009	609.27
939.185	910.32
939.36	779.25
939.535	408.57
939.71	738.29
939.886	1106.93
940.061	918.51
940.236	889.84
940.411	476.15
940.586	902.13
940.761	926.71
940.937	646.13
941.112	562.17
941.287	742.39
941.462	754.68
941.637	494.58
941.812	496.63
941.987	961.52
942.162	732.15
942.337	703.48
942.512	572.41
942.687	1037.3
942.862	967.67
943.037	431.1
943.212	267.26
943.386	715.77
943.561	730.1
943.736	621.56
943.911	883.7
944.086	830.45
944.26	898.03
944.435	449.53
944.61	535.54
944.785	1039.34
944.959	1235.95
945.134	517.11
945.309	373.75
945.483	492.54
945.658	1043.44
945.833	293.88
946.007	345.08
946.182	1127.41
946.357	414.71
946.531	472.06
946.706	443.39
946.88	316.41
947.055	791.54
947.229	474.1
947.404	347.13
947.578	977.91
947.752	662.52
947.927	316.41
948.101	324.6
948.276	709.62
948.45	766.96
948.624	558.07
948.799	418.81
948.973	812.02
949.147	486.39
949.321	535.54
949.496	412.67
949.67	955.38
949.844	664.57
950.018	467.96
950.193	547.83
950.367	1293.29
950.541	650.23
950.715	574.46
950.889	623.61
951.063	637.94
951.237	873.46
951.411	263.16
951.585	252.92
951.759	836.6
951.933	642.04
952.107	447.48
952.281	752.63
952.455	1055.73
952.629	836.6
952.803	449.53
952.977	363.51
953.151	879.6
953.325	850.93
953.499	621.56
953.672	369.66
953.846	545.78
954.02	551.93
954.194	375.8
954.368	515.06
954.541	769.01
954.715	607.22
954.889	648.18
955.062	431.1
955.236	637.94
955.41	617.46
955.583	629.75
955.757	234.49
955.93	648.18
956.104	465.91
956.278	439.29
956.451	484.34
956.625	787.44
956.798	1205.23
956.972	766.96
957.145	402.43
957.319	676.85
957.492	678.9
957.665	648.18
957.839	474.1
958.012	869.36
958.185	582.65
958.359	486.39
958.532	596.98
958.705	867.31
958.879	785.4
959.052	496.63
959.225	308.22
959.398	674.81
959.572	742.39
959.745	324.6
959.918	541.69
960.091	621.56
960.264	777.2
960.438	390.14
960.611	359.42
960.784	881.65
960.957	533.5
961.13	773.11
961.303	451.58
961.476	697.33
961.649	844.79
961.822	357.37
961.995	525.3
962.168	865.27
962.341	764.92
962.514	533.5
962.686	418.81
962.859	726
963.032	807.92
963.205	400.38
963.378	261.12
963.551	728.05
963.723	707.57
963.896	596.98
964.069	611.32
964.242	683
964.414	926.71
964.587	467.96
964.76	553.98
964.932	816.12
965.105	689.14
965.278	502.78
965.45	363.51
965.623	738.29
965.795	799.73
965.968	443.39
966.14	365.56
966.313	535.54
966.485	728.05
966.658	361.47
966.83	336.89
967.003	924.66
967.175	775.16
967.348	396.28
967.52	476.15
967.692	1070.06
967.865	832.5
968.037	523.26
968.209	695.29
968.382	766.96
968.554	871.41
968.726	521.21
968.898	373.75
969.071	785.4
969.243	769.01
969.415	627.7
969.587	515.06
969.759	1192.94
969.932	934.9
970.104	541.69
970.276	220.16
970.448	500.73
970.62	650.23
970.792	578.55
970.964	484.34
971.136	1184.75
971.308	852.98
971.48	392.19
971.652	502.78
971.824	1125.36
971.996	558.07
972.168	457.72
972.339	459.77
972.511	963.57
972.683	584.7
972.855	646.13
973.027	451.58
973.199	666.61
973.37	793.59
973.542	611.32
973.714	578.55
973.886	650.23
974.057	893.94
974.229	345.08
974.401	429.05
974.572	457.72
974.744	197.63
974.915	369.66
975.087	357.37
975.259	1012.72
975.43	459.77
975.602	435.19
975.773	345.08
975.945	463.86
976.116	803.83
976.288	287.74
976.459	596.98
976.63	537.59
976.802	750.58
976.973	406.52
977.145	527.35
977.316	1113.07
977.487	963.57
977.659	498.68
977.83	494.58
978.001	1076.21
978.172	760.82
978.344	338.94
978.515	427
978.686	500.73
978.857	941.04
979.028	345.08
979.2	402.43
979.371	781.3
979.542	648.18
979.713	531.45
979.884	80.89
980.055	510.97
980.226	576.5
980.397	355.32
980.568	191.49
980.739	926.71
980.91	574.46
981.081	613.37
981.252	326.65
981.423	838.64
981.594	893.94
981.765	324.6
981.936	529.4
982.106	578.55
982.277	902.13
982.448	326.65
982.619	570.36
982.79	582.65
982.96	789.49
983.131	560.12
983.302	162.81
983.472	410.62
983.643	734.2
983.814	617.46
983.984	377.85
984.155	580.6
984.326	859.12
984.496	502.78
984.667	412.67
984.837	402.43
985.008	910.32
985.178	484.34
985.349	351.23
985.519	564.22
985.69	459.77
985.86	414.71
986.031	203.77
986.201	689.14
986.371	715.77
986.542	314.36
986.712	152.57
986.882	766.96
987.053	644.09
987.223	271.36
987.393	451.58
987.563	496.63
987.734	773.11
987.904	693.24
988.074	369.66
988.244	635.89
988.414	453.63
988.585	297.98
988.755	500.73
988.925	623.61
989.095	898.03
989.265	345.08
989.435	404.47
989.605	705.53
989.775	721.91
989.945	601.08
990.115	211.96
990.285	549.88
990.455	666.61
990.625	381.95
990.795	250.88
990.965	836.6
991.134	265.21
991.304	291.84
991.474	300.03
991.644	642.04
991.814	906.23
991.984	173.05
992.153	216.06
992.323	506.87
992.493	580.6
992.662	62.46
992.832	371.71
993.002	590.84
993.171	709.62
993.341	119.81
993.511	365.56
993.68	398.33
993.85	693.24
994.019	111.61
994.189	179.2
994.358	644.09
994.528	406.52
994.697	58.37
994.867	175.1
995.036	740.34
995.206	451.58
995.375	273.4
995.544	388.09
995.714	556.02
995.883	451.58
996.052	349.18
996.222	95.23
996.391	953.33
996.56	568.31
996.73	146.43
996.899	123.9
997.068	863.22
997.237	574.46
997.406	150.53
997.576	185.34
997.745	623.61
997.914	558.07
998.083	-54.27
998.252	173.05
998.421	582.65
998.59	300.03
998.759	148.48
998.928	66.56
999.097	871.41
999.266	637.94
999.435	386.04
999.604	44.03
999.773	975.86
999.942	470.01
1000.111	93.18
1000.28	-78.85
1000.448	295.93
1000.617	275.45
1000.786	248.83
1000.955	103.42
1001.124	576.5
1001.292	1211.37
1001.461	183.29
1001.63	168.96
1001.798	783.35
1001.967	713.72
1002.136	29.7
1002.304	191.49
1002.473	474.1
1002.642	556.02
1002.81	41.98
1002.979	105.47
1003.147	697.33
1003.316	1059.82
1003.484	195.58
1003.653	111.61
1003.821	787.44
1003.99	431.1
1004.158	254.97
1004.327	361.47
1004.495	629.75
1004.663	324.6
1004.832	347.13
1005	68.61
1005.168	539.64
1005.337	605.17
1005.505	5.12
1005.673	437.24
1005.842	590.84
1006.01	541.69
1006.178	70.65
1006.346	52.22
1006.514	625.65
1006.683	750.58
1006.851	183.29
1007.019	-37.89
1007.187	246.78
1007.355	-1.02
1007.523	-48.13
1007.691	-5.12
1007.859	84.99
1008.027	713.72
1008.195	82.94
1008.363	25.6
1008.531	605.17
1008.699	312.32
1008.867	-15.36
1009.035	111.61
1009.203	726
1009.37	484.34
1009.538	242.68
1009.706	619.51
1009.874	443.39
1010.042	439.29
1010.209	-7.17
1010.377	25.6
1010.545	683
1010.713	492.54
1010.88	17.41
1011.048	78.85
1011.216	279.55
1011.383	756.72
1011.551	74.75
1011.718	58.37
1011.886	689.14
1012.054	361.47
1012.221	70.65
1012.389	52.22
1012.556	414.71
1012.724	828.4
1012.891	117.76
1013.058	-84.99
1013.226	623.61
1013.393	523.26
1013.561	-56.32
1013.728	-44.03
1013.895	666.61
1014.063	525.3
1014.23	-80.89
1014.397	44.03
1014.565	560.12
1014.732	347.13
1014.899	9.22
1015.066	-54.27
1015.233	406.52
1015.401	580.6
1015.568	54.27
1015.735	191.49
1015.902	461.82
1016.069	437.24
1016.236	46.08
1016.403	-17.41
1016.57	232.44
1016.737	607.22
1016.904	115.71
1017.071	-105.47
1017.238	345.08
1017.405	525.3
1017.572	33.79
1017.739	205.82
1017.906	558.07
1018.073	543.74
1018.24	-130.05
1018.407	87.04
1018.573	760.82
1018.74	398.33
1018.907	121.85
1019.074	-119.81
1019.241	533.5
1019.407	406.52
1019.574	-54.27
1019.741	-82.94
1019.907	484.34
1020.074	582.65
1020.241	-89.09
1020.407	-9.22
1020.574	523.26
1020.74	457.72
1020.907	58.37
1021.073	-29.7
1021.24	861.17
1021.406	732.15
1021.573	-31.74
1021.739	87.04
1021.906	566.26
1022.072	418.81
1022.239	13.31
1022.405	70.65
1022.571	361.47
1022.738	246.78
1022.904	62.46
1023.07	37.89
1023.237	365.56
1023.403	625.65
1023.569	37.89
1023.735	60.42
1023.902	467.96
1024.068	486.39
1024.234	-201.72
1024.4	-5.12
1024.566	521.21
1024.732	562.17
1024.898	-35.84
1025.065	-191.49
1025.231	578.55
1025.397	250.88
1025.563	-13.31
1025.729	-89.09
1025.895	-52.22
1026.061	162.81
1026.227	-203.77
1026.392	54.27
1026.558	556.02
1026.724	500.73
1026.89	-72.7
1027.056	-9.22
1027.222	422.91
1027.388	287.74
1027.553	-68.61
1027.719	-50.18
1027.885	672.76
1028.051	488.44
1028.216	-183.29
1028.382	58.37
1028.548	599.03
1028.713	224.25
1028.879	-117.76
1029.045	78.85
1029.21	705.53
1029.376	588.79
1029.541	-7.17
1029.707	-48.13
1029.873	455.67
1030.038	523.26
1030.204	-13.31
1030.369	-60.42
1030.534	564.22
1030.7	250.88
1030.865	11.26
1031.031	-97.28
1031.196	474.1
1031.361	406.52
1031.527	-115.71
1031.692	-46.08
1031.857	-84.99
1032.023	541.69
1032.188	-115.71
1032.353	13.31
1032.518	689.14
1032.684	435.19
1032.849	-158.72
1033.014	72.7
1033.179	441.34
1033.344	443.39
1033.509	146.43
1033.674	-39.94
1033.839	496.63
1034.004	504.82
1034.17	-44.03
1034.335	-87.04
1034.5	259.07
1034.664	160.77
1034.829	-89.09
1034.994	17.41
1035.159	373.75
1035.324	431.1
1035.489	-21.5
1035.654	-60.42
1035.819	652.28
1035.984	359.42
1036.148	9.22
1036.313	-11.26
1036.478	603.13
1036.643	347.13
1036.807	-70.65
1036.972	-62.46
1037.137	564.22
1037.301	343.03
1037.466	-189.44
1037.631	54.27
1037.795	539.64
1037.96	463.86
1038.124	31.74
1038.289	-238.59
1038.454	517.11
1038.618	394.23
1038.783	-7.17
1038.947	17.41
1039.111	322.56
1039.276	234.49
1039.44	-121.85
1039.605	406.52
1039.769	326.65
1039.933	222.2
1040.098	58.37
1040.262	132.09
1040.426	652.28
1040.591	482.3
1040.755	-95.23
1040.919	-62.46
1041.083	478.2
1041.248	218.11
1041.412	-226.3
1041.576	-103.42
1041.74	297.98
1041.904	523.26
1042.068	-101.37
1042.232	-35.84
1042.397	488.44
1042.561	416.76
1042.725	-216.06
1042.889	121.85
1043.053	494.58
1043.217	459.77
1043.381	84.99
1043.544	-164.86
1043.708	574.46
1043.872	117.76
1044.036	-332.79
1044.2	-171.01
1044.364	588.79
1044.528	599.03
1044.691	3306.45
1044.855	-228.35
1045.019	513.02
1045.183	433.15
1045.346	-54.27
1045.51	-76.8
1045.674	404.47
1045.837	502.78
1046.001	-17.41
1046.165	-70.65
1046.328	826.36
1046.492	441.34
1046.655	31.74
1046.819	-46.08
1046.983	164.86
1047.146	381.95
1047.31	41.98
1047.473	-189.44
1047.636	328.7
1047.8	31.74
1047.963	-21.5
1048.127	-119.81
1048.29	138.24
