Data from Ink_Intensity_USB4F045381__153__00153.txt Node

Date: Mon Jul 17 11:29:27 EDT 2023
User: mmckonesweet
Spectrometer: USB4F04538
Trigger mode: 4
Integration Time (sec): 9.000000E-1
Scans to average: 1
Electric dark correction enabled: true
Nonlinearity correction enabled: false
Boxcar width: 0
XAxis mode: Wavelengths
Number of Pixels in Spectrum: 3648
>>>>>Begin Spectral Data<<<<<
345.52	-1053.34
345.736	-1053.34
345.952	-1053.34
346.168	-1018.52
346.384	-1010.33
346.6	-94.89
346.816	-201.38
347.032	-152.23
347.248	265.55
347.464	-230.06
347.68	-127.66
347.896	30.04
348.112	400.72
348.328	-74.41
348.544	-47.79
348.76	-45.74
348.975	277.84
349.191	-178.86
349.407	-207.53
349.623	-19.11
349.839	-90.79
350.055	-152.23
350.27	56.66
350.486	109.91
350.702	218.45
350.918	267.6
351.133	-152.23
351.349	103.76
351.565	322.9
351.781	-295.59
351.996	-70.31
352.212	267.6
352.428	-211.62
352.644	-260.77
352.859	-287.4
353.075	228.69
353.291	122.2
353.506	-109.22
353.722	-285.35
353.938	-21.16
354.153	486.73
354.369	91.48
354.584	-158.38
354.8	167.25
355.016	-326.31
355.231	-266.92
355.447	44.37
355.662	128.34
355.878	783.69
356.093	-328.36
356.309	-43.69
356.524	-254.63
356.74	290.13
356.955	-137.9
357.171	-70.31
357.386	126.29
357.602	-250.53
357.817	-35.5
358.033	-234.15
358.248	353.62
358.464	191.83
358.679	-133.8
358.895	-299.69
359.11	7.51
359.325	314.7
359.541	30.04
359.756	-2.73
359.972	-213.67
360.187	214.35
360.402	-205.48
360.618	-203.43
360.833	1150.28
361.048	126.29
361.264	-180.9
361.479	-158.38
361.694	-25.26
361.909	136.53
362.125	-201.38
362.34	-189.1
362.555	249.17
362.77	93.52
362.986	-287.4
363.201	-174.76
363.416	75.09
363.631	-45.74
363.847	-211.62
364.062	-123.56
364.277	236.88
364.492	89.43
364.707	-225.96
364.922	-289.45
365.138	269.65
365.353	306.51
365.568	-242.34
365.783	-164.52
365.998	9.56
366.213	535.89
366.428	-238.25
366.643	54.61
366.858	249.17
367.073	191.83
367.288	-191.14
367.503	-174.76
367.718	48.47
367.933	380.24
368.148	-291.49
368.363	-90.79
368.578	23.89
368.793	388.43
369.008	-160.42
369.223	-244.39
369.438	171.35
369.653	449.87
369.868	-268.97
370.083	-283.3
370.298	60.76
370.513	437.58
370.728	-0.68
370.943	-209.58
371.157	-168.62
371.372	546.13
371.587	-365.22
371.802	-271.01
372.017	44.37
372.232	437.58
372.446	-60.07
372.661	-207.53
372.876	185.68
373.091	212.31
373.306	-90.79
373.52	-248.49
373.735	-101.03
373.95	421.2
374.165	-74.41
374.379	-160.42
374.594	-156.33
374.809	73.04
375.023	-53.93
375.238	-232.1
375.453	277.84
375.667	-332.45
375.882	-156.33
376.097	-268.97
376.311	23.89
376.526	-8.87
376.741	-344.74
376.955	167.25
377.17	519.5
377.384	453.97
377.599	-96.94
377.813	-318.12
378.028	539.98
378.242	150.87
378.457	-51.88
378.672	-340.65
378.886	146.77
379.101	-53.93
379.315	-420.52
379.53	-211.62
379.744	101.72
379.958	222.55
380.173	-156.33
380.387	-240.29
380.602	95.57
380.816	-152.23
381.031	-156.33
381.245	-156.33
381.459	157.01
381.674	851.27
381.888	-281.25
382.103	97.62
382.317	-217.77
382.531	488.78
382.746	-139.94
382.96	-176.81
383.174	-94.89
383.388	396.62
383.603	32.08
383.817	-238.25
384.031	73.04
384.246	433.49
384.46	-19.11
384.674	220.5
384.888	32.08
385.103	81.24
385.317	-281.25
385.531	-33.45
385.745	326.99
385.959	177.49
386.174	-246.44
386.388	-238.25
386.602	-39.59
386.816	-29.35
387.03	-90.79
387.244	-74.41
387.458	52.56
387.672	359.76
387.887	-225.96
388.101	-309.93
388.315	302.42
388.529	124.24
388.743	-172.71
388.957	-242.34
389.171	251.22
389.385	-185
389.599	-154.28
389.813	134.48
390.027	150.87
390.241	542.03
390.455	-86.7
390.669	-105.13
390.883	-19.11
391.097	367.95
391.311	17.75
391.525	-158.38
391.738	142.68
391.952	105.81
392.166	-98.99
392.38	-205.48
392.594	271.7
392.808	343.38
393.022	-72.36
393.236	-174.76
393.449	177.49
393.663	126.29
393.877	-246.44
394.091	-90.79
394.305	-94.89
394.518	-51.88
394.732	-273.06
394.946	-156.33
395.16	496.97
395.373	126.29
395.587	-242.34
395.801	-103.08
396.015	277.84
396.228	142.68
396.442	-326.31
396.656	-461.48
396.869	372.05
397.083	425.29
397.297	-49.83
397.51	-158.38
397.724	333.14
397.938	154.96
398.151	-299.69
398.365	-268.97
398.578	109.91
398.792	396.62
399.005	-105.13
399.219	-90.79
399.433	21.85
399.646	142.68
399.86	-4.78
400.073	7.51
400.287	150.87
400.5	-27.31
400.714	-68.27
400.927	-160.42
401.141	228.69
401.354	968.01
401.567	183.63
401.781	-250.53
401.994	279.89
402.208	570.7
402.421	-152.23
402.635	-105.13
402.848	44.37
403.061	304.46
403.275	-70.31
403.488	-271.01
403.701	458.06
403.915	222.55
404.128	-10.92
404.341	-150.18
404.555	245.07
404.768	-0.68
404.981	19.8
405.195	-246.44
405.408	484.69
405.621	265.55
405.834	-15.02
406.048	-268.97
406.261	400.72
406.474	400.72
406.687	-189.1
406.9	-129.7
407.114	-31.4
407.327	150.87
407.54	-340.65
407.753	-266.92
407.966	-94.89
408.179	263.51
408.392	-219.82
408.605	-389.8
408.819	148.82
409.032	255.31
409.245	-266.92
409.458	25.94
409.671	281.94
409.884	226.64
410.097	-213.67
410.31	-8.87
410.523	175.44
410.736	-41.64
410.949	-146.09
411.162	-62.12
411.375	349.52
411.588	290.13
411.801	-0.68
412.014	-264.87
412.227	54.61
412.44	21.85
412.653	-187.05
412.865	-6.83
413.078	222.55
413.291	146.77
413.504	-148.14
413.717	-121.51
413.93	257.36
414.143	-51.88
414.356	-174.76
414.568	-324.26
414.781	267.6
414.994	126.29
415.207	-94.89
415.42	-115.37
415.632	251.22
415.845	447.82
416.058	-250.53
416.271	-217.77
416.483	27.99
416.696	466.25
416.909	-195.24
417.121	-209.58
417.334	154.96
417.547	453.97
417.759	-152.23
417.972	-228.01
418.185	-123.56
418.397	290.13
418.61	-230.06
418.823	-209.58
419.035	480.59
419.248	-6.83
419.46	-96.94
419.673	3.41
419.885	185.68
420.098	-78.51
420.311	-141.99
420.523	-340.65
420.736	144.72
420.948	97.62
421.161	-131.75
421.373	-357.03
421.586	42.32
421.798	-107.18
422.01	-318.12
422.223	-37.55
422.435	-49.83
422.648	161.11
422.86	-205.48
423.073	-160.42
423.285	322.9
423.497	-242.34
423.71	-240.29
423.922	-254.63
424.134	152.92
424.347	458.06
424.559	-68.27
424.771	97.62
424.984	-37.55
425.196	214.35
425.408	-338.6
425.621	-262.82
425.833	247.12
426.045	316.75
426.257	-238.25
426.47	-238.25
426.682	138.58
426.894	167.25
427.106	-187.05
427.318	-103.08
427.531	-146.09
427.743	251.22
427.955	-236.2
428.167	208.21
428.379	179.54
428.591	71
428.804	-88.75
429.016	-240.29
429.228	-6.83
429.44	204.11
429.652	46.42
429.864	-342.69
430.076	-45.74
430.288	-43.69
430.5	-92.84
430.712	-113.32
430.924	304.46
431.136	148.82
431.348	-340.65
431.56	-158.38
431.772	89.43
431.984	11.61
432.196	-172.71
432.408	-209.58
432.62	52.56
432.832	105.81
433.044	19.8
433.256	-39.59
433.468	134.48
433.679	-279.21
433.891	-195.24
434.103	-35.5
434.315	447.82
434.527	210.26
434.739	-25.26
434.95	-174.76
435.162	236.88
435.374	-105.13
435.586	-150.18
435.798	-209.58
436.009	-254.63
436.221	13.65
436.433	-248.49
436.645	-127.66
436.856	-82.6
437.068	374.1
437.28	-201.38
437.491	68.95
437.703	68.95
437.915	-2.73
438.126	-152.23
438.338	87.38
438.55	-0.68
438.761	218.45
438.973	-131.75
439.184	-88.75
439.396	-29.35
439.608	249.17
439.819	-268.97
440.031	-117.42
440.242	251.22
440.454	185.68
440.665	-103.08
440.877	-74.41
441.088	195.92
441.3	-60.07
441.511	-311.97
441.723	-221.86
441.934	120.15
442.146	-17.07
442.357	-12.97
442.569	7.51
442.78	27.99
442.991	482.64
443.203	89.43
443.414	-285.35
443.626	365.9
443.837	-80.55
444.048	-311.97
444.26	-291.49
444.471	101.72
444.682	212.31
444.894	-414.37
445.105	-320.17
445.316	267.6
445.528	224.59
445.739	-98.99
445.95	-178.86
446.161	124.24
446.373	392.53
446.584	-152.23
446.795	-185
447.006	159.06
447.217	431.44
447.429	-303.78
447.64	-232.1
447.851	408.91
448.062	11.61
448.273	-311.97
448.484	-199.34
448.695	257.36
448.907	-53.93
449.118	-94.89
449.329	-39.59
449.54	-94.89
449.751	-139.94
449.962	-144.04
450.173	-207.53
450.384	277.84
450.595	402.77
450.806	-187.05
451.017	-217.77
451.228	279.89
451.439	249.17
451.65	-189.1
451.861	-373.41
452.072	-246.44
452.283	-17.07
452.494	-39.59
452.705	-144.04
452.915	384.34
453.126	118.1
453.337	-187.05
453.548	-250.53
453.759	253.27
453.97	527.69
454.181	66.9
454.391	-193.19
454.602	161.11
454.813	167.25
455.024	-80.55
455.235	-221.86
455.445	111.96
455.656	193.87
455.867	-31.4
456.078	-191.14
456.288	-68.27
456.499	210.26
456.71	-273.06
456.921	5.46
457.131	81.24
457.342	134.48
457.553	-195.24
457.763	-221.86
457.974	169.3
458.184	275.79
458.395	-275.11
458.606	-287.4
458.816	298.32
459.027	548.17
459.237	-109.22
459.448	-406.18
459.659	335.18
459.869	531.79
460.08	-346.79
460.29	-53.93
460.501	445.77
460.711	-74.41
460.922	-410.28
461.132	-137.9
461.343	634.19
461.553	-228.01
461.764	-271.01
461.974	-185
462.184	261.46
462.395	202.07
462.605	-117.42
462.816	-262.82
463.026	122.2
463.236	374.1
463.447	-316.07
463.657	-92.84
463.867	308.56
464.078	-103.08
464.288	-201.38
464.498	-199.34
464.709	21.85
464.919	36.18
465.129	-221.86
465.339	-201.38
465.55	234.83
465.76	300.37
465.97	-228.01
466.18	-268.97
466.391	243.03
466.601	175.44
466.811	-160.42
467.021	-316.07
467.231	134.48
467.441	296.27
467.651	-53.93
467.862	-451.24
468.072	58.71
468.282	343.38
468.492	-225.96
468.702	-172.71
468.912	23.89
469.122	593.23
469.332	114
469.542	-316.07
469.752	226.64
469.962	71
470.172	-307.88
470.382	-279.21
470.592	263.51
470.802	269.65
471.012	-148.14
471.222	-295.59
471.432	277.84
471.642	226.64
471.852	-78.51
472.062	-262.82
472.272	25.94
472.482	-266.92
472.691	-287.4
472.901	-316.07
473.111	116.05
473.321	609.61
473.531	-266.92
473.741	-168.62
473.95	265.55
474.16	222.55
474.37	-217.77
474.58	-348.84
474.79	425.29
474.999	261.46
475.209	-266.92
475.419	-205.48
475.628	44.37
475.838	322.9
476.048	-203.43
476.258	-232.1
476.467	314.7
476.677	-119.46
476.886	-62.12
477.096	-160.42
477.306	-58.03
477.515	404.82
477.725	-156.33
477.935	-82.6
478.144	437.58
478.354	-101.03
478.563	-273.06
478.773	-254.63
478.982	247.12
479.192	331.09
479.401	-162.47
479.611	-346.79
479.82	-164.52
480.03	105.81
480.239	-260.77
480.449	-297.64
480.658	374.1
480.868	-234.15
481.077	-45.74
481.287	-176.81
481.496	126.29
481.705	322.9
481.915	-29.35
482.124	-53.93
482.333	200.02
482.543	390.48
482.752	-86.7
482.961	-246.44
483.171	240.98
483.38	40.28
483.589	-174.76
483.799	-254.63
484.008	-0.68
484.217	204.11
484.426	-154.28
484.636	-314.02
484.845	165.2
485.054	-199.34
485.263	87.38
485.472	-275.11
485.682	517.45
485.891	171.35
486.1	-258.73
486.309	-250.53
486.518	267.6
486.727	390.48
486.936	-318.12
487.146	-105.13
487.355	437.58
487.564	-185
487.773	-221.86
487.982	-176.81
488.191	-86.7
488.4	40.28
488.609	-285.35
488.818	-168.62
489.027	523.6
489.236	384.34
489.445	-248.49
489.654	-297.64
489.863	275.79
490.072	87.38
490.281	140.63
490.49	-146.09
490.698	318.8
490.907	408.91
491.116	-168.62
491.325	-357.03
491.534	402.77
491.743	159.06
491.952	-158.38
492.16	-199.34
492.369	179.54
492.578	228.69
492.787	-146.09
492.996	-285.35
493.204	-76.46
493.413	531.79
493.622	-397.99
493.831	-373.41
494.039	353.62
494.248	-139.94
494.457	-307.88
494.665	-379.56
494.874	265.55
495.083	511.31
495.291	-205.48
495.5	-293.54
495.709	277.84
495.917	185.68
496.126	-156.33
496.335	-238.25
496.543	-53.93
496.752	167.25
496.96	-45.74
497.169	-320.17
497.377	87.38
497.586	335.18
497.794	-84.65
498.003	-357.03
498.211	32.08
498.42	439.63
498.628	-60.07
498.837	-316.07
499.045	167.25
499.254	122.2
499.462	-230.06
499.671	-289.45
499.879	343.38
500.087	318.8
500.296	-252.58
500.504	-230.06
500.713	144.72
500.921	556.36
501.129	-271.01
501.338	-219.82
501.546	136.53
501.754	130.39
501.962	-215.72
502.171	-287.4
502.379	79.19
502.587	552.27
502.795	-174.76
503.004	-230.06
503.212	52.56
503.42	257.36
503.628	-248.49
503.837	-70.31
504.045	279.89
504.253	363.86
504.461	-242.34
504.669	-412.32
504.877	150.87
505.085	372.05
505.294	-342.69
505.502	-62.12
505.71	122.2
505.918	275.79
506.126	-178.86
506.334	-275.11
506.542	-29.35
506.75	216.4
506.958	-98.99
507.166	-164.52
507.374	-2.73
507.582	556.36
507.79	-162.47
507.998	-275.11
508.206	111.96
508.414	109.91
508.622	-144.04
508.83	-168.62
509.037	392.53
509.245	40.28
509.453	-289.45
509.661	-236.2
509.869	212.31
510.077	87.38
510.285	-129.7
510.492	-449.19
510.7	601.42
510.908	-45.74
511.116	-285.35
511.324	-197.29
511.531	9.56
511.739	62.8
511.947	-146.09
512.155	68.95
512.362	136.53
512.57	-166.57
512.778	-225.96
512.985	-361.13
513.193	339.28
513.401	443.73
513.608	-148.14
513.816	-256.68
514.024	240.98
514.231	318.8
514.439	-180.9
514.646	-262.82
514.854	216.4
515.061	288.08
515.269	-258.73
515.477	-264.87
515.684	-94.89
515.892	361.81
516.099	-311.97
516.307	-311.97
516.514	202.07
516.722	445.77
516.929	-248.49
517.136	-246.44
517.344	339.28
517.551	165.2
517.759	-285.35
517.966	-166.57
518.173	19.8
518.381	23.89
518.588	-135.85
518.796	-250.53
519.003	195.92
519.21	71
519.418	-213.67
519.625	-64.17
519.832	101.72
520.039	185.68
520.247	-393.89
520.454	-197.29
520.661	230.74
520.868	224.59
521.076	-213.67
521.283	-94.89
521.49	662.86
521.697	202.07
521.904	-174.76
522.112	-193.19
522.319	294.22
522.526	107.86
522.733	-338.6
522.94	-303.78
523.147	95.57
523.354	236.88
523.561	-344.74
523.768	-152.23
523.975	302.42
524.183	97.62
524.39	-131.75
524.597	-336.55
524.804	32.08
525.011	-117.42
525.218	-205.48
525.425	-203.43
525.632	351.57
525.838	-101.03
526.045	-242.34
526.252	-338.6
526.459	1135.94
526.666	826.7
526.873	-268.97
527.08	-191.14
527.287	445.77
527.494	339.28
527.701	-330.41
527.907	-266.92
528.114	187.73
528.321	27.99
528.528	-191.14
528.735	-316.07
528.941	-19.11
529.148	-19.11
529.355	-150.18
529.562	-264.87
529.768	537.93
529.975	56.66
530.182	-176.81
530.388	-250.53
530.595	290.13
530.802	-158.38
531.008	-25.26
531.215	-242.34
531.422	480.59
531.628	765.26
531.835	-207.53
532.042	-84.65
532.248	-15.02
532.455	142.68
532.661	-258.73
532.868	-281.25
533.074	208.21
533.281	347.47
533.487	-131.75
533.694	-320.17
533.9	-195.24
534.107	228.69
534.313	-240.29
534.52	-293.54
534.726	247.12
534.933	576.84
535.139	-244.39
535.345	-371.36
535.552	101.72
535.758	60.76
535.965	-92.84
536.171	-146.09
536.377	238.93
536.584	353.62
536.79	-180.9
536.996	-176.81
537.203	193.87
537.409	163.15
537.615	-258.73
537.821	-86.7
538.028	249.17
538.234	263.51
538.44	-260.77
538.646	-135.85
538.853	316.75
539.059	54.61
539.265	163.15
539.471	-449.19
539.677	294.22
539.883	3.41
540.09	-176.81
540.296	218.45
540.502	77.14
540.708	-29.35
540.914	-162.47
541.12	-195.24
541.326	232.79
541.532	44.37
541.738	-129.7
541.944	-144.04
542.15	290.13
542.356	32.08
542.562	-234.15
542.768	-117.42
542.974	683.34
543.18	603.47
543.386	-172.71
543.592	-432.8
543.798	425.29
544.004	359.76
544.21	-234.15
544.415	-115.37
544.621	87.38
544.827	269.65
545.033	-320.17
545.239	40.28
545.445	-166.57
545.651	208.21
545.856	-234.15
546.062	-252.58
546.268	-62.12
546.474	40.28
546.679	-144.04
546.885	-123.56
547.091	11.61
547.297	617.8
547.502	-152.23
547.708	-271.01
547.914	-15.02
548.119	212.31
548.325	-230.06
548.531	-258.73
548.736	482.64
548.942	-70.31
549.147	-287.4
549.353	5.46
549.559	296.27
549.764	175.44
549.97	-217.77
550.175	-197.29
550.381	245.07
550.586	11.61
550.792	-129.7
550.997	-127.66
551.203	161.11
551.408	220.5
551.614	-258.73
551.819	-303.78
552.025	527.69
552.23	542.03
552.435	-291.49
552.641	-92.84
552.846	-82.6
553.052	427.34
553.257	-60.07
553.462	-240.29
553.668	-123.56
553.873	396.62
554.078	-150.18
554.283	-283.3
554.489	103.76
554.694	206.16
554.899	-191.14
555.105	-78.51
555.31	179.54
555.515	236.88
555.72	-109.22
555.925	-289.45
556.131	240.98
556.336	-62.12
556.541	-217.77
556.746	-320.17
556.951	439.63
557.156	499.02
557.361	-86.7
557.567	-98.99
557.772	617.8
557.977	320.85
558.182	-215.72
558.387	-205.48
558.592	50.52
558.797	437.58
559.002	-148.14
559.207	-43.69
559.412	142.68
559.617	582.99
559.822	-217.77
560.027	-115.37
560.232	208.21
560.437	329.04
560.642	-328.36
560.847	-174.76
561.051	175.44
561.256	157.01
561.461	-27.31
561.666	-283.3
561.871	167.25
562.076	216.4
562.281	-150.18
562.485	-295.59
562.69	288.08
562.895	355.66
563.1	-170.66
563.305	-193.19
563.509	441.68
563.714	615.76
563.919	-234.15
564.123	-162.47
564.328	101.72
564.533	478.54
564.737	-86.7
564.942	-152.23
565.147	451.92
565.351	638.28
565.556	11.61
565.761	-209.58
565.965	144.72
566.17	-55.98
566.374	-135.85
566.579	-266.92
566.784	146.77
566.988	27.99
567.193	-314.02
567.397	-160.42
567.602	-260.77
567.806	161.11
568.011	-166.57
568.215	-19.11
568.42	58.71
568.624	46.42
568.828	-258.73
569.033	-64.17
569.237	283.99
569.442	347.47
569.646	-303.78
569.85	-107.18
570.055	71
570.259	183.63
570.463	50.52
570.668	-146.09
570.872	42.32
571.076	60.76
571.281	-29.35
571.485	15.7
571.689	161.11
571.893	361.81
572.098	-51.88
572.302	-144.04
572.506	263.51
572.71	175.44
572.914	-39.59
573.119	-115.37
573.323	490.83
573.527	425.29
573.731	-189.1
573.935	-135.85
574.139	290.13
574.343	101.72
574.547	-178.86
574.751	-158.38
574.955	523.6
575.159	376.14
575.364	-53.93
575.568	-258.73
575.772	142.68
575.976	496.97
576.18	-96.94
576.383	-322.21
576.587	445.77
576.791	249.17
576.995	-303.78
577.199	-385.7
577.403	398.67
577.607	456.01
577.811	-199.34
578.015	32.08
578.219	226.64
578.422	322.9
578.626	-105.13
578.83	79.19
579.034	415.06
579.238	183.63
579.442	-146.09
579.645	259.41
579.849	185.68
580.053	216.4
580.257	-90.79
580.46	36.18
580.664	439.63
580.868	318.8
581.071	83.28
581.275	34.13
581.479	-170.66
581.682	406.86
581.886	-92.84
582.09	-37.55
582.293	329.04
582.497	437.58
582.7	-6.83
582.904	-158.38
583.107	185.68
583.311	101.72
583.515	-6.83
583.718	-78.51
583.922	240.98
584.125	687.43
584.329	-178.86
584.532	152.92
584.735	443.73
584.939	259.41
585.142	-195.24
585.346	-156.33
585.549	326.99
585.753	85.33
585.956	-53.93
586.159	-19.11
586.363	613.71
586.566	318.8
586.769	-105.13
586.973	-101.03
587.176	370
587.379	480.59
587.582	144.72
587.786	101.72
587.989	118.1
588.192	834.89
588.395	-12.97
588.599	234.83
588.802	367.95
589.005	410.96
589.208	-29.35
589.411	-37.55
589.615	505.17
589.818	644.43
590.021	130.39
590.224	40.28
590.427	410.96
590.63	415.06
590.833	-205.48
591.036	-135.85
591.239	142.68
591.442	296.27
591.645	228.69
591.848	-80.55
592.051	288.08
592.254	396.62
592.457	-82.6
592.66	1.37
592.863	226.64
593.066	320.85
593.269	-90.79
593.472	79.19
593.675	-17.07
593.878	435.53
594.081	75.09
594.284	-150.18
594.486	392.53
594.689	290.13
594.892	56.66
595.095	-45.74
595.298	316.75
595.5	204.11
595.703	19.8
595.906	46.42
596.109	515.41
596.311	425.29
596.514	-254.63
596.717	-45.74
596.92	523.6
597.122	333.14
597.325	-250.53
597.528	-94.89
597.73	605.52
597.933	240.98
598.136	-139.94
598.338	-215.72
598.541	359.76
598.743	529.74
598.946	-62.12
599.148	5.46
599.351	480.59
599.554	546.13
599.756	79.19
599.959	-19.11
600.161	531.79
600.363	849.22
600.566	197.97
600.768	-41.64
600.971	535.89
601.173	429.39
601.376	25.94
601.578	105.81
601.78	339.28
601.983	843.08
602.185	-98.99
602.388	197.97
602.59	292.18
602.792	163.15
602.995	228.69
603.197	-39.59
603.399	550.22
603.601	302.42
603.804	75.09
604.006	-2.73
604.208	253.27
604.41	-121.51
604.613	187.73
604.815	-64.17
605.017	828.74
605.219	83.28
605.421	353.62
605.623	1.37
605.826	599.37
606.028	656.72
606.23	19.8
606.432	56.66
606.634	732.49
606.836	613.71
607.038	-117.42
607.24	152.92
607.442	394.58
607.644	281.94
607.846	126.29
608.048	30.04
608.25	697.67
608.452	97.62
608.654	60.76
608.856	-205.48
609.058	230.74
609.26	458.06
609.462	226.64
609.664	93.52
609.866	791.88
610.067	517.45
610.269	204.11
610.471	48.47
610.673	214.35
610.875	470.35
611.077	-111.27
611.278	118.1
611.48	339.28
611.682	818.5
611.884	179.54
612.085	103.76
612.287	130.39
612.489	486.73
612.69	-98.99
612.892	105.81
613.094	525.65
613.295	439.63
613.497	-2.73
613.699	36.18
613.9	703.82
614.102	587.08
614.304	138.58
614.505	-29.35
614.707	273.75
614.908	337.23
615.11	-47.79
615.311	128.34
615.513	480.59
615.714	554.32
615.916	-12.97
616.117	169.3
616.319	357.71
616.52	490.83
616.722	81.24
616.923	79.19
617.124	613.71
617.326	494.93
617.527	220.5
617.729	294.22
617.93	595.28
618.131	445.77
618.333	38.23
618.534	107.86
618.735	200.02
618.937	703.82
619.138	-98.99
619.339	-6.83
619.54	392.53
619.742	265.55
619.943	267.6
620.144	195.92
620.345	556.36
620.546	623.95
620.748	105.81
620.949	126.29
621.15	386.38
621.351	544.08
621.552	161.11
621.753	-113.32
621.954	66.9
622.155	939.34
622.356	-12.97
622.558	329.04
622.759	367.95
622.96	925
623.161	173.39
623.362	245.07
623.563	406.86
623.764	415.06
623.965	187.73
624.166	361.81
624.366	331.09
624.567	365.9
624.768	-58.03
624.969	167.25
625.17	363.86
625.371	523.6
625.572	365.9
625.773	42.32
625.973	623.95
626.174	539.98
626.375	240.98
626.576	243.03
626.777	539.98
626.977	879.94
627.178	159.06
627.379	281.94
627.58	437.58
627.78	499.02
627.981	251.22
628.182	380.24
628.382	785.74
628.583	122.2
628.784	-4.78
628.984	331.09
629.185	585.04
629.386	611.66
629.586	302.42
629.787	25.94
629.987	591.18
630.188	408.91
630.388	236.88
630.589	222.55
630.79	1068.36
630.99	486.73
631.191	316.75
631.391	376.14
631.591	658.76
631.792	912.71
631.992	421.2
632.193	195.92
632.393	847.18
632.594	556.36
632.794	191.83
632.994	382.29
633.195	423.25
633.395	488.78
633.595	193.87
633.796	519.5
633.996	320.85
634.196	781.64
634.397	142.68
634.597	261.46
634.797	355.66
634.997	912.71
635.198	501.07
635.398	124.24
635.598	572.75
635.798	847.18
635.998	703.82
636.199	114
636.399	355.66
636.599	294.22
636.799	232.79
636.999	537.93
637.199	712.01
637.399	779.59
637.599	240.98
637.799	365.9
637.999	413.01
638.199	879.94
638.399	146.77
638.599	234.83
638.799	720.2
638.999	951.62
639.199	417.1
639.399	351.57
639.599	867.66
639.799	286.03
639.999	165.2
640.199	138.58
640.399	585.04
640.599	617.8
640.799	339.28
640.998	525.65
641.198	785.74
641.398	701.77
641.598	480.59
641.798	324.94
641.997	1514.81
642.197	490.83
642.397	406.86
642.597	300.37
642.796	724.3
642.996	871.75
643.196	439.63
643.395	202.07
643.595	666.96
643.795	210.26
643.994	298.32
644.194	413.01
644.394	757.07
644.593	701.77
644.793	173.39
644.992	413.01
645.192	777.55
645.392	181.59
645.591	507.21
645.791	380.24
645.99	685.39
646.19	490.83
646.389	423.25
646.589	447.82
646.788	830.79
646.987	769.35
647.187	603.47
647.386	609.61
647.586	593.23
647.785	802.12
647.984	427.34
648.184	466.25
648.383	384.34
648.582	601.42
648.782	429.39
648.981	599.37
649.18	310.61
649.38	669
649.579	333.14
649.778	304.46
649.977	793.93
650.177	752.97
650.376	300.37
650.575	388.43
650.774	947.53
650.973	449.87
651.173	167.25
651.372	521.55
651.571	689.48
651.77	781.64
651.969	390.48
652.168	621.9
652.367	529.74
652.566	816.46
652.765	351.57
652.964	681.29
653.163	1105.22
653.362	658.76
653.561	443.73
653.76	429.39
653.959	515.41
654.158	843.08
654.357	634.19
654.556	396.62
654.755	884.04
654.954	824.65
655.153	486.73
655.352	531.79
655.551	937.29
655.749	484.69
655.948	433.49
656.147	574.8
656.346	773.45
656.545	593.23
656.743	503.12
656.942	576.84
657.141	685.39
657.34	456.01
657.538	519.5
657.737	511.31
657.936	546.13
658.135	879.94
658.333	464.21
658.532	544.08
658.731	1199.43
658.929	982.34
659.128	845.13
659.326	396.62
659.525	992.58
659.724	728.39
659.922	210.26
660.121	453.97
660.319	757.07
660.518	404.82
660.716	447.82
660.915	474.45
661.113	1051.97
661.312	472.4
661.51	693.58
661.709	357.71
661.907	916.81
662.105	1166.66
662.304	527.69
662.502	515.41
662.701	1060.17
662.899	693.58
663.097	857.42
663.296	474.45
663.494	976.2
663.692	1154.37
663.891	480.59
664.089	417.1
664.287	953.67
664.485	1105.22
664.684	415.06
664.882	609.61
665.08	716.11
665.278	838.98
665.476	363.86
665.675	951.62
665.873	1330.5
666.071	1144.13
666.269	525.65
666.467	769.35
666.665	832.84
666.863	714.06
667.061	689.48
667.259	423.25
667.457	795.98
667.655	988.49
667.853	380.24
668.051	693.58
668.249	601.42
668.447	982.34
668.645	490.83
668.843	789.83
669.041	1049.93
669.239	683.34
669.437	744.78
669.635	724.3
669.833	775.5
670.031	1051.97
670.229	607.56
670.426	677.2
670.624	822.6
670.822	679.24
671.02	599.37
671.218	703.82
671.415	574.8
671.613	906.57
671.811	738.63
672.009	609.61
672.206	1008.97
672.404	888.14
672.602	908.62
672.799	855.37
672.997	918.86
673.195	1150.28
673.392	761.16
673.59	410.96
673.788	1017.16
673.985	404.82
674.183	742.73
674.38	634.19
674.578	1051.97
674.775	726.35
674.973	537.93
675.17	638.28
675.368	1264.96
675.565	996.68
675.763	666.96
675.96	595.28
676.158	1232.19
676.355	865.61
676.553	658.76
676.75	640.33
676.947	941.38
677.145	838.98
677.342	841.03
677.539	828.74
677.737	963.91
677.934	1486.14
678.131	810.31
678.329	671.05
678.526	1320.26
678.723	1054.02
678.92	795.98
679.118	734.54
679.315	671.05
679.512	1264.96
679.709	732.49
679.906	777.55
680.104	1244.48
680.301	939.34
680.498	609.61
680.695	644.43
680.892	775.5
681.089	689.48
681.286	732.49
681.483	576.84
681.68	1088.84
681.877	1082.69
682.075	744.78
682.272	961.86
682.469	1101.12
682.665	830.79
682.862	736.59
683.059	548.17
683.256	1094.98
683.453	1013.06
683.65	808.27
683.847	699.72
684.044	976.2
684.241	650.57
684.438	822.6
684.635	611.66
684.831	1436.99
685.028	1414.46
685.225	742.73
685.422	929.1
685.619	970.05
685.815	978.25
686.012	830.79
686.209	847.18
686.405	748.87
686.602	1183.04
686.799	709.96
686.996	798.03
687.192	767.31
687.389	1377.6
687.586	709.96
687.782	818.5
687.979	1346.88
688.175	1338.69
688.372	830.79
688.568	765.26
688.765	949.57
688.962	1199.43
689.158	875.85
689.355	554.32
689.551	1142.08
689.748	869.7
689.944	953.67
690.14	650.57
690.337	1267.01
690.533	849.22
690.73	1019.21
690.926	822.6
691.123	1103.17
691.319	978.25
691.515	560.46
691.712	881.99
691.908	1312.07
692.104	1058.12
692.301	986.44
692.497	765.26
692.693	1191.24
692.889	1185.09
693.086	1092.93
693.282	652.62
693.478	965.96
693.674	1436.99
693.87	798.03
694.067	679.24
694.263	1234.24
694.459	912.71
694.655	1064.26
694.851	1047.88
695.047	1187.14
695.243	1240.39
695.439	937.29
695.635	750.92
695.831	1178.95
696.027	1158.47
696.224	818.5
696.42	1242.43
696.615	1336.64
696.811	1258.82
697.007	693.58
697.203	896.33
697.399	1201.48
697.595	1363.26
697.791	820.55
697.987	1051.97
698.183	775.5
698.379	902.47
698.575	894.28
698.77	978.25
698.966	1367.36
699.162	1338.69
699.358	996.68
699.554	1002.82
699.749	1350.98
699.945	1291.59
700.141	982.34
700.337	1039.69
700.532	1121.6
700.728	1027.4
700.924	916.81
701.119	744.78
701.315	1195.33
701.511	1076.55
701.706	963.91
701.902	687.43
702.097	1125.7
702.293	1342.78
702.489	1031.49
702.684	888.14
702.88	1158.47
703.075	1039.69
703.271	996.68
703.466	855.37
703.662	1127.75
703.857	1295.68
704.053	875.85
704.248	869.7
704.443	1322.31
704.639	1318.21
704.834	947.53
705.03	892.23
705.225	1342.78
705.42	1555.77
705.616	1013.06
705.811	888.14
706.006	1162.56
706.202	1185.09
706.397	1158.47
706.592	841.03
706.787	1297.73
706.983	1312.07
707.178	1142.08
707.373	1097.03
707.568	1336.64
707.763	1477.95
707.959	1015.11
708.154	916.81
708.349	1170.76
708.544	1367.36
708.739	1232.19
708.934	730.44
709.129	1434.94
709.324	1504.57
709.519	963.91
709.714	963.91
709.909	1498.43
710.104	1330.5
710.299	1008.97
710.494	1113.41
710.689	1361.22
710.884	1252.67
711.079	1109.32
711.274	1242.43
711.469	1279.3
711.664	1303.87
711.859	920.9
712.054	1088.84
712.249	1422.66
712.443	1367.36
712.638	836.94
712.833	933.19
713.028	1299.78
713.223	1195.33
713.417	1344.83
713.612	1101.12
713.807	1430.85
714.002	1787.19
714.196	1252.67
714.391	968.01
714.586	1465.66
714.78	1289.54
714.975	1056.07
715.17	1031.49
715.364	1191.24
715.559	1473.85
715.754	752.97
715.948	970.05
716.143	1840.44
716.337	1330.5
716.532	1398.08
716.726	990.53
716.921	1527.1
717.115	1643.84
717.31	918.86
717.504	1647.93
717.699	1191.24
717.893	1516.86
718.088	1068.36
718.282	896.33
718.476	1281.35
718.671	1346.88
718.865	1092.93
719.059	1207.62
719.254	1244.48
719.448	1682.75
719.642	1303.87
719.837	920.9
720.031	1484.09
720.225	1576.25
720.419	1240.39
720.614	1051.97
720.808	1551.68
721.002	1281.35
721.196	1094.98
721.39	1129.8
721.585	1690.94
721.779	1498.43
721.973	1086.79
722.167	953.67
722.361	1342.78
722.555	1660.22
722.749	1084.74
722.943	1023.3
723.137	1076.55
723.331	1398.08
723.525	1197.38
723.719	1109.32
723.913	1514.81
724.107	1621.31
724.301	974.15
724.495	1133.89
724.689	1766.71
724.883	1574.21
725.077	1037.64
725.271	1150.28
725.465	1709.37
725.659	1297.73
725.853	1150.28
726.046	1099.08
726.24	1260.87
726.434	1502.53
726.628	1166.66
726.822	1154.37
727.015	1594.69
727.209	1709.37
727.403	1181
727.596	937.29
727.79	1590.59
727.984	1574.21
728.177	1201.48
728.371	1164.61
728.565	1576.25
728.758	1135.94
728.952	1002.82
729.146	1226.05
729.339	1688.89
729.533	1267.01
729.726	1322.31
729.92	1035.59
730.113	1695.04
730.307	1563.97
730.5	1119.56
730.694	1152.32
730.887	1328.45
731.081	1635.64
731.274	994.63
731.468	1267.01
731.661	1340.74
731.854	1361.22
732.048	1209.67
732.241	1033.54
732.435	1256.77
732.628	1547.58
732.821	1219.91
733.014	1127.75
733.208	1273.15
733.401	1535.29
733.594	1305.92
733.788	1215.81
733.981	1729.85
734.174	1531.2
734.367	1250.63
734.56	1406.27
734.754	1641.79
734.947	1527.1
735.14	1230.15
735.333	1228.1
735.526	1832.25
735.719	1197.38
735.912	1113.41
736.105	1127.75
736.298	1629.5
736.491	1350.98
736.684	1191.24
736.877	1242.43
737.07	1514.81
737.263	1779
737.456	1113.41
737.649	1090.88
737.842	1346.88
738.035	1502.53
738.228	1338.69
738.421	1441.09
738.614	1809.72
738.807	1664.32
739	1086.79
739.192	1199.43
739.385	1606.97
739.578	1662.27
739.771	1508.67
739.964	1201.48
740.156	1592.64
740.349	1502.53
740.542	1373.5
740.735	1211.71
740.927	1289.54
741.12	1301.83
741.313	1127.75
741.505	1363.26
741.698	1600.83
741.891	1572.16
742.083	1453.38
742.276	1299.78
742.468	1510.72
742.661	1547.58
742.854	1297.73
743.046	1226.05
743.239	1936.7
743.431	1389.89
743.624	1299.78
743.816	1039.69
744.009	1512.77
744.201	1707.32
744.393	1391.94
744.586	1326.4
744.778	1717.56
744.971	1563.97
745.163	1398.08
745.355	1457.47
745.548	1496.38
745.74	1428.8
745.932	1381.7
746.125	1183.04
746.317	2182.45
746.509	1535.29
746.702	1381.7
746.894	1361.22
747.086	1643.84
747.278	1858.87
747.471	1535.29
747.663	1496.38
747.855	1576.25
748.047	1985.85
748.239	1299.78
748.431	1211.71
748.623	2053.43
748.815	2080.05
749.008	1365.31
749.2	1297.73
749.392	1826.11
749.584	1731.9
749.776	1404.22
749.968	1471.81
750.16	2028.85
750.352	1590.59
750.544	1504.57
750.736	1264.96
750.928	1731.9
751.12	1584.45
751.311	1361.22
751.503	1600.83
751.695	1641.79
751.887	1690.94
752.079	1148.23
752.271	1396.03
752.463	2438.45
752.654	1785.15
752.846	1514.81
753.038	1342.78
753.23	1443.14
753.421	1748.28
753.613	1422.66
753.805	1545.53
753.997	1832.25
754.188	1842.49
754.38	1342.78
754.572	1441.09
754.763	1482.05
754.955	1709.37
755.146	1473.85
755.338	1533.25
755.53	1744.19
755.721	1709.37
755.913	1256.77
756.104	1264.96
756.296	1611.07
756.487	1830.2
756.679	1232.19
756.87	1355.07
757.062	1682.75
757.253	1899.83
757.445	1365.31
757.636	1471.81
757.827	1639.74
758.019	2323.76
758.21	1271.11
758.401	1295.68
758.593	2133.3
758.784	1850.68
758.975	1193.28
759.167	1443.14
759.358	1666.36
759.549	1996.09
759.74	1273.15
759.932	1406.27
760.123	2002.23
760.314	1529.15
760.505	1592.64
760.696	1371.46
760.888	2075.96
761.079	1518.91
761.27	1277.25
761.461	1404.22
761.652	2043.19
761.843	1510.72
762.034	1512.77
762.225	1633.6
762.416	1699.13
762.607	1623.36
762.798	1539.39
762.989	1404.22
763.18	2395.44
763.371	1527.1
763.562	1396.03
763.753	1383.74
763.944	1908.02
764.135	1944.89
764.326	1576.25
764.517	1322.31
764.708	1703.23
764.899	1936.7
765.089	1346.88
765.28	1367.36
765.471	1783.1
765.662	1924.41
765.853	1547.58
766.043	1215.81
766.234	1869.11
766.425	1858.87
766.615	1473.85
766.806	1230.15
766.997	1994.04
767.187	1760.57
767.378	1430.85
767.569	1289.54
767.759	1940.79
767.95	1744.19
768.141	1572.16
768.331	1506.62
768.522	1684.8
768.712	1826.11
768.903	1326.4
769.093	1475.9
769.284	2149.68
769.474	1727.8
769.665	1244.48
769.855	1199.43
770.046	1803.58
770.236	1680.7
770.426	1543.49
770.617	1318.21
770.807	1766.71
770.998	1750.33
771.188	1631.55
771.378	1383.74
771.569	1879.35
771.759	1797.43
771.949	1264.96
772.139	1125.7
772.33	1783.1
772.52	2164.02
772.71	1467.71
772.9	1295.68
773.09	2096.44
773.281	2092.34
773.471	1422.66
773.661	1422.66
773.851	1883.45
774.041	1666.36
774.231	1486.14
774.421	1641.79
774.611	2030.9
774.802	1709.37
774.992	1633.6
775.182	1402.18
775.372	1789.24
775.562	1944.89
775.752	1496.38
775.942	1398.08
776.131	1987.89
776.321	1908.02
776.511	1525.05
776.701	1428.8
776.891	2004.28
777.081	1606.97
777.271	1566.01
777.461	1404.22
777.651	2010.42
777.84	2020.66
778.03	1623.36
778.22	1406.27
778.41	2071.86
778.599	1477.95
778.789	1492.29
778.979	1424.7
779.169	1891.64
779.358	1701.18
779.548	1695.04
779.738	1441.09
779.927	1893.69
780.117	1496.38
780.307	1549.63
780.496	1322.31
780.686	1819.96
780.875	2151.73
781.065	1455.42
781.254	1469.76
781.444	1797.43
781.633	1871.16
781.823	1498.43
782.012	1326.4
782.202	1592.64
782.391	1715.52
782.581	1260.87
782.77	1656.12
782.96	1959.22
783.149	1643.84
783.338	1543.49
783.528	1275.2
783.717	1959.22
783.906	2080.05
784.096	1719.61
784.285	1350.98
784.474	1740.09
784.663	1686.84
784.853	1412.42
785.042	1555.77
785.231	1766.71
785.42	2084.15
785.61	1600.83
785.799	1447.23
785.988	1656.12
786.177	1703.23
786.366	1527.1
786.555	1723.71
786.744	1953.08
786.933	1764.67
787.122	1467.71
787.312	1469.76
787.501	1504.57
787.69	1832.25
787.879	1457.47
788.068	1375.55
788.257	1459.52
788.445	1721.66
788.634	1609.02
788.823	1359.17
789.012	2319.67
789.201	2045.24
789.39	1543.49
789.579	1400.13
789.768	1721.66
789.957	1666.36
790.145	1480
790.334	1310.02
790.523	1641.79
790.712	1707.32
790.9	1506.62
791.089	1346.88
791.278	2032.95
791.467	1865.02
791.655	1805.63
791.844	2032.95
792.033	1658.17
792.221	1674.56
792.41	1486.14
792.599	1316.16
792.787	1961.27
792.976	2026.81
793.164	1436.99
793.353	1402.18
793.541	1957.18
793.73	2108.73
793.918	1594.69
794.107	1512.77
794.295	1680.7
794.484	1617.21
794.672	1482.05
794.861	1510.72
795.049	1813.82
795.238	2176.31
795.426	1453.38
795.614	1576.25
795.803	1776.95
795.991	2190.64
796.179	1547.58
796.368	1480
796.556	2039.09
796.744	1543.49
796.932	1572.16
797.121	1350.98
797.309	1889.59
797.497	1994.04
797.685	1537.34
797.874	1457.47
798.062	1742.14
798.25	2010.42
798.438	1418.56
798.626	1541.44
798.814	1883.45
799.002	2301.23
799.19	1740.09
799.378	1764.67
799.566	2067.77
799.755	2231.6
799.943	1791.29
800.131	1426.75
800.318	1869.11
800.506	1916.22
800.694	1543.49
800.882	1781.05
801.07	2190.64
801.258	1783.1
801.446	1545.53
801.634	1535.29
801.822	1862.97
802.01	1822.01
802.197	1529.15
802.385	1690.94
802.573	1922.36
802.761	1697.08
802.949	1580.35
803.136	1471.81
803.324	2084.15
803.512	1832.25
803.699	1692.99
803.887	1322.31
804.075	2180.4
804.262	1602.88
804.45	1516.86
804.638	1766.71
804.825	1670.46
805.013	1795.39
805.201	1609.02
805.388	1496.38
805.576	1865.02
805.763	2338.1
805.951	1676.6
806.138	1725.76
806.326	2387.25
806.513	2030.9
806.701	1645.88
806.888	1586.49
807.075	1977.66
807.263	2383.15
807.45	1527.1
807.638	1783.1
807.825	2338.1
808.012	2227.51
808.2	1703.23
808.387	1822.01
808.574	1989.94
808.761	2274.61
808.949	1744.19
809.136	1867.06
809.323	1891.64
809.51	1830.2
809.698	1922.36
809.885	1860.92
810.072	2127.16
810.259	2223.41
810.446	1699.13
810.633	1686.84
810.82	2282.8
811.008	2336.05
811.195	1957.18
811.382	1772.86
811.569	2092.34
811.756	1641.79
811.943	1871.16
812.13	1725.76
812.317	1889.59
812.504	1928.5
812.691	1879.35
812.878	1889.59
813.064	2340.15
813.251	2151.73
813.438	1705.28
813.625	1918.26
813.812	2018.61
813.999	2047.29
814.186	1936.7
814.372	1836.35
814.559	2114.87
814.746	2446.64
814.933	1830.2
815.12	1951.03
815.306	1899.83
815.493	1822.01
815.68	1731.9
815.866	1850.68
816.053	2360.63
816.24	2544.94
816.426	1842.49
816.613	1584.45
816.799	2186.55
816.986	2364.72
817.173	1811.77
817.359	1828.15
817.546	2176.31
817.732	1824.06
817.919	1469.76
818.105	1893.69
818.292	2041.14
818.478	2178.36
818.665	2043.19
818.851	1715.52
819.037	2592.05
819.224	2125.11
819.41	1826.11
819.597	1750.33
819.783	2448.69
819.969	2106.68
820.156	1955.13
820.342	1735.99
820.528	2878.76
820.714	2090.29
820.901	2207.03
821.087	1879.35
821.273	2479.41
821.459	2075.96
821.646	1799.48
821.832	1627.45
822.018	2108.73
822.204	2198.84
822.39	2012.47
822.576	1742.14
822.762	2266.42
822.948	2080.05
823.134	2170.16
823.32	1883.45
823.507	1969.46
823.693	2159.92
823.879	2231.6
824.065	1826.11
824.25	2194.74
824.436	1871.16
824.622	1746.23
824.808	1819.96
824.994	1989.94
825.18	1854.78
825.366	1776.95
825.552	1828.15
825.738	2032.95
825.923	2405.68
826.109	1948.98
826.295	1699.13
826.481	1899.83
826.667	1996.09
826.852	1887.54
827.038	1707.32
827.224	2301.23
827.409	2452.78
827.595	1813.82
827.781	1994.04
827.966	2356.53
828.152	2321.71
828.338	1803.58
828.523	1799.48
828.709	1961.27
828.894	2473.26
829.08	1932.6
829.266	1781.05
829.451	1991.99
829.637	2280.75
829.822	1948.98
830.008	1846.59
830.193	2424.11
830.378	2491.7
830.564	1981.75
830.749	1760.57
830.935	2315.57
831.12	2346.29
831.305	1719.61
831.491	1924.41
831.676	1924.41
831.861	2290.99
832.047	1830.2
832.232	1596.73
832.417	2290.99
832.602	2026.81
832.788	1774.91
832.973	1803.58
833.158	1924.41
833.343	2092.34
833.528	1875.26
833.714	1963.32
833.899	2243.89
834.084	2610.48
834.269	2086.2
834.454	1910.07
834.639	2368.82
834.824	2088.25
835.009	2014.52
835.194	1946.94
835.379	2348.34
835.564	2475.31
835.749	2063.67
835.934	1697.08
836.119	2331.95
836.304	2174.26
836.489	1895.74
836.674	2092.34
836.859	1989.94
837.044	2391.34
837.228	1883.45
837.413	1772.86
837.598	2202.93
837.783	2344.24
837.968	2010.42
838.152	1779
838.337	1666.36
838.522	2546.99
838.707	2299.19
838.891	1977.66
839.076	2217.27
839.261	2385.2
839.445	1926.46
839.63	2053.43
839.815	2452.78
839.999	1989.94
840.184	1844.54
840.368	1795.39
840.553	2387.25
840.737	2307.38
840.922	1754.43
841.106	1740.09
841.291	1899.83
841.475	2121.01
841.66	1862.97
841.844	1936.7
842.029	2845.99
842.213	1856.83
842.397	1801.53
842.582	1717.56
842.766	2397.49
842.951	2288.95
843.135	1922.36
843.319	1867.06
843.504	2159.92
843.688	2329.91
843.872	1803.58
844.056	1850.68
844.241	2266.42
844.425	2098.49
844.609	2059.57
844.793	1707.32
844.977	2352.43
845.161	2176.31
845.346	1781.05
845.53	1832.25
845.714	2055.48
845.898	2424.11
846.082	1703.23
846.266	1772.86
846.45	2123.06
846.634	2104.63
846.818	1817.91
847.002	1948.98
847.186	2297.14
847.37	1838.39
847.554	1733.95
847.738	1862.97
847.922	2153.78
848.106	2157.88
848.29	1856.83
848.473	1731.9
848.657	2346.29
848.841	2186.55
849.025	1873.21
849.209	1633.6
849.392	2321.71
849.576	2098.49
849.76	1606.97
849.944	2006.33
850.127	2610.48
850.311	1885.5
850.495	1609.02
850.678	1609.02
850.862	2389.3
851.046	2475.31
851.229	2041.14
851.413	1822.01
851.596	2139.44
851.78	2112.82
851.964	2016.57
852.147	1854.78
852.331	2938.15
852.514	2364.72
852.698	1955.13
852.881	1707.32
853.065	2295.09
853.248	1887.54
853.431	2018.61
853.615	2055.48
853.798	2829.61
853.982	2217.27
854.165	2096.44
854.348	1838.39
854.532	1893.69
854.715	1944.89
854.898	1842.49
855.081	1912.12
855.265	2417.97
855.448	2458.93
855.631	1803.58
855.814	1858.87
855.997	2456.88
856.181	2102.58
856.364	1908.02
856.547	1707.32
856.73	2161.97
856.913	2239.8
857.096	1701.18
857.279	1891.64
857.462	1981.75
857.645	2338.1
857.828	1965.37
858.011	2088.25
858.194	2047.29
858.377	2295.09
858.56	1756.47
858.743	1922.36
858.926	1883.45
859.109	2202.93
859.292	1805.63
859.475	1631.55
859.658	2374.96
859.841	2153.78
860.023	1748.28
860.206	1713.47
860.389	2059.57
860.572	2358.58
860.755	1807.67
860.937	1760.57
861.12	2100.53
861.303	2020.66
861.486	1930.55
861.668	1815.87
861.851	2161.97
862.034	2127.16
862.216	1973.56
862.399	1672.51
862.581	2172.21
862.764	2454.83
862.947	1854.78
863.129	1715.52
863.312	1858.87
863.494	2327.86
863.677	2071.86
863.859	1656.12
864.042	2235.7
864.224	2366.77
864.406	1881.4
864.589	1649.98
864.771	2110.77
864.954	1854.78
865.136	1746.23
865.318	1498.43
865.501	2342.19
865.683	1602.88
865.865	1813.82
866.048	1731.9
866.23	2207.03
866.412	2037.05
866.594	1641.79
866.777	1903.93
866.959	2108.73
867.141	1838.39
867.323	1940.79
867.505	2006.33
867.687	2006.33
867.869	2170.16
868.052	1809.72
868.234	1713.47
868.416	2157.88
868.598	2229.56
868.78	1822.01
868.962	1793.34
869.144	2299.19
869.326	2202.93
869.508	1752.38
869.69	1731.9
869.872	1928.5
870.054	2284.85
870.236	1705.28
870.417	1639.74
870.599	2164.02
870.781	2346.29
870.963	1996.09
871.145	1822.01
871.327	1838.39
871.508	2321.71
871.69	1783.1
871.872	1719.61
872.054	1998.13
872.235	2207.03
872.417	1813.82
872.599	1754.43
872.78	2577.71
872.962	2084.15
873.144	1611.07
873.325	1799.48
873.507	2415.92
873.689	2004.28
873.87	1713.47
874.052	2037.05
874.233	1981.75
874.415	2399.54
874.596	1697.08
874.778	1797.43
874.959	2121.01
875.141	2329.91
875.322	1887.54
875.503	1729.85
875.685	2264.37
875.866	1690.94
876.048	1676.6
876.229	1776.95
876.41	1955.13
876.592	2321.71
876.773	1727.8
876.954	1754.43
877.136	2407.73
877.317	2006.33
877.498	1625.4
877.679	1850.68
877.86	2182.45
878.042	2053.43
878.223	1729.85
878.404	2239.8
878.585	2430.26
878.766	2454.83
878.947	2118.97
879.128	2063.67
879.309	2290.99
879.49	2377.01
879.672	1905.98
879.853	1903.93
880.034	1948.98
880.215	2096.44
880.396	2006.33
880.576	1953.08
880.757	1998.13
880.938	2538.8
881.119	1918.26
881.3	1969.46
881.481	2080.05
881.662	3145
881.843	1912.12
882.023	1768.76
882.204	2264.37
882.385	2231.6
882.566	1977.66
882.747	1891.64
882.927	2223.41
883.108	2260.27
883.289	1934.65
883.469	2112.82
883.65	2245.94
883.831	2297.14
884.011	2123.06
884.192	1965.37
884.373	2434.35
884.553	2346.29
884.734	2143.54
884.914	2247.99
885.095	2999.59
885.275	2618.67
885.456	2319.67
885.636	1871.16
885.817	2321.71
885.997	2299.19
886.178	1975.61
886.358	2110.77
886.538	2301.23
886.719	3400.99
886.899	1920.31
887.08	2207.03
887.26	2528.56
887.44	2166.07
887.621	1871.16
887.801	2204.98
887.981	2932.01
888.161	2463.02
888.342	2196.79
888.522	2104.63
888.702	2573.61
888.882	2620.72
889.062	2264.37
889.242	1920.31
889.423	2653.48
889.603	2542.89
889.783	2178.36
889.963	1963.32
890.143	2540.85
890.323	2641.2
890.503	2100.53
890.683	2116.92
890.863	2450.74
891.043	2538.8
891.223	2250.04
891.403	2362.67
891.583	2501.94
891.763	2469.17
891.943	2252.08
892.122	2127.16
892.302	2460.98
892.482	2395.44
892.662	2147.64
892.842	2223.41
893.022	2532.65
893.201	2286.9
893.381	2381.11
893.561	2182.45
893.741	2503.98
893.92	2489.65
894.1	2188.6
894.28	2231.6
894.459	2575.66
894.639	2579.76
894.819	2239.8
894.998	2319.67
895.178	2530.61
895.357	2583.85
895.537	2135.35
895.716	2166.07
895.896	2358.58
896.075	2751.79
896.255	2266.42
896.434	1957.18
896.614	2665.77
896.793	2788.65
896.973	2442.54
897.152	2295.09
897.331	2639.15
897.511	2704.68
897.69	2008.37
897.87	2198.84
898.049	2692.4
898.228	2497.84
898.407	2391.34
898.587	2407.73
898.766	2254.13
898.945	2723.12
899.124	2454.83
899.304	2362.67
899.483	2528.56
899.662	3030.31
899.841	1981.75
900.02	2106.68
900.199	2618.67
900.378	2569.52
900.557	2250.04
900.737	2192.69
900.916	2573.61
901.095	2723.12
901.274	2438.45
901.453	2153.78
901.632	2420.02
901.811	2366.77
901.989	2182.45
902.168	2137.4
902.347	2815.27
902.526	2432.3
902.705	2207.03
902.884	2372.91
903.063	2706.73
903.242	2786.6
903.42	2174.26
903.599	2381.11
903.778	2684.2
903.957	2796.84
904.135	2411.82
904.314	2272.56
904.493	2452.78
904.672	2680.11
904.85	2211.12
905.029	2235.7
905.207	2704.68
905.386	3200.29
905.565	2186.55
905.743	2153.78
905.922	2299.19
906.1	2633.01
906.279	2065.72
906.457	2133.3
906.636	2323.76
906.814	2321.71
906.993	2153.78
907.171	2071.86
907.35	2702.64
907.528	2620.72
907.707	2342.19
907.885	2184.5
908.063	2833.71
908.242	2262.32
908.42	2184.5
908.598	1959.22
908.777	2610.48
908.955	2338.1
909.133	2237.75
909.311	1987.89
909.49	2374.96
909.668	2426.16
909.846	2284.85
910.024	2008.37
910.202	2317.62
910.38	2561.33
910.559	2043.19
910.737	1944.89
910.915	2544.94
911.093	2493.74
911.271	2118.97
911.449	2329.91
911.627	2561.33
911.805	2837.8
911.983	2112.82
912.161	2078.01
912.339	2575.66
912.517	2633.01
912.695	2262.32
912.872	2100.53
913.05	2157.88
913.228	2479.41
913.406	2176.31
913.584	2026.81
913.762	2506.03
913.939	2161.97
914.117	2108.73
914.295	1848.63
914.473	2442.54
914.65	2487.6
914.828	2088.25
915.006	2057.53
915.184	2059.57
915.361	2489.65
915.539	2174.26
915.716	2366.77
915.894	2473.26
916.072	2534.7
916.249	2342.19
916.427	2170.16
916.604	2037.05
916.782	2463.02
916.959	1822.01
917.137	2010.42
917.314	2377.01
917.492	2481.46
917.669	2200.88
917.847	2166.07
918.024	2534.7
918.201	2104.63
918.379	1991.99
918.556	2041.14
918.733	2600.24
918.911	2235.7
919.088	2264.37
919.265	1955.13
919.442	2383.15
919.62	2161.97
919.797	1928.5
919.974	1899.83
920.151	2170.16
920.328	2166.07
920.506	1848.63
920.683	2092.34
920.86	1903.93
921.037	2030.9
921.214	2026.81
921.391	1860.92
921.568	2534.7
921.745	2030.9
921.922	1985.85
922.099	1850.68
922.276	2473.26
922.453	2227.51
922.63	1899.83
922.807	2166.07
922.984	2202.93
923.161	2014.52
923.338	1910.07
923.514	1879.35
923.691	2116.92
923.868	2229.56
924.045	1936.7
924.222	1789.24
924.399	2049.33
924.575	2442.54
924.752	1953.08
924.929	1979.7
925.105	2293.04
925.282	1875.26
925.459	1791.29
925.635	1742.14
925.812	1959.22
925.989	1873.21
926.165	1813.82
926.342	1707.32
926.518	1877.3
926.695	2084.15
926.871	1785.15
927.048	1611.07
927.224	2286.9
927.401	1891.64
927.577	1770.81
927.754	1570.11
927.93	2290.99
928.107	2184.5
928.283	1697.08
928.459	1873.21
928.636	2069.81
928.812	1805.63
928.988	1563.97
929.165	1715.52
929.341	2043.19
929.517	1969.46
929.693	2022.71
929.87	1506.62
930.046	2071.86
930.222	1832.25
930.398	1666.36
930.574	1787.19
930.751	1942.84
930.927	1635.64
931.103	1719.61
931.279	1731.9
931.455	1686.84
931.631	1994.04
931.807	1531.2
931.983	1457.47
932.159	1572.16
932.335	1799.48
932.511	1723.71
932.687	1652.03
932.863	1908.02
933.039	1822.01
933.215	1500.48
933.391	1428.8
933.566	1738.04
933.742	1908.02
933.918	1563.97
934.094	1371.46
934.27	1686.84
934.445	1895.74
934.621	1490.24
934.797	1496.38
934.973	1838.39
935.148	1721.66
935.324	1295.68
935.5	1183.04
935.675	1922.36
935.851	1858.87
936.027	1363.26
936.202	1494.33
936.378	1695.04
936.553	1535.29
936.729	1776.95
936.904	1252.67
937.08	1260.87
937.255	1246.53
937.431	1117.51
937.606	1013.06
937.782	1361.22
937.957	1340.74
938.133	1150.28
938.308	1086.79
938.483	1281.35
938.659	1137.99
938.834	1156.42
939.009	961.86
939.185	1191.24
939.36	1039.69
939.535	851.27
939.71	1154.37
939.886	1338.69
940.061	1375.55
940.236	1101.12
940.411	925
940.586	1353.02
940.761	1277.25
940.937	963.91
941.112	779.59
941.287	1135.94
941.462	1111.36
941.637	771.4
941.812	961.86
941.987	1207.62
942.162	1056.07
942.337	937.29
942.512	816.46
942.687	1312.07
942.862	1137.99
943.037	736.59
943.212	556.36
943.386	953.67
943.561	1011.01
943.736	867.66
943.911	1090.88
944.086	1156.42
944.26	1070.41
944.435	838.98
944.61	898.38
944.785	1385.79
944.959	1449.28
945.134	830.79
945.309	675.15
945.483	865.61
945.658	1359.17
945.833	556.36
946.007	669
946.182	1375.55
946.357	716.11
946.531	699.72
946.706	699.72
946.88	615.76
947.055	1129.8
947.229	759.11
947.404	669
947.578	1246.53
947.752	955.72
947.927	578.89
948.101	605.52
948.276	1047.88
948.45	1072.45
948.624	933.19
948.799	666.96
948.973	1178.95
949.147	681.29
949.321	785.74
949.496	775.5
949.67	1197.38
949.844	959.81
950.018	761.16
950.193	855.37
950.367	1523.01
950.541	863.56
950.715	912.71
950.889	832.84
951.063	957.77
951.237	1267.01
951.411	626
951.585	570.7
951.759	1045.83
951.933	1029.45
952.107	773.45
952.281	935.24
952.455	1213.76
952.629	1137.99
952.803	675.15
952.977	755.02
953.151	1117.51
953.325	1082.69
953.499	922.95
953.672	576.84
953.846	765.26
954.02	925
954.194	775.5
954.368	732.49
954.541	1217.86
954.715	869.7
954.889	824.65
955.062	695.63
955.236	982.34
955.41	939.34
955.583	925
955.757	578.89
955.93	908.62
956.104	757.07
956.278	855.37
956.451	734.54
956.625	1035.59
956.798	1371.46
956.972	1058.12
957.145	662.86
957.319	1054.02
957.492	879.94
957.665	886.09
957.839	644.43
958.012	1027.4
958.185	857.42
958.359	777.55
958.532	896.33
958.705	1183.04
958.879	992.58
959.052	810.31
959.225	490.83
959.398	1013.06
959.572	1121.6
959.745	714.06
959.918	718.15
960.091	912.71
960.264	1049.93
960.438	605.52
960.611	693.58
960.784	1174.85
960.957	822.6
961.13	1162.56
961.303	730.44
961.476	965.96
961.649	1246.53
961.822	658.76
961.995	793.93
962.168	1004.87
962.341	1092.93
962.514	732.49
962.686	646.48
962.859	1097.03
963.032	1168.71
963.205	666.96
963.378	494.93
963.551	978.25
963.723	1006.92
963.896	843.08
964.069	863.56
964.242	841.03
964.414	1121.6
964.587	841.03
964.76	818.5
964.932	1043.78
965.105	957.77
965.278	716.11
965.45	691.53
965.623	1023.3
965.795	1103.17
965.968	697.67
966.14	748.87
966.313	828.74
966.485	943.43
966.658	724.3
966.83	693.58
967.003	1232.19
967.175	1135.94
967.348	597.32
967.52	679.24
967.692	1267.01
967.865	961.86
968.037	781.64
968.209	1043.78
968.382	986.44
968.554	1215.81
968.726	820.55
968.898	761.16
969.071	1015.11
969.243	1035.59
969.415	761.16
969.587	712.01
969.759	1486.14
969.932	1144.13
970.104	707.91
970.276	421.2
970.448	755.02
970.62	779.59
970.792	841.03
970.964	808.27
971.136	1285.44
971.308	1076.55
971.48	605.52
971.652	757.07
971.824	1281.35
971.996	777.55
972.168	781.64
972.339	761.16
972.511	1199.43
972.683	814.41
972.855	963.91
973.027	695.63
973.199	947.53
973.37	1158.47
973.542	853.32
973.714	894.28
973.886	953.67
974.057	1189.19
974.229	548.17
974.401	632.14
974.572	730.44
974.744	544.08
974.915	597.32
975.087	482.64
975.259	1230.15
975.43	781.64
975.602	662.86
975.773	519.5
975.945	787.79
976.116	1168.71
976.288	597.32
976.459	841.03
976.63	791.88
976.802	974.15
976.973	589.13
977.145	841.03
977.316	1328.45
977.487	888.14
977.659	759.11
977.83	650.57
978.001	1305.92
978.172	1027.4
978.344	597.32
978.515	644.43
978.686	818.5
978.857	1215.81
979.028	578.89
979.2	582.99
979.371	1015.11
979.542	931.14
979.713	773.45
979.884	290.13
980.055	687.43
980.226	712.01
980.397	691.53
980.568	521.55
980.739	1125.7
980.91	867.66
981.081	775.5
981.252	544.08
981.423	1054.02
981.594	1174.85
981.765	499.02
981.936	752.97
982.106	857.42
982.277	1203.52
982.448	548.17
982.619	748.87
982.79	777.55
982.96	1219.91
983.131	802.12
983.302	419.15
983.472	720.2
983.643	1045.83
983.814	730.44
983.984	562.51
984.155	826.7
984.326	1066.31
984.496	652.62
984.667	548.17
984.837	695.63
985.008	1109.32
985.178	716.11
985.349	671.05
985.519	849.22
985.69	535.89
985.86	619.85
986.031	556.36
986.201	849.22
986.371	965.96
986.542	556.36
986.712	294.22
986.882	961.86
987.053	947.53
987.223	527.69
987.393	722.25
987.563	654.67
987.734	974.15
987.904	939.34
988.074	572.75
988.244	904.52
988.414	740.68
988.585	544.08
988.755	720.2
988.925	709.96
989.095	1150.28
989.265	517.45
989.435	499.02
989.605	1021.25
989.775	822.6
989.945	820.55
990.115	363.86
990.285	771.4
990.455	838.98
990.625	685.39
990.795	484.69
990.965	1205.57
991.134	535.89
991.304	521.55
991.474	542.03
991.644	836.94
991.814	1156.42
991.984	410.96
992.153	425.29
992.323	732.49
992.493	730.44
992.662	294.22
992.832	642.38
993.002	750.92
993.171	781.64
993.341	234.83
993.511	593.23
993.68	638.28
993.85	996.68
994.019	351.57
994.189	433.49
994.358	720.2
994.528	585.04
994.697	167.25
994.867	316.75
995.036	863.56
995.206	601.42
995.375	404.82
995.544	601.42
995.714	838.98
995.883	697.67
996.052	611.66
996.222	236.88
996.391	1195.33
996.56	773.45
996.73	355.66
996.899	400.72
997.068	1078.6
997.237	757.07
997.406	380.24
997.576	402.77
997.745	857.42
997.914	875.85
998.083	226.64
998.252	486.73
998.421	834.89
998.59	548.17
998.759	347.47
998.928	195.92
999.097	953.67
999.266	748.87
999.435	621.9
999.604	195.92
999.773	1146.18
999.942	683.34
1000.111	273.75
1000.28	189.78
1000.448	503.12
1000.617	431.44
1000.786	531.79
1000.955	300.37
1001.124	822.6
1001.292	1336.64
1001.461	265.55
1001.63	310.61
1001.798	1105.22
1001.967	998.73
1002.136	220.5
1002.304	249.17
1002.473	728.39
1002.642	658.76
1002.81	396.62
1002.979	240.98
1003.147	867.66
1003.316	1140.04
1003.484	363.86
1003.653	312.66
1003.821	998.73
1003.99	630.09
1004.158	376.14
1004.327	408.91
1004.495	726.35
1004.663	429.39
1004.832	488.78
1005	120.15
1005.168	628.04
1005.337	740.68
1005.505	95.57
1005.673	539.98
1005.842	793.93
1006.01	740.68
1006.178	189.78
1006.346	245.07
1006.514	707.91
1006.683	912.71
1006.851	271.7
1007.019	50.52
1007.187	410.96
1007.355	126.29
1007.523	54.61
1007.691	101.72
1007.859	402.77
1008.027	875.85
1008.195	326.99
1008.363	150.87
1008.531	879.94
1008.699	464.21
1008.867	230.74
1009.035	232.79
1009.203	881.99
1009.37	519.5
1009.538	302.42
1009.706	783.69
1009.874	662.86
1010.042	564.56
1010.209	116.05
1010.377	165.2
1010.545	851.27
1010.713	603.47
1010.88	154.96
1011.048	232.79
1011.216	484.69
1011.383	810.31
1011.551	185.68
1011.718	214.35
1011.886	847.18
1012.054	597.32
1012.221	185.68
1012.389	208.21
1012.556	576.84
1012.724	1000.77
1012.891	277.84
1013.058	183.63
1013.226	761.16
1013.393	714.06
1013.561	173.39
1013.728	58.71
1013.895	709.96
1014.063	691.53
1014.23	161.11
1014.397	216.4
1014.565	728.39
1014.732	521.55
1014.899	71
1015.066	56.66
1015.233	580.94
1015.401	767.31
1015.568	243.03
1015.735	259.41
1015.902	603.47
1016.069	654.67
1016.236	138.58
1016.403	136.53
1016.57	218.45
1016.737	763.21
1016.904	163.15
1017.071	15.7
1017.238	290.13
1017.405	712.01
1017.572	165.2
1017.739	372.05
1017.906	601.42
1018.073	695.63
1018.24	48.47
1018.407	226.64
1018.573	761.16
1018.74	482.64
1018.907	195.92
1019.074	95.57
1019.241	763.21
1019.407	554.32
1019.574	159.06
1019.741	23.89
1019.907	537.93
1020.074	539.98
1020.241	-119.46
1020.407	7.51
1020.574	603.47
1020.74	666.96
1020.907	183.63
1021.073	105.81
1021.24	1033.54
1021.406	806.22
1021.573	52.56
1021.739	159.06
1021.906	742.73
1022.072	339.28
1022.239	95.57
1022.405	181.59
1022.571	468.3
1022.738	238.93
1022.904	-51.88
1023.07	202.07
1023.237	542.03
1023.403	722.25
1023.569	169.3
1023.735	175.44
1023.902	496.97
1024.068	527.69
1024.234	34.13
1024.4	124.24
1024.566	535.89
1024.732	666.96
1024.898	126.29
1025.065	-86.7
1025.231	638.28
1025.397	423.25
1025.563	177.49
1025.729	46.42
1025.895	44.37
1026.061	251.22
1026.227	-76.46
1026.392	54.61
1026.558	730.44
1026.724	642.38
1026.89	87.38
1027.056	73.04
1027.222	413.01
1027.388	359.76
1027.553	116.05
1027.719	-2.73
1027.885	941.38
1028.051	494.93
1028.216	-98.99
1028.382	146.77
1028.548	634.19
1028.713	394.58
1028.879	-23.21
1029.045	197.97
1029.21	728.39
1029.376	669
1029.541	161.11
1029.707	150.87
1029.873	523.6
1030.038	613.71
1030.204	77.14
1030.369	126.29
1030.534	626
1030.7	341.33
1030.865	48.47
1031.031	23.89
1031.196	492.88
1031.361	363.86
1031.527	-8.87
1031.692	-55.98
1031.857	-2.73
1032.023	527.69
1032.188	-53.93
1032.353	83.28
1032.518	701.77
1032.684	499.02
1032.849	-182.95
1033.014	202.07
1033.179	591.18
1033.344	654.67
1033.509	87.38
1033.674	27.99
1033.839	638.28
1034.004	589.13
1034.17	15.7
1034.335	1.37
1034.5	329.04
1034.664	265.55
1034.829	-58.03
1034.994	30.04
1035.159	572.75
1035.324	388.43
1035.489	32.08
1035.654	-37.55
1035.819	838.98
1035.984	488.78
1036.148	111.96
1036.313	13.65
1036.478	628.04
1036.643	472.4
1036.807	-68.27
1036.972	-31.4
1037.137	765.26
1037.301	269.65
1037.466	-74.41
1037.631	85.33
1037.795	683.34
1037.96	441.68
1038.124	267.6
1038.289	-25.26
1038.454	482.64
1038.618	494.93
1038.783	-4.78
1038.947	89.43
1039.111	410.96
1039.276	255.31
1039.44	-4.78
1039.605	449.87
1039.769	386.38
1039.933	318.8
1040.098	56.66
1040.262	243.03
1040.426	677.2
1040.591	597.32
1040.755	60.76
1040.919	11.61
1041.083	462.16
1041.248	294.22
1041.412	-189.1
1041.576	-70.31
1041.74	351.57
1041.904	580.94
1042.068	-62.12
1042.232	66.9
1042.397	490.83
1042.561	443.73
1042.725	-185
1042.889	126.29
1043.053	560.46
1043.217	515.41
1043.381	120.15
1043.544	-109.22
1043.708	585.04
1043.872	114
1044.036	-240.29
1044.2	-107.18
1044.364	626
1044.528	752.97
1044.691	3357.99
1044.855	-90.79
1045.019	689.48
1045.183	494.93
1045.346	60.76
1045.51	-86.7
1045.674	480.59
1045.837	509.26
1046.001	-0.68
1046.165	-76.46
1046.328	894.28
1046.492	474.45
1046.655	134.48
1046.819	126.29
1046.983	230.74
1047.146	470.35
1047.31	89.43
1047.473	-234.15
1047.636	337.23
1047.8	114
1047.963	15.7
1048.127	-0.68
1048.29	165.2
