Data from Ink_Intensity_USB4F045381__132__00132.txt Node

Date: Mon Jul 17 11:20:55 EDT 2023
User: mmckonesweet
Spectrometer: USB4F04538
Trigger mode: 4
Integration Time (sec): 9.000000E-1
Scans to average: 1
Electric dark correction enabled: true
Nonlinearity correction enabled: false
Boxcar width: 0
XAxis mode: Wavelengths
Number of Pixels in Spectrum: 3648
>>>>>Begin Spectral Data<<<<<
345.52	-1018.86
345.736	-1018.86
345.952	-1018.86
346.168	-1074.16
346.384	-965.62
346.6	-128
346.816	-220.16
347.032	-183.29
347.248	295.93
347.464	-203.77
347.68	-166.91
347.896	123.9
348.112	340.99
348.328	-76.8
348.544	-148.48
348.76	97.28
348.975	269.31
349.191	-236.54
349.407	-168.96
349.623	9.22
349.839	-125.95
350.055	-175.1
350.27	39.94
350.486	173.05
350.702	363.51
350.918	228.35
351.133	-201.72
351.349	177.15
351.565	412.67
351.781	-254.97
351.996	33.79
352.212	261.12
352.428	-142.33
352.644	-177.15
352.859	-252.92
353.075	328.7
353.291	138.24
353.506	-175.1
353.722	-148.48
353.938	-105.47
354.153	474.1
354.369	97.28
354.584	-252.92
354.8	252.92
355.016	-257.02
355.231	-230.4
355.447	-93.18
355.662	146.43
355.878	836.6
356.093	-273.4
356.309	-15.36
356.524	-199.68
356.74	185.34
356.955	-244.73
357.171	-7.17
357.386	119.81
357.602	-177.15
357.817	-76.8
358.033	-158.72
358.248	267.26
358.464	111.61
358.679	-187.39
358.895	-347.13
359.11	-142.33
359.325	261.12
359.541	27.65
359.756	44.03
359.972	-273.4
360.187	168.96
360.402	-113.66
360.618	-164.86
360.833	1004.53
361.048	164.86
361.264	-117.76
361.479	-173.05
361.694	70.65
361.909	252.92
362.125	-216.06
362.34	-222.2
362.555	238.59
362.77	74.75
362.986	-240.64
363.201	-175.1
363.416	201.72
363.631	23.55
363.847	-156.67
364.062	-152.57
364.277	193.53
364.492	15.36
364.707	-150.53
364.922	-338.94
365.138	291.84
365.353	306.17
365.568	-273.4
365.783	-214.01
365.998	15.36
366.213	562.17
366.428	-246.78
366.643	9.22
366.858	240.64
367.073	146.43
367.288	-117.76
367.503	-281.6
367.718	48.13
367.933	308.22
368.148	-347.13
368.363	-27.65
368.578	-48.13
368.793	410.62
369.008	-140.29
369.223	-216.06
369.438	203.77
369.653	367.61
369.868	-238.59
370.083	-228.35
370.298	144.38
370.513	365.56
370.728	13.31
370.943	-48.13
371.157	-181.25
371.372	504.82
371.587	-259.07
371.802	-271.36
372.017	74.75
372.232	390.14
372.446	-134.14
372.661	-289.79
372.876	265.21
373.091	201.72
373.306	-58.37
373.52	-216.06
373.735	-150.53
373.95	375.8
374.165	-123.9
374.379	-171.01
374.594	-68.61
374.809	179.2
375.023	82.94
375.238	-246.78
375.453	205.82
375.667	-257.02
375.882	-183.29
376.097	-207.87
376.311	87.04
376.526	-50.18
376.741	-218.11
376.955	111.61
377.17	599.03
377.384	576.5
377.599	-11.26
377.813	-336.89
378.028	611.32
378.242	168.96
378.457	-48.13
378.672	-383.99
378.886	29.7
379.101	-52.22
379.315	-351.23
379.53	-156.67
379.744	168.96
379.958	203.77
380.173	-216.06
380.387	-144.38
380.602	121.85
380.816	-119.81
381.031	-224.25
381.245	-171.01
381.459	152.57
381.674	2698.2
381.888	-257.02
382.103	41.98
382.317	-175.1
382.531	474.1
382.746	-50.18
382.96	-207.87
383.174	-144.38
383.388	459.77
383.603	21.5
383.817	-326.65
384.031	111.61
384.246	443.39
384.46	-31.74
384.674	314.36
384.888	62.46
385.103	23.55
385.317	-322.56
385.531	-132.09
385.745	357.37
385.959	263.16
386.174	-224.25
386.388	-283.64
386.602	-3.07
386.816	-121.85
387.03	-19.46
387.244	-123.9
387.458	74.75
387.672	402.43
387.887	-234.49
388.101	-285.69
388.315	361.47
388.529	140.29
388.743	-119.81
388.957	-205.82
389.171	349.18
389.385	-226.3
389.599	-189.44
389.813	19.46
390.027	134.14
390.241	664.57
390.455	-95.23
390.669	-101.37
390.883	-123.9
391.097	379.9
391.311	-17.41
391.525	-218.11
391.738	123.9
391.952	125.95
392.166	-9.22
392.38	-312.32
392.594	242.68
392.808	267.26
393.022	-78.85
393.236	-148.48
393.449	261.12
393.663	197.63
393.877	-269.31
394.091	-82.94
394.305	-11.26
394.518	-74.75
394.732	-281.6
394.946	-134.14
395.16	457.72
395.373	134.14
395.587	-224.25
395.801	-175.1
396.015	269.31
396.228	103.42
396.442	-191.49
396.656	-314.36
396.869	236.54
397.083	416.76
397.297	-136.19
397.51	-160.77
397.724	338.94
397.938	132.09
398.151	-330.75
398.365	-267.26
398.578	179.2
398.792	412.67
399.005	15.36
399.219	-148.48
399.433	62.46
399.646	179.2
399.86	9.22
400.073	-25.6
400.287	179.2
400.5	29.7
400.714	5.12
400.927	-44.03
401.141	191.49
401.354	1055.73
401.567	175.1
401.781	-283.64
401.994	283.64
402.208	605.17
402.421	-144.38
402.635	-207.87
402.848	37.89
403.061	441.34
403.275	-89.09
403.488	-238.59
403.701	472.06
403.915	205.82
404.128	13.31
404.341	-144.38
404.555	154.62
404.768	13.31
404.981	74.75
405.195	-175.1
405.408	457.72
405.621	177.15
405.834	-70.65
406.048	-246.78
406.261	371.71
406.474	439.29
406.687	-228.35
406.9	-89.09
407.114	136.19
407.327	222.2
407.54	-388.09
407.753	-261.12
407.966	-136.19
408.179	232.44
408.392	-228.35
408.605	-351.23
408.819	140.29
409.032	175.1
409.245	-257.02
409.458	25.6
409.671	179.2
409.884	267.26
410.097	-265.21
410.31	-44.03
410.523	162.81
410.736	-56.32
410.949	-84.99
411.162	-189.44
411.375	355.32
411.588	240.64
411.801	91.13
412.014	-291.84
412.227	7.17
412.44	-105.47
412.653	-197.63
412.865	-54.27
413.078	259.07
413.291	99.33
413.504	-156.67
413.717	-232.44
413.93	281.6
414.143	-203.77
414.356	-179.2
414.568	-347.13
414.781	226.3
414.994	142.33
415.207	-68.61
415.42	-136.19
415.632	201.72
415.845	402.43
416.058	-322.56
416.271	-289.79
416.483	146.43
416.696	459.77
416.909	-203.77
417.121	-209.92
417.334	275.45
417.547	541.69
417.759	-261.12
417.972	-240.64
418.185	-82.94
418.397	300.03
418.61	-154.62
418.823	-152.57
419.035	439.29
419.248	31.74
419.46	-101.37
419.673	-101.37
419.885	183.29
420.098	37.89
420.311	-136.19
420.523	-480.25
420.736	246.78
420.948	-13.31
421.161	-125.95
421.373	-414.71
421.586	117.76
421.798	-117.76
422.01	-379.9
422.223	13.31
422.435	-56.32
422.648	289.79
422.86	-236.54
423.073	-265.21
423.285	234.49
423.497	-224.25
423.71	-232.44
423.922	-261.12
424.134	99.33
424.347	381.95
424.559	23.55
424.771	123.9
424.984	-35.84
425.196	119.81
425.408	-396.28
425.621	-263.16
425.833	265.21
426.045	394.23
426.257	-297.98
426.47	-142.33
426.682	152.57
426.894	195.58
427.106	-240.64
427.318	-93.18
427.531	-154.62
427.743	164.86
427.955	-181.25
428.167	330.75
428.379	105.47
428.591	-50.18
428.804	-154.62
429.016	-261.12
429.228	91.13
429.44	173.05
429.652	-25.6
429.864	-351.23
430.076	-27.65
430.288	46.08
430.5	-107.52
430.712	-58.37
430.924	324.6
431.136	95.23
431.348	-330.75
431.56	-179.2
431.772	56.32
431.984	-1.02
432.196	-281.6
432.408	-175.1
432.62	-95.23
432.832	103.42
433.044	66.56
433.256	-123.9
433.468	261.12
433.679	-314.36
433.891	-306.17
434.103	-64.51
434.315	386.04
434.527	70.65
434.739	29.7
434.95	-183.29
435.162	154.62
435.374	-97.28
435.586	-232.44
435.798	-214.01
436.009	-203.77
436.221	-15.36
436.433	-103.42
436.645	-158.72
436.856	-107.52
437.068	334.84
437.28	-193.53
437.491	58.37
437.703	33.79
437.915	121.85
438.126	-197.63
438.338	87.04
438.55	66.56
438.761	183.29
438.973	-152.57
439.184	-105.47
439.396	95.23
439.608	254.97
439.819	-306.17
440.031	-134.14
440.242	244.73
440.454	240.64
440.665	-164.86
440.877	-72.7
441.088	183.29
441.3	-39.94
441.511	-336.89
441.723	-269.31
441.934	144.38
442.146	58.37
442.357	-44.03
442.569	87.04
442.78	7.17
442.991	498.68
443.203	99.33
443.414	-285.69
443.626	259.07
443.837	-191.49
444.048	-246.78
444.26	-302.08
444.471	80.89
444.682	269.31
444.894	-308.22
445.105	-371.71
445.316	295.93
445.528	136.19
445.739	-72.7
445.95	-199.68
446.161	168.96
446.373	338.94
446.584	-111.61
446.795	-128
447.006	220.16
447.217	424.95
447.429	-330.75
447.64	-220.16
447.851	312.32
448.062	29.7
448.273	-316.41
448.484	-281.6
448.695	148.48
448.907	13.31
449.118	-46.08
449.329	21.5
449.54	-117.76
449.751	-142.33
449.962	-224.25
450.173	-328.7
450.384	283.64
450.595	406.52
450.806	-191.49
451.017	-193.53
451.228	394.23
451.439	289.79
451.65	-199.68
451.861	-367.61
452.072	-146.43
452.283	70.65
452.494	-29.7
452.705	-230.4
452.915	416.76
453.126	224.25
453.337	-171.01
453.548	-279.55
453.759	332.79
453.97	545.78
454.181	17.41
454.391	-175.1
454.602	117.76
454.813	224.25
455.024	-101.37
455.235	-168.96
455.445	58.37
455.656	154.62
455.867	-52.22
456.078	-211.96
456.288	-82.94
456.499	111.61
456.71	-277.5
456.921	33.79
457.131	158.72
457.342	37.89
457.553	-156.67
457.763	-269.31
457.974	220.16
458.184	259.07
458.395	-269.31
458.606	-297.98
458.816	320.51
459.027	422.91
459.237	-3.07
459.448	-390.14
459.659	365.56
459.869	642.04
460.08	-404.47
460.29	-27.65
460.501	476.15
460.711	9.22
460.922	-379.9
461.132	-181.25
461.343	730.1
461.553	-242.68
461.764	-285.69
461.974	-230.4
462.184	297.98
462.395	142.33
462.605	-166.91
462.816	-318.46
463.026	125.95
463.236	300.03
463.447	-293.88
463.657	-209.92
463.867	230.4
464.078	-76.8
464.288	-183.29
464.498	-121.85
464.709	-3.07
464.919	-23.55
465.129	-152.57
465.339	-287.74
465.55	168.96
465.76	179.2
465.97	-216.06
466.18	-250.88
466.391	316.41
466.601	193.53
466.811	-175.1
467.021	-361.47
467.231	107.52
467.441	365.56
467.651	-146.43
467.862	-451.58
468.072	17.41
468.282	291.84
468.492	-234.49
468.702	-142.33
468.912	70.65
469.122	627.7
469.332	66.56
469.542	-293.88
469.752	269.31
469.962	99.33
470.172	-314.36
470.382	-295.93
470.592	277.5
470.802	388.09
471.012	-74.75
471.222	-220.16
471.432	162.81
471.642	259.07
471.852	-150.53
472.062	-330.75
472.272	21.5
472.482	-168.96
472.691	-267.26
472.901	-263.16
473.111	41.98
473.321	537.59
473.531	-252.92
473.741	-121.85
473.95	107.52
474.16	228.35
474.37	-89.09
474.58	-332.79
474.79	484.34
474.999	273.4
475.209	-287.74
475.419	-195.58
475.628	-62.46
475.838	308.22
476.048	-103.42
476.258	-373.75
476.467	312.32
476.677	-27.65
476.886	29.7
477.096	-97.28
477.306	-17.41
477.515	361.47
477.725	-121.85
477.935	-136.19
478.144	373.75
478.354	-171.01
478.563	-191.49
478.773	-304.12
478.982	183.29
479.192	297.98
479.401	-17.41
479.611	-257.02
479.82	-95.23
480.03	25.6
480.239	-230.4
480.449	-322.56
480.658	467.96
480.868	-76.8
481.077	9.22
481.287	-148.48
481.496	158.72
481.705	386.04
481.915	109.57
482.124	-13.31
482.333	171.01
482.543	398.33
482.752	-101.37
482.961	-277.5
483.171	263.16
483.38	-3.07
483.589	-25.6
483.799	-242.68
484.008	89.09
484.217	193.53
484.426	-130.05
484.636	-220.16
484.845	87.04
485.054	-240.64
485.263	179.2
485.472	-191.49
485.682	416.76
485.891	123.9
486.1	-322.56
486.309	-177.15
486.518	209.92
486.727	369.66
486.936	-277.5
487.146	37.89
487.355	435.19
487.564	-117.76
487.773	-152.57
487.982	-175.1
488.191	17.41
488.4	142.33
488.609	-171.01
488.818	-125.95
489.027	644.09
489.236	363.51
489.445	-166.91
489.654	-273.4
489.863	369.66
490.072	271.36
490.281	177.15
490.49	-146.43
490.698	467.96
490.907	486.39
491.116	-54.27
491.325	-324.6
491.534	504.82
491.743	134.14
491.952	-60.42
492.16	-87.04
492.369	160.77
492.578	394.23
492.787	-78.85
492.996	-201.72
493.204	50.18
493.413	531.45
493.622	-246.78
493.831	-381.95
494.039	447.48
494.248	-87.04
494.457	-117.76
494.665	-314.36
494.874	226.3
495.083	551.93
495.291	-89.09
495.5	-269.31
495.709	289.79
495.917	187.39
496.126	33.79
496.335	-234.49
496.543	-25.6
496.752	328.7
496.96	121.85
497.169	-273.4
497.377	134.14
497.586	367.61
497.794	-9.22
498.003	-371.71
498.211	128
498.42	508.92
498.628	-64.51
498.837	-224.25
499.045	238.59
499.254	185.34
499.462	-162.81
499.671	-220.16
499.879	594.93
500.087	320.51
500.296	-146.43
500.504	-101.37
500.713	259.07
500.921	670.71
501.129	-140.29
501.338	-146.43
501.546	304.12
501.754	136.19
501.962	-130.05
502.171	-138.24
502.379	216.06
502.587	631.8
502.795	-101.37
503.004	-150.53
503.212	187.39
503.42	410.62
503.628	-150.53
503.837	-35.84
504.045	289.79
504.253	574.46
504.461	-195.58
504.669	-252.92
504.877	242.68
505.085	486.39
505.294	-216.06
505.502	95.23
505.71	142.33
505.918	363.51
506.126	-181.25
506.334	-142.33
506.542	107.52
506.75	193.53
506.958	-52.22
507.166	-48.13
507.374	37.89
507.582	654.33
507.79	31.74
507.998	-119.81
508.206	261.12
508.414	293.88
508.622	-150.53
508.83	-82.94
509.037	594.93
509.245	121.85
509.453	-257.02
509.661	-199.68
509.869	345.08
510.077	156.67
510.285	21.5
510.492	-396.28
510.7	707.57
510.908	56.32
511.116	-119.81
511.324	-150.53
511.531	82.94
511.739	386.04
511.947	142.33
512.155	224.25
512.362	185.34
512.57	-72.7
512.778	-115.71
512.985	-263.16
513.193	433.15
513.401	596.98
513.608	33.79
513.816	-58.37
514.024	267.26
514.231	375.8
514.439	-39.94
514.646	-70.65
514.854	365.56
515.061	429.05
515.269	-82.94
515.477	-189.44
515.684	39.94
515.892	443.39
516.099	-232.44
516.307	-273.4
516.514	439.29
516.722	650.23
516.929	-103.42
517.136	-173.05
517.344	472.06
517.551	345.08
517.759	-168.96
517.966	-27.65
518.173	222.2
518.381	222.2
518.588	-46.08
518.796	-117.76
519.003	406.52
519.21	138.24
519.418	-113.66
519.625	259.07
519.832	189.44
520.039	312.32
520.247	-275.45
520.454	-27.65
520.661	427
520.868	482.3
521.076	-56.32
521.283	-39.94
521.49	746.48
521.697	424.95
521.904	-44.03
522.112	-17.41
522.319	463.86
522.526	289.79
522.733	-130.05
522.94	11.26
523.147	269.31
523.354	453.63
523.561	-230.4
523.768	-60.42
523.975	529.4
524.183	318.46
524.39	37.89
524.597	-199.68
524.804	244.73
525.011	27.65
525.218	-39.94
525.425	-78.85
525.632	695.29
525.838	37.89
526.045	-35.84
526.252	-7.17
526.459	1385.45
526.666	1186.8
526.873	-13.31
527.08	-84.99
527.287	592.89
527.494	539.64
527.701	-62.46
527.907	-119.81
528.114	414.71
528.321	203.77
528.528	29.7
528.735	-11.26
528.941	125.95
529.148	209.92
529.355	121.85
529.562	13.31
529.768	752.63
529.975	185.34
530.182	74.75
530.388	-50.18
530.595	572.41
530.802	-1.02
531.008	37.89
531.215	95.23
531.422	680.95
531.628	1070.06
531.835	105.47
532.042	164.86
532.248	254.97
532.455	283.64
532.661	37.89
532.868	44.03
533.074	379.9
533.281	525.3
533.487	130.05
533.694	15.36
533.9	76.8
534.107	433.15
534.313	-76.8
534.52	25.6
534.726	549.88
534.933	812.02
535.139	13.31
535.345	-39.94
535.552	351.23
535.758	451.58
535.965	52.22
536.171	50.18
536.377	547.83
536.584	660.47
536.79	5.12
536.996	111.61
537.203	441.34
537.409	498.68
537.615	78.85
537.821	209.92
538.028	592.89
538.234	580.6
538.44	140.29
538.646	138.24
538.853	570.36
539.059	295.93
539.265	441.34
539.471	-115.71
539.677	656.37
539.883	269.31
540.09	25.6
540.296	418.81
540.502	310.27
540.708	138.24
540.914	289.79
541.12	99.33
541.326	527.35
541.532	349.18
541.738	236.54
541.944	236.54
542.15	629.75
542.356	334.84
542.562	160.77
542.768	162.81
542.974	1092.59
543.18	875.51
543.386	128
543.592	-48.13
543.798	830.45
544.004	760.82
544.21	185.34
544.415	285.69
544.621	451.58
544.827	732.15
545.033	33.79
545.239	390.14
545.445	218.11
545.651	480.25
545.856	154.62
546.062	201.72
546.268	345.08
546.474	449.53
546.679	171.01
546.885	142.33
547.091	289.79
547.297	992.24
547.502	267.26
547.708	33.79
547.914	349.18
548.119	586.74
548.325	89.09
548.531	130.05
548.736	895.99
548.942	351.23
549.147	121.85
549.353	373.75
549.559	803.83
549.764	586.74
549.97	207.87
550.175	248.83
550.381	738.29
550.586	414.71
550.792	205.82
550.997	236.54
551.203	625.65
551.408	695.29
551.614	154.62
551.819	136.19
552.025	914.42
552.23	926.71
552.435	121.85
552.641	404.47
552.846	367.61
553.052	832.5
553.257	414.71
553.462	226.3
553.668	357.37
553.873	775.16
554.078	160.77
554.283	228.35
554.489	652.28
554.694	431.1
554.899	154.62
555.105	455.67
555.31	695.29
555.515	717.81
555.72	398.33
555.925	119.81
556.131	781.3
556.336	465.91
556.541	173.05
556.746	199.68
556.951	885.75
557.156	945.14
557.361	347.13
557.567	361.47
557.772	1113.07
557.977	766.96
558.182	359.42
558.387	312.32
558.592	459.77
558.797	828.4
559.002	345.08
559.207	494.58
559.412	648.18
559.617	1025.01
559.822	201.72
560.027	269.31
560.232	728.05
560.437	803.83
560.642	175.1
560.847	232.44
561.051	639.99
561.256	627.7
561.461	320.51
561.666	107.52
561.871	644.09
562.076	756.72
562.281	324.6
562.485	230.4
562.69	814.07
562.895	801.78
563.1	336.89
563.305	257.02
563.509	967.67
563.714	1244.14
563.919	414.71
564.123	414.71
564.328	631.8
564.533	959.47
564.737	476.15
564.942	365.56
565.147	1045.49
565.351	1143.79
565.556	427
565.761	484.34
565.965	766.96
566.17	498.68
566.374	465.91
566.579	340.99
566.784	721.91
566.988	541.69
567.193	322.56
567.397	316.41
567.602	289.79
567.806	680.95
568.011	474.1
568.215	480.25
568.42	637.94
568.624	701.43
568.828	414.71
569.033	576.5
569.237	887.79
569.442	826.36
569.646	293.88
569.85	478.2
570.055	693.24
570.259	824.31
570.463	713.72
570.668	506.87
570.872	734.2
571.076	728.05
571.281	615.41
571.485	611.32
571.689	881.65
571.893	932.85
572.098	580.6
572.302	590.84
572.506	889.84
572.71	754.68
572.914	480.25
573.119	502.78
573.323	1102.83
573.527	1102.83
573.731	529.4
573.935	414.71
574.139	930.8
574.343	631.8
574.547	574.46
574.751	586.74
574.955	1160.17
575.159	1111.02
575.364	547.83
575.568	455.67
575.772	895.99
575.976	1125.36
576.18	527.35
576.383	412.67
576.587	1143.79
576.791	967.67
576.995	310.27
577.199	431.1
577.403	977.91
577.607	1188.85
577.811	406.52
578.015	652.28
578.219	869.36
578.422	1070.06
578.626	738.29
578.83	672.76
579.034	1131.5
579.238	824.31
579.442	504.82
579.645	838.64
579.849	859.12
580.053	889.84
580.257	560.12
580.46	635.89
580.664	1188.85
580.868	1065.97
581.071	881.65
581.275	701.43
581.479	633.85
581.682	1029.1
581.886	646.13
582.09	719.86
582.293	1149.93
582.497	1227.76
582.7	826.36
582.904	580.6
583.107	975.86
583.311	904.18
583.515	656.37
583.718	873.46
583.922	1070.06
584.125	1410.03
584.329	730.1
584.532	816.12
584.735	1242.09
584.939	1037.3
585.142	570.36
585.346	689.14
585.549	1156.08
585.753	1006.58
585.956	656.37
586.159	877.55
586.363	1375.21
586.566	1106.93
586.769	715.77
586.973	660.47
587.176	1076.21
587.379	1324.01
587.582	979.95
587.786	914.42
587.989	1078.26
588.192	1647.59
588.395	879.6
588.599	1068.02
588.802	1172.46
589.005	1246.19
589.208	828.4
589.411	818.16
589.615	1332.2
589.818	1475.56
590.021	1090.54
590.224	848.88
590.427	1315.82
590.63	1252.33
590.833	676.85
591.036	746.48
591.239	1041.39
591.442	857.07
591.645	1008.62
591.848	828.4
592.051	1133.55
592.254	1270.76
592.457	871.41
592.66	873.46
592.863	1025.01
593.066	1293.29
593.269	732.15
593.472	971.76
593.675	975.86
593.878	1268.72
594.081	988.14
594.284	809.97
594.486	1287.15
594.689	1170.41
594.892	982
595.095	984.05
595.298	1299.44
595.5	1000.43
595.703	1027.06
595.906	1057.78
596.109	1475.56
596.311	1358.83
596.514	650.23
596.717	986.1
596.92	1469.42
597.122	1340.4
597.325	779.25
597.528	961.52
597.73	1489.9
597.933	1254.38
598.136	938.99
598.338	711.67
598.541	1313.77
598.743	1477.61
598.946	949.23
599.148	986.1
599.351	1670.12
599.554	1557.48
599.756	1104.88
599.959	1086.45
600.161	1391.59
600.363	1881.06
600.566	1258.48
600.768	1016.82
600.971	1709.03
601.173	1516.52
601.376	1057.78
601.578	1059.82
601.78	1414.12
601.983	1862.63
602.185	1031.15
602.388	1319.92
602.59	1420.27
602.792	1156.08
602.995	1211.37
603.197	1043.44
603.399	1537
603.601	1446.89
603.804	1076.21
604.006	1068.02
604.208	1293.29
604.41	938.99
604.613	1309.68
604.815	1070.06
605.017	2018.27
605.219	1170.41
605.421	1448.94
605.623	1176.56
605.826	1721.32
606.028	1774.56
606.23	1012.72
606.432	1180.65
606.634	1782.76
606.836	1790.95
607.038	996.34
607.24	1272.81
607.442	1485.8
607.644	1471.47
607.846	1387.5
608.048	1145.84
608.25	1776.61
608.452	1305.58
608.654	1223.66
608.856	979.95
609.058	1401.83
609.26	1571.82
609.462	1371.12
609.664	1274.86
609.866	1926.11
610.067	1790.95
610.269	1430.51
610.471	1192.94
610.673	1450.99
610.875	1805.28
611.077	1092.59
611.278	1305.58
611.48	1592.3
611.682	1971.17
611.884	1350.64
612.085	1309.68
612.287	1358.83
612.489	1694.69
612.69	1194.99
612.892	1330.16
613.094	1696.74
613.295	1778.66
613.497	1149.93
613.699	1465.32
613.9	1885.16
614.102	1737.7
614.304	1407.98
614.505	1133.55
614.707	1547.24
614.908	1596.39
615.11	1000.43
615.311	1448.94
615.513	1721.32
615.714	1852.39
615.916	1256.43
616.117	1438.7
616.319	1534.95
616.52	1790.95
616.722	1405.93
616.923	1303.53
617.124	1954.79
617.326	1790.95
617.527	1469.42
617.729	1639.4
617.93	1770.47
618.131	1950.69
618.333	1463.27
618.534	1491.95
618.735	1596.39
618.937	1983.46
619.138	1188.85
619.339	1420.27
619.54	1905.63
619.742	1637.35
619.943	1516.52
620.144	1455.08
620.345	1901.54
620.546	1876.96
620.748	1418.22
620.949	1508.33
621.15	1829.86
621.351	1868.77
621.552	1483.75
621.753	1348.59
621.954	1319.92
622.155	2251.74
622.356	1389.55
622.558	1684.45
622.759	1858.53
622.96	2221.02
623.161	1537
623.362	1522.66
623.563	1889.25
623.764	1926.11
623.965	1496.04
624.166	1721.32
624.366	1778.66
624.567	1864.68
624.768	1217.52
624.969	1491.95
625.17	1801.19
625.371	1977.31
625.572	1631.21
625.773	1532.9
625.973	2178.01
626.174	2089.95
626.375	1637.35
626.576	1543.14
626.777	2061.28
626.977	2458.59
627.178	1496.04
627.379	1895.4
627.58	1872.87
627.78	1909.73
627.981	1645.54
628.182	1760.23
628.382	2182.11
628.583	1584.1
628.784	1534.95
628.984	1774.56
629.185	2139.1
629.386	2159.58
629.586	1733.61
629.787	1547.24
629.987	2102.24
630.188	2028.51
630.388	1692.65
630.589	1815.52
630.79	2569.18
630.99	2016.23
631.191	1768.42
631.391	1741.8
631.591	2163.68
631.792	2391
631.992	1844.2
632.193	1772.52
632.393	2331.61
632.594	1913.83
632.794	1772.52
632.994	1938.4
633.195	1919.97
633.395	1924.07
633.595	1651.69
633.796	1971.17
633.996	1962.98
634.196	2450.39
634.397	1627.11
634.597	1952.74
634.797	1854.44
634.997	2378.72
635.198	2067.42
635.398	1721.32
635.598	2135.01
635.798	2302.94
635.998	2321.37
636.199	1821.67
636.399	1872.87
636.599	1696.74
636.799	1809.38
636.999	2122.72
637.199	2223.07
637.399	2307.04
637.599	1825.76
637.799	1971.17
637.999	1973.22
638.199	2491.35
638.399	1766.37
638.599	1782.76
638.799	2315.23
638.999	2679.77
639.199	2036.7
639.399	2098.14
639.599	2503.64
639.799	1842.15
639.999	1823.72
640.199	1819.62
640.399	2360.28
640.599	2200.54
640.799	2005.99
640.998	2223.07
641.198	2556.89
641.398	2378.72
641.598	2192.35
641.798	1958.88
641.997	3158.99
642.197	2173.92
642.397	2096.1
642.597	1932.26
642.796	2350.04
642.996	2595.8
643.196	2139.1
643.395	1913.83
643.595	2421.72
643.795	1971.17
643.994	1913.83
644.194	2069.47
644.394	2298.84
644.593	2339.8
644.793	1977.31
644.992	2135.01
645.192	2429.91
645.392	1977.31
645.591	2114.53
645.791	2073.57
645.99	2522.07
646.19	2356.19
646.389	2282.46
646.589	2169.82
646.788	2583.51
646.987	2474.97
647.187	2526.17
647.386	2298.84
647.586	2399.2
647.785	2589.66
647.984	2198.49
648.184	2261.98
648.383	2286.56
648.582	2354.14
648.782	2175.97
648.981	2339.8
649.18	2264.03
649.38	2429.91
649.579	2155.49
649.778	2057.18
649.977	2622.42
650.177	2552.79
650.376	2190.3
650.575	2212.83
650.774	2847.7
650.973	2348
651.173	2184.16
651.372	2436.06
651.571	2517.98
651.77	2825.17
651.969	2333.66
652.168	2348
652.367	2272.22
652.566	2640.86
652.765	2159.58
652.964	2501.59
653.163	2980.82
653.362	2417.63
653.561	2233.31
653.76	2327.52
653.959	2442.2
654.158	2806.74
654.357	2556.89
654.556	2343.9
654.755	2761.69
654.954	2814.93
655.153	2417.63
655.352	2446.3
655.551	2880.47
655.749	2487.26
655.948	2546.65
656.147	2499.55
656.346	2833.36
656.545	2616.28
656.743	2565.08
656.942	2495.45
657.141	2673.62
657.34	2456.54
657.538	2530.27
657.737	2538.46
657.936	2589.66
658.135	2894.8
658.333	2511.83
658.532	2540.51
658.731	3122.13
658.929	2890.71
659.128	2773.97
659.326	2421.72
659.525	3107.79
659.724	2739.16
659.922	2311.13
660.121	2423.77
660.319	2722.77
660.518	2606.04
660.716	2372.57
660.915	2524.12
661.113	3134.42
661.312	2579.42
661.51	2720.73
661.709	2489.31
661.907	3050.45
662.105	3118.03
662.304	2560.98
662.502	2673.62
662.701	3081.17
662.899	2669.53
663.097	3003.35
663.296	2423.77
663.494	3107.79
663.692	3181.52
663.891	2632.66
664.089	2552.79
664.287	2982.87
664.485	3122.13
664.684	2669.53
664.882	2823.12
665.08	2913.24
665.278	2984.91
665.476	2505.69
665.675	2905.04
665.873	3439.56
666.071	3253.2
666.269	2612.18
666.467	2952.15
666.665	2907.09
666.863	2814.93
667.061	2905.04
667.259	2683.86
667.457	2933.72
667.655	3085.26
667.853	2647
668.051	2876.37
668.249	2704.34
668.447	3124.18
668.645	2585.56
668.843	2827.22
669.041	3109.84
669.239	2823.12
669.437	2825.17
669.635	2845.65
669.833	2855.89
670.031	3234.77
670.229	2892.76
670.426	2843.6
670.624	2905.04
670.822	2771.93
671.02	2710.49
671.218	2849.75
671.415	2790.36
671.613	2982.87
671.811	2966.48
672.009	2849.75
672.206	3314.64
672.404	3128.27
672.602	3087.31
672.799	2972.63
672.997	3335.12
673.195	3423.18
673.392	2859.99
673.59	2776.02
673.788	3273.68
673.985	2759.64
674.183	2995.15
674.38	2862.04
674.578	3314.64
674.775	2870.23
674.973	2884.56
675.17	2853.84
675.368	3390.41
675.565	3261.39
675.763	2874.32
675.96	2773.97
676.158	3359.69
676.355	3046.35
676.553	2943.96
676.75	2950.1
676.947	3175.38
677.145	3103.7
677.342	2954.19
677.539	3079.12
677.737	3091.41
677.934	3627.98
678.131	3091.41
678.329	2870.23
678.526	3544.01
678.723	3521.48
678.92	2923.48
679.118	2997.2
679.315	2952.15
679.512	3412.94
679.709	3044.31
679.906	3195.86
680.104	3412.94
680.301	3236.81
680.498	2933.72
680.695	3040.21
680.892	3105.74
681.089	3052.5
681.286	3054.55
681.483	2839.51
681.68	3435.47
681.877	3355.6
682.075	3208.14
682.272	3294.16
682.469	3447.76
682.665	3206.1
682.862	2808.79
683.059	2851.8
683.256	3257.29
683.453	3249.1
683.65	3232.72
683.847	3077.07
684.044	3308.49
684.241	3105.74
684.438	3294.16
684.635	3007.44
684.831	3748.81
685.028	3812.29
685.225	3019.73
685.422	3216.33
685.619	3304.4
685.815	3279.82
686.012	3150.8
686.209	3146.7
686.405	3009.49
686.602	3580.87
686.799	2853.84
686.996	3044.31
687.192	2939.86
687.389	3816.39
687.586	3068.88
687.782	3148.75
687.979	3675.08
688.175	3699.66
688.372	3177.42
688.568	3085.26
688.765	3232.72
688.962	3736.52
689.158	3187.66
689.355	3052.5
689.551	3605.45
689.748	3386.32
689.944	3281.87
690.14	3027.92
690.337	3726.28
690.533	3290.06
690.73	3505.1
690.926	3111.89
691.123	3521.48
691.319	3447.76
691.515	3189.71
691.712	3431.37
691.908	3482.57
692.104	3509.19
692.301	3253.2
692.497	3097.55
692.693	3748.81
692.889	3525.58
693.086	3396.56
693.282	3095.5
693.478	3406.8
693.674	3892.16
693.87	3175.38
694.067	2956.24
694.263	3673.03
694.459	3449.8
694.655	3421.13
694.851	3429.32
695.047	3556.3
695.243	3738.57
695.439	3292.11
695.635	3322.83
695.831	3568.59
696.027	3589.07
696.224	3175.38
696.42	3537.87
696.615	3900.36
696.811	3732.42
697.007	3132.37
697.203	3382.22
697.399	3697.61
697.595	3838.92
697.791	3095.5
697.987	3578.83
698.183	3134.42
698.379	3355.6
698.575	3273.68
698.77	3423.18
698.966	3687.37
699.162	3879.88
699.358	3351.5
699.554	3300.3
699.749	3707.85
699.945	3797.96
700.141	3529.67
700.337	3576.78
700.532	3550.15
700.728	3408.84
700.924	3269.58
701.119	3232.72
701.315	3699.66
701.511	3494.86
701.706	3584.97
701.902	3257.29
702.097	3513.29
702.293	3865.54
702.489	3498.95
702.684	3417.04
702.88	3617.74
703.075	3554.25
703.271	3441.61
703.466	3439.56
703.662	3566.54
703.857	3791.81
704.053	3441.61
704.248	3369.93
704.443	3886.02
704.639	3879.88
704.834	3552.2
705.03	3423.18
705.225	3785.67
705.42	3855.3
705.616	3625.93
705.811	3308.49
706.006	3546.06
706.202	3632.07
706.397	3505.1
706.592	3378.12
706.787	3804.1
706.983	3759.05
707.178	3793.86
707.373	3576.78
707.568	4045.76
707.763	4006.85
707.959	3423.18
708.154	3396.56
708.349	3822.53
708.544	3742.66
708.739	3615.69
708.934	3486.67
709.129	3957.7
709.324	4045.76
709.519	3306.45
709.714	3371.98
709.909	4068.29
710.104	3875.78
710.299	3441.61
710.494	3670.98
710.689	3898.31
710.884	3757
711.079	3711.94
711.274	3810.25
711.469	3963.84
711.664	3861.45
711.859	3531.72
712.054	3736.52
712.249	3945.41
712.443	4119.49
712.638	3437.52
712.833	3462.09
713.028	3734.47
713.223	3804.1
713.417	3810.25
713.612	3498.95
713.807	4043.71
714.002	4400.06
714.196	3851.21
714.391	3597.26
714.586	4094.91
714.78	3838.92
714.975	3597.26
715.17	3501
715.364	3867.59
715.559	3990.47
715.754	3374.03
715.948	3412.94
716.143	4340.67
716.337	3931.08
716.532	3982.28
716.726	3675.08
716.921	4109.25
717.115	4287.42
717.31	3535.82
717.504	4080.58
717.699	3836.87
717.893	4088.77
718.088	3630.02
718.282	3511.24
718.476	3990.47
718.671	4060.1
718.865	3548.11
719.059	3580.87
719.254	3808.2
719.448	4230.08
719.642	4875.19
719.837	3531.72
720.031	4053.95
720.225	4090.82
720.419	3750.85
720.614	3601.35
720.808	4092.87
721.002	3890.12
721.196	3779.53
721.39	3607.5
721.585	4361.15
721.779	3908.55
721.973	3615.69
722.167	3398.6
722.361	3945.41
722.555	4088.77
722.749	3662.79
722.943	3660.74
723.137	3634.12
723.331	4142.02
723.525	3636.17
723.719	3632.07
723.913	4066.24
724.107	4271.04
724.301	3605.45
724.495	3627.98
724.689	4438.97
724.883	4090.82
725.077	3642.31
725.271	3705.8
725.465	4240.32
725.659	3806.15
725.853	3894.21
726.046	3679.18
726.24	3787.72
726.434	4133.82
726.628	3818.44
726.822	3830.73
727.015	4285.37
727.209	4268.99
727.403	3822.53
727.596	3593.16
727.79	4238.27
727.984	4234.18
728.177	3818.44
728.371	3822.53
728.565	4314.05
728.758	3791.81
728.952	3648.46
729.146	3867.59
729.339	4289.47
729.533	4105.15
729.726	3816.39
729.92	3732.42
730.113	4436.92
730.307	4115.39
730.5	3910.6
730.694	3720.14
730.887	4072.39
731.081	4203.46
731.274	3619.78
731.468	3838.92
731.661	4187.07
731.854	3984.32
732.048	3773.38
732.241	3668.94
732.435	3994.56
732.628	3953.6
732.821	3982.28
733.014	3865.54
733.208	3945.41
733.401	4250.56
733.594	3871.68
733.788	3906.5
733.981	4312
734.174	4295.61
734.367	3914.69
734.56	4031.43
734.754	4295.61
734.947	4205.5
735.14	3904.45
735.333	3914.69
735.526	4391.87
735.719	3908.55
735.912	3808.2
736.105	3896.26
736.298	4191.17
736.491	4049.86
736.684	3845.06
736.877	3902.4
737.07	4252.61
737.263	4586.43
737.456	4004.8
737.649	3855.3
737.842	3967.94
738.035	4228.03
738.228	3986.37
738.421	4148.16
738.614	4535.23
738.807	4465.6
739	3830.73
739.192	3926.98
739.385	4447.16
739.578	4414.4
739.771	4244.42
739.964	4051.91
740.156	4303.81
740.349	4236.22
740.542	4191.17
740.735	3920.84
740.927	4051.91
741.12	4172.74
741.313	4017.09
741.505	4205.5
741.698	4348.86
741.891	4365.25
742.083	4129.73
742.276	3996.61
742.468	4342.72
742.661	4252.61
742.854	4174.78
743.046	4156.35
743.239	4662.2
743.431	4228.03
743.624	4252.61
743.816	3900.36
744.009	4219.84
744.201	4492.22
744.393	4232.13
744.586	3996.61
744.778	4576.19
744.971	4322.24
745.163	3886.02
745.355	4111.3
745.548	4336.57
745.74	4191.17
745.932	4219.84
746.125	4090.82
746.317	4826.04
746.509	4371.39
746.702	4043.71
746.894	4113.35
747.086	4273.09
747.278	4768.7
747.471	4182.98
747.663	4182.98
747.855	4395.96
748.047	4756.41
748.239	4154.3
748.431	4119.49
748.623	4776.89
748.815	4901.81
749.008	4021.19
749.2	4107.2
749.392	4430.78
749.584	4481.98
749.776	4125.63
749.968	4180.93
750.16	4862.9
750.352	4320.19
750.544	4246.46
750.736	4084.67
750.928	4438.97
751.12	4293.57
751.311	4117.44
751.503	4260.8
751.695	4592.57
751.887	4266.94
752.079	3845.06
752.271	4084.67
752.463	5192.62
752.654	4547.51
752.846	4289.47
753.038	4103.11
753.23	4256.7
753.421	4645.82
753.613	4244.42
753.805	4244.42
753.997	4633.53
754.188	4783.03
754.38	4182.98
754.572	4082.63
754.763	4484.03
754.955	4484.03
755.146	4309.95
755.338	4336.57
755.53	4651.96
755.721	4363.2
755.913	4082.63
756.104	4043.71
756.296	4445.12
756.487	4592.57
756.679	3978.18
756.87	4174.78
757.062	4334.53
757.253	4699.06
757.445	4150.21
757.636	4158.4
757.827	4342.72
758.019	5155.76
758.21	4148.16
758.401	4213.7
758.593	4924.34
758.784	4740.02
758.975	4084.67
759.167	4060.1
759.358	4563.9
759.549	4690.87
759.74	4053.95
759.932	4096.96
760.123	4791.22
760.314	4264.89
760.505	4352.96
760.696	4144.06
760.888	4897.72
761.079	4471.74
761.27	4197.31
761.461	4146.11
761.652	4783.03
761.843	4451.26
762.034	4256.7
762.225	4467.64
762.416	4340.67
762.607	4395.96
762.798	4170.69
762.989	4000.71
763.18	5256.11
763.371	4330.43
763.562	4166.59
763.753	4330.43
763.944	4682.68
764.135	4764.6
764.326	4369.34
764.517	4217.79
764.708	4490.17
764.899	4383.68
765.089	4176.83
765.28	3957.7
765.471	4428.73
765.662	4574.14
765.853	4203.46
766.043	4043.71
766.234	4776.89
766.425	4674.49
766.615	4264.89
766.806	3990.47
766.997	4797.37
767.187	4463.55
767.378	4314.05
767.569	4023.23
767.759	4559.8
767.95	4432.83
768.141	4178.88
768.331	4199.36
768.522	4402.11
768.712	4539.32
768.903	4117.44
769.093	4056
769.284	4961.2
769.474	4578.23
769.665	3888.07
769.855	4117.44
770.046	4578.23
770.236	4473.79
770.426	4441.02
770.617	3992.52
770.807	4455.36
770.998	4314.05
771.188	4363.2
771.378	4156.35
771.569	4694.97
771.759	4559.8
771.949	4121.54
772.139	3959.75
772.33	4635.58
772.52	4705.21
772.71	4096.96
772.9	3992.52
773.09	4764.6
773.281	4873.14
773.471	3939.27
773.661	4244.42
773.851	4576.19
774.041	4283.33
774.231	4053.95
774.421	4236.22
774.611	4707.26
774.802	4494.27
774.992	4332.48
775.182	4094.91
775.372	4385.73
775.562	4674.49
775.752	4219.84
775.942	4056
776.131	4840.37
776.321	4531.13
776.511	4248.51
776.701	4115.39
776.891	4711.35
777.081	4127.68
777.271	4203.46
777.461	4131.78
777.651	4608.95
777.84	4602.81
778.03	4289.47
778.22	4135.87
778.41	4817.85
778.599	4166.59
778.789	4240.32
778.979	4056
779.169	4486.08
779.358	4428.73
779.548	4422.59
779.738	4012.99
779.927	4355.01
780.117	4230.08
780.307	4299.71
780.496	3865.54
780.686	4787.13
780.875	4934.58
781.065	4146.11
781.254	4086.72
781.444	4428.73
781.633	4471.74
781.823	4041.67
782.012	4113.35
782.202	4424.64
782.391	4404.16
782.581	4012.99
782.77	4406.2
782.96	4461.5
783.149	4391.87
783.338	4084.67
783.528	3783.62
783.717	4541.37
783.906	4641.72
784.096	4150.21
784.285	4170.69
784.474	4322.24
784.663	4258.75
784.853	4099.01
785.042	4053.95
785.231	4318.14
785.42	4543.42
785.61	4406.2
785.799	3879.88
785.988	4322.24
786.177	4305.85
786.366	4193.22
786.555	4248.51
786.744	4465.6
786.933	4436.92
787.122	3998.66
787.312	3988.42
787.501	4117.44
787.69	4449.21
787.879	4078.53
788.068	4092.87
788.257	4242.37
788.445	4404.16
788.634	4207.55
788.823	3931.08
789.012	5069.75
789.201	4723.64
789.39	4148.16
789.579	3875.78
789.768	4416.44
789.957	4492.22
790.145	4111.3
790.334	3892.16
790.523	4252.61
790.712	4314.05
790.9	4187.07
791.089	3886.02
791.278	4625.34
791.467	4426.68
791.655	4402.11
791.844	4592.57
792.033	4264.89
792.221	4189.12
792.41	4025.28
792.599	3965.89
792.787	4441.02
792.976	4578.23
793.164	4074.43
793.353	4021.19
793.541	4506.56
793.73	4549.56
793.918	4068.29
794.107	4150.21
794.295	4459.45
794.484	4367.29
794.672	4207.55
794.861	4207.55
795.049	4567.99
795.238	4883.38
795.426	3974.08
795.614	4256.7
795.803	4434.88
795.991	4615.1
796.179	4166.59
796.368	3941.32
796.556	4633.53
796.744	4111.3
796.932	3951.56
797.121	4060.1
797.309	4414.4
797.497	4674.49
797.685	4094.91
797.874	4043.71
798.062	4168.64
798.25	4633.53
798.438	4115.39
798.626	4125.63
798.814	4434.88
799.002	4932.53
799.19	4191.17
799.378	4355.01
799.566	4703.16
799.755	4748.22
799.943	4332.48
800.131	3976.13
800.318	4363.2
800.506	4438.97
800.694	4037.57
800.882	4404.16
801.07	4918.2
801.258	4518.84
801.446	4123.59
801.634	4168.64
801.822	4457.4
802.01	4463.55
802.197	4092.87
802.385	4305.85
802.573	4561.85
802.761	4119.49
802.949	4250.56
803.136	4121.54
803.324	4809.65
803.512	4436.92
803.699	4420.54
803.887	4023.23
804.075	4854.71
804.262	4320.19
804.45	4150.21
804.638	4461.5
804.825	4391.87
805.013	4361.15
805.201	4228.03
805.388	4082.63
805.576	4615.1
805.763	4973.49
805.951	4236.22
806.138	4547.51
806.326	5067.7
806.513	4811.7
806.701	4342.72
806.888	4256.7
807.075	4656.06
807.263	4914.1
807.45	4256.7
807.638	4506.56
807.825	5034.93
808.012	4936.63
808.2	4416.44
808.387	4615.1
808.574	4783.03
808.761	5004.21
808.949	4242.37
809.136	4522.94
809.323	4598.71
809.51	4463.55
809.698	4692.92
809.885	4680.63
810.072	4703.16
810.259	4903.86
810.446	4295.61
810.633	4527.03
810.82	4991.92
811.008	5186.48
811.195	4707.26
811.382	4357.05
811.569	4737.98
811.756	4510.65
811.943	4490.17
812.13	4402.11
812.317	4529.08
812.504	4678.58
812.691	4680.63
812.878	4684.73
813.064	5125.04
813.251	4809.65
813.438	4490.17
813.625	4664.25
813.812	4725.69
813.999	4823.99
814.186	4510.65
814.372	4598.71
814.559	4961.2
814.746	5200.82
814.933	4531.13
815.12	4809.65
815.306	4735.93
815.493	4471.74
815.68	4537.27
815.866	4576.19
816.053	5096.37
816.24	5290.93
816.426	4830.13
816.613	4527.03
816.799	5075.89
816.986	5135.28
817.173	4561.85
817.359	4711.35
817.546	4981.68
817.732	4541.37
817.919	4363.2
818.105	4678.58
818.292	4668.34
818.478	4985.78
818.665	4625.34
818.851	4572.09
819.037	5272.5
819.224	5041.08
819.41	4453.31
819.597	4447.16
819.783	5321.65
819.969	5008.31
820.156	4615.1
820.342	4631.48
820.528	5645.23
820.714	5028.79
820.901	4969.4
821.087	4682.68
821.273	5346.22
821.459	4899.77
821.646	4658.1
821.832	4479.93
822.018	4840.37
822.204	4864.95
822.39	4694.97
822.576	4619.19
822.762	5059.51
822.948	4797.37
823.134	4809.65
823.32	4635.58
823.507	4539.32
823.693	4946.87
823.879	4979.64
824.065	4770.74
824.25	4916.15
824.436	4719.54
824.622	4582.33
824.808	4432.83
824.994	4639.67
825.18	4752.31
825.366	4475.84
825.552	4490.17
825.738	4950.96
825.923	4993.97
826.109	4924.34
826.295	4504.51
826.481	4766.65
826.667	4805.56
826.852	4793.27
827.038	4496.32
827.224	5036.98
827.409	5116.85
827.595	4387.77
827.781	4776.89
827.966	5030.84
828.152	5028.79
828.338	4506.56
828.523	4346.81
828.709	4559.8
828.894	5010.36
829.08	4551.61
829.266	4617.15
829.451	4654.01
829.637	5053.36
829.822	4758.46
830.008	4471.74
830.193	4965.3
830.378	5254.06
830.564	4744.12
830.749	4500.41
830.935	4756.41
831.12	5032.88
831.305	4346.81
831.491	4625.34
831.676	4406.2
831.861	4998.07
832.047	4654.01
832.232	4322.24
832.417	5026.74
832.602	4821.94
832.788	4406.2
832.973	4418.49
833.158	4836.28
833.343	4916.15
833.528	4617.15
833.714	4539.32
833.899	5055.41
834.084	5180.34
834.269	4776.89
834.454	4588.47
834.639	4907.96
834.824	4748.22
835.009	4580.28
835.194	4602.81
835.379	4973.49
835.564	5147.57
835.749	4684.73
835.934	4420.54
836.119	5008.31
836.304	4682.68
836.489	4381.63
836.674	4752.31
836.859	4506.56
837.044	5100.47
837.228	4406.2
837.413	4473.79
837.598	4875.19
837.783	5063.6
837.968	4672.44
838.152	4305.85
838.337	4195.26
838.522	5075.89
838.707	4944.82
838.891	4643.77
839.076	4707.26
839.261	4916.15
839.445	4580.28
839.63	4420.54
839.815	5260.21
839.999	4649.91
840.184	4563.9
840.368	4467.64
840.553	4996.02
840.737	4981.68
840.922	4393.92
841.106	4371.39
841.291	4459.45
841.475	4713.4
841.66	4418.49
841.844	4373.44
842.029	5452.72
842.213	4627.39
842.397	4361.15
842.582	4348.86
842.766	5075.89
842.951	4813.75
843.135	4600.76
843.319	4455.36
843.504	4688.82
843.688	4985.78
843.872	4232.13
844.056	4357.05
844.241	4844.47
844.425	4682.68
844.609	4649.91
844.793	4361.15
844.977	4924.34
845.161	4682.68
845.346	4193.22
845.53	4318.14
845.714	4719.54
845.898	5057.46
846.082	4303.81
846.266	4334.53
846.45	4600.76
846.634	4727.74
846.818	4248.51
847.002	4424.64
847.186	4830.13
847.37	4395.96
847.554	4502.46
847.738	4567.99
847.922	4760.5
848.106	4735.93
848.29	4244.42
848.473	4367.29
848.657	4768.7
848.841	4608.95
849.025	4369.34
849.209	4211.65
849.392	4848.57
849.576	4518.84
849.76	3978.18
849.944	4518.84
850.127	4946.87
850.311	4291.52
850.495	4215.74
850.678	4129.73
850.862	4932.53
851.046	5116.85
851.229	4606.91
851.413	4346.81
851.596	4699.06
851.78	4617.15
851.964	4412.35
852.147	4436.92
852.331	5295.02
852.514	4996.02
852.698	4420.54
852.881	4297.66
853.065	4826.04
853.248	4455.36
853.431	4297.66
853.615	4355.01
853.798	5125.04
853.982	4592.57
854.165	4420.54
854.348	4211.65
854.532	4268.99
854.715	4342.72
854.898	4324.29
855.081	4260.8
855.265	4858.81
855.448	5016.5
855.631	4170.69
855.814	4213.7
855.997	4694.97
856.181	4555.71
856.364	4377.53
856.547	4305.85
856.73	4611
856.913	4510.65
857.096	4221.89
857.279	4404.16
857.462	4334.53
857.645	4690.87
857.828	4436.92
858.011	4352.96
858.194	4438.97
858.377	4766.65
858.56	4086.72
858.743	4387.77
858.926	4350.91
859.109	4527.03
859.292	4168.64
859.475	4084.67
859.658	4742.07
859.841	4623.29
860.023	3953.6
860.206	4019.14
860.389	4477.88
860.572	4903.86
860.755	4156.35
860.937	4133.82
861.12	4346.81
861.303	4424.64
861.486	4129.73
861.668	3974.08
861.851	4619.19
862.034	4596.67
862.216	4203.46
862.399	3865.54
862.581	4418.49
862.764	4885.43
862.947	4152.26
863.129	3986.37
863.312	4062.15
863.494	4580.28
863.677	4420.54
863.859	3845.06
864.042	4496.32
864.224	4727.74
864.406	4211.65
864.589	3867.59
864.771	4492.22
864.954	4228.03
865.136	3931.08
865.318	3972.04
865.501	4651.96
865.683	3967.94
865.865	4006.85
866.048	3933.12
866.23	4252.61
866.412	4266.94
866.594	4090.82
866.777	3972.04
866.959	4598.71
867.141	4082.63
867.323	4395.96
867.505	4215.74
867.687	4021.19
867.869	4408.25
868.052	3978.18
868.234	3916.74
868.416	4342.72
868.598	4350.91
868.78	3888.07
868.962	3988.42
869.144	4678.58
869.326	4334.53
869.508	3996.61
869.69	3992.52
869.872	4010.95
870.054	4631.48
870.236	3822.53
870.417	3908.55
870.599	4264.89
870.781	4637.63
870.963	4164.54
871.145	4056
871.327	4008.9
871.508	4543.42
871.69	4051.91
871.872	4002.75
872.054	4412.35
872.235	4414.4
872.417	4187.07
872.599	3916.74
872.78	4674.49
872.962	4377.53
873.144	3894.21
873.325	4099.01
873.507	4699.06
873.689	4359.1
873.87	3849.16
874.052	4121.54
874.233	4357.05
874.415	4559.8
874.596	3996.61
874.778	3939.27
874.959	4416.44
875.141	4737.98
875.322	4135.87
875.503	3886.02
875.685	4404.16
875.866	3908.55
876.048	4012.99
876.229	3937.22
876.41	4172.74
876.592	4545.47
876.773	4105.15
876.954	3922.88
877.136	4625.34
877.317	4285.37
877.498	3822.53
877.679	4232.13
877.86	4330.43
878.042	4305.85
878.223	4021.19
878.404	4350.91
878.585	4486.08
878.766	4883.38
878.947	4402.11
879.128	4264.89
879.309	4600.76
879.49	4735.93
879.672	4314.05
879.853	4277.18
880.034	4303.81
880.215	4475.84
880.396	4281.28
880.576	4266.94
880.757	4355.01
880.938	4838.33
881.119	4318.14
881.3	4166.59
881.481	4281.28
881.662	5460.91
881.843	4187.07
882.023	4125.63
882.204	4690.87
882.385	4516.8
882.566	4285.37
882.747	4219.84
882.927	4504.51
883.108	4649.91
883.289	4293.57
883.469	4496.32
883.65	4510.65
883.831	4627.39
884.011	4498.36
884.192	4262.85
884.373	4776.89
884.553	4635.58
884.734	4529.08
884.914	4594.62
885.095	5270.45
885.275	5004.21
885.456	4649.91
885.636	4172.74
885.817	4649.91
885.997	4592.57
886.178	4293.57
886.358	4529.08
886.538	4737.98
886.719	5665.71
886.899	4355.01
887.08	4621.24
887.26	5010.36
887.44	4549.56
887.621	4367.29
887.801	4572.09
887.981	5319.6
888.161	4981.68
888.342	4602.81
888.522	4545.47
888.702	5014.45
888.882	5104.56
889.062	4664.25
889.242	4479.93
889.423	5235.63
889.603	4955.06
889.783	4748.22
889.963	4355.01
890.143	4936.63
890.323	5174.19
890.503	4660.15
890.683	4557.75
890.863	4772.79
891.043	4969.4
891.223	4709.3
891.403	4711.35
891.583	4930.48
891.763	4930.48
891.943	4871.09
892.122	4598.71
892.302	4920.24
892.482	4848.57
892.662	4621.24
892.842	4602.81
893.022	4948.92
893.201	4793.27
893.381	4684.73
893.561	4574.14
893.741	4993.97
893.92	5206.96
894.1	4740.02
894.28	4660.15
894.459	5204.91
894.639	4985.78
894.819	4750.26
894.998	4854.71
895.178	4856.76
895.357	4934.58
895.537	4705.21
895.716	4576.19
895.896	4864.95
896.075	5170.1
896.255	4602.81
896.434	4510.65
896.614	5252.02
896.793	5299.12
896.973	4815.8
897.152	4764.6
897.331	4953.01
897.511	5219.25
897.69	4602.81
897.87	4801.46
898.049	5202.86
898.228	5053.36
898.407	4864.95
898.587	4924.34
898.766	4877.24
898.945	5172.15
899.124	4948.92
899.304	4846.52
899.483	4996.02
899.662	5481.39
899.841	4717.5
900.02	4539.32
900.199	5092.27
900.378	5090.23
900.557	4783.03
900.737	4735.93
900.916	4971.44
901.095	5145.52
901.274	5065.65
901.453	4672.44
901.632	4791.22
901.811	4651.96
901.989	4754.36
902.168	4588.47
902.347	5295.02
902.526	4830.13
902.705	4572.09
902.884	4817.85
903.063	5217.2
903.242	5311.41
903.42	4488.12
903.599	4735.93
903.778	5174.19
903.957	5151.67
904.135	4783.03
904.314	4711.35
904.493	4881.33
904.672	5041.08
904.85	4744.12
905.029	4592.57
905.207	4926.39
905.386	5579.69
905.565	4469.69
905.743	4510.65
905.922	4717.5
906.1	5143.47
906.279	4420.54
906.457	4406.2
906.636	4678.58
906.814	4774.84
906.993	4649.91
907.171	4496.32
907.35	4936.63
907.528	4950.96
907.707	4744.12
907.885	4422.59
908.063	5157.81
908.242	4514.75
908.42	4320.19
908.598	4287.42
908.777	4846.52
908.955	4635.58
909.133	4555.71
909.311	4393.92
909.49	4799.41
909.668	4768.7
909.846	4512.7
910.024	4332.48
910.202	4731.83
910.38	4832.18
910.559	4438.97
910.737	4332.48
910.915	4828.09
911.093	4705.21
911.271	4361.15
911.449	4635.58
911.627	4690.87
911.805	5157.81
911.983	4316.09
912.161	4547.51
912.339	4639.67
912.517	4910.01
912.695	4606.91
912.872	4426.68
913.05	4469.69
913.228	4731.83
913.406	4334.53
913.584	4287.42
913.762	4764.6
913.939	4334.53
914.117	4252.61
914.295	4035.52
914.473	4658.1
914.65	4694.97
914.828	4338.62
915.006	4012.99
915.184	4289.47
915.361	4535.23
915.539	4340.67
915.716	4457.4
915.894	4680.63
916.072	4633.53
916.249	4410.3
916.427	4393.92
916.604	4240.32
916.782	4555.71
916.959	4105.15
917.137	4219.84
917.314	4463.55
917.492	4469.69
917.669	4203.46
917.847	4152.26
918.024	4418.49
918.201	4119.49
918.379	4240.32
918.556	4174.78
918.733	4662.2
918.911	4299.71
919.088	4297.66
919.265	3931.08
919.442	4328.38
919.62	4279.23
919.797	3908.55
919.974	3892.16
920.151	4393.92
920.328	4260.8
920.506	3976.13
920.683	4258.75
920.86	4023.23
921.037	4025.28
921.214	4010.95
921.391	4000.71
921.568	4510.65
921.745	4045.76
921.922	3812.29
922.099	3896.26
922.276	4236.22
922.453	4244.42
922.63	3888.07
922.807	4252.61
922.984	4123.59
923.161	4103.11
923.338	4002.75
923.514	3734.47
923.691	4299.71
923.868	4150.21
924.045	3685.32
924.222	3740.61
924.399	4228.03
924.575	4182.98
924.752	3789.77
924.929	3906.5
925.105	4144.06
925.282	3677.13
925.459	3787.72
925.635	3726.28
925.812	4000.71
925.989	3892.16
926.165	3697.61
926.342	3578.83
926.518	3732.42
926.695	3886.02
926.871	3605.45
927.048	3507.15
927.224	4125.63
927.401	3769.29
927.577	3666.89
927.754	3388.36
927.93	4012.99
928.107	3961.8
928.283	3390.41
928.459	3687.37
928.636	3791.81
928.812	3726.28
928.988	3464.14
929.165	3300.3
929.341	3677.13
929.517	3627.98
929.693	3900.36
929.87	3251.15
930.046	3877.83
930.222	3505.1
930.398	3351.5
930.574	3564.49
930.751	3607.5
930.927	3609.54
931.103	3331.02
931.279	3361.74
931.455	3361.74
931.631	3531.72
931.807	3120.08
931.983	3068.88
932.159	3077.07
932.335	3470.28
932.511	3277.77
932.687	3046.35
932.863	3394.51
933.039	3283.92
933.215	3142.61
933.391	2970.58
933.566	3251.15
933.742	3363.79
933.918	3064.79
934.094	2812.89
934.27	3277.77
934.445	3134.42
934.621	3038.16
934.797	2835.41
934.973	3367.88
935.148	3195.86
935.324	2784.21
935.5	2524.12
935.675	3335.12
935.851	3064.79
936.027	2749.4
936.202	2796.5
936.378	3021.78
936.553	2782.17
936.729	3064.79
936.904	2608.09
937.08	2546.65
937.255	2524.12
937.431	2468.83
937.606	2298.84
937.782	2520.03
937.957	2628.57
938.133	2380.76
938.308	2221.02
938.483	2382.81
938.659	2274.27
938.834	2274.27
939.009	2192.35
939.185	2307.04
939.36	2120.67
939.535	1711.08
939.71	2130.91
939.886	2522.07
940.061	2348
940.236	2075.62
940.411	2012.13
940.586	2153.44
940.761	2460.63
940.937	1913.83
941.112	1825.76
941.287	2085.86
941.462	2118.62
941.637	1631.21
941.812	1709.03
941.987	2104.29
942.162	1948.64
942.337	1950.69
942.512	1752.04
942.687	2167.77
942.862	2151.39
943.037	1631.21
943.212	1364.97
943.386	1842.15
943.561	1887.2
943.736	1827.81
943.911	1889.25
944.086	2077.66
944.26	1948.64
944.435	1594.34
944.61	1737.7
944.785	2221.02
944.959	2421.72
945.134	1749.99
945.309	1473.51
945.483	1592.3
945.658	2008.03
945.833	1311.72
946.007	1434.6
946.182	2255.84
946.357	1631.21
946.531	1545.19
946.706	1500.14
946.88	1504.23
947.055	1846.24
947.229	1504.23
947.404	1577.96
947.578	1985.51
947.752	1774.56
947.927	1410.03
948.101	1377.26
948.276	1913.83
948.45	1879.01
948.624	1799.14
948.799	1547.24
948.973	1960.93
949.147	1530.86
949.321	1706.98
949.496	1580.01
949.67	2014.18
949.844	1747.94
950.018	1653.73
950.193	1551.34
950.367	2327.52
950.541	1758.18
950.715	1741.8
950.889	1805.28
951.063	1661.93
951.237	2042.85
951.411	1344.49
951.585	1442.79
951.759	1885.16
951.933	1752.04
952.107	1580.01
952.281	1784.8
952.455	2085.86
952.629	1915.87
952.803	1604.58
952.977	1467.37
953.151	1924.07
953.325	1913.83
953.499	1819.62
953.672	1487.85
953.846	1604.58
954.02	1752.04
954.194	1612.78
954.368	1559.53
954.541	1975.27
954.715	1799.14
954.889	1586.15
955.062	1543.14
955.236	1823.72
955.41	1696.74
955.583	1645.54
955.757	1405.93
955.93	1711.08
956.104	1541.1
956.278	1666.02
956.451	1602.54
956.625	1831.91
956.798	2253.79
956.972	1821.67
957.145	1512.42
957.319	1854.44
957.492	1766.37
957.665	1653.73
957.839	1528.81
958.012	1922.02
958.185	1608.68
958.359	1500.14
958.532	1801.19
958.705	1864.68
958.879	1741.8
959.052	1715.17
959.225	1338.35
959.398	1749.99
959.572	1891.3
959.745	1500.14
959.918	1549.29
960.091	1635.3
960.264	1874.92
960.438	1463.27
960.611	1506.28
960.784	1907.68
960.957	1629.16
961.13	1913.83
961.303	1479.66
961.476	1725.41
961.649	1909.73
961.822	1508.33
961.995	1569.77
962.168	1827.81
962.341	1866.72
962.514	1541.1
962.686	1530.86
962.859	1831.91
963.032	1897.44
963.205	1582.06
963.378	1360.88
963.551	1803.24
963.723	1813.48
963.896	1682.41
964.069	1610.73
964.242	1762.28
964.414	1936.35
964.587	1471.47
964.76	1608.68
964.932	1827.81
965.105	1752.04
965.278	1577.96
965.45	1618.92
965.623	1776.61
965.795	1862.63
965.968	1571.82
966.14	1580.01
966.313	1754.09
966.485	1799.14
966.658	1493.99
966.83	1373.16
967.003	1983.46
967.175	1885.16
967.348	1450.99
967.52	1520.62
967.692	2147.3
967.865	1883.11
968.037	1385.45
968.209	1821.67
968.382	1706.98
968.554	1989.6
968.726	1436.65
968.898	1422.31
969.071	1813.48
969.243	1848.29
969.415	1547.24
969.587	1557.48
969.759	2210.78
969.932	1948.64
970.104	1504.23
970.276	1229.81
970.448	1551.34
970.62	1571.82
970.792	1573.86
970.964	1569.77
971.136	2098.14
971.308	1831.91
971.48	1483.75
971.652	1414.12
971.824	2028.51
971.996	1604.58
972.168	1565.67
972.339	1479.66
972.511	1985.51
972.683	1635.3
972.855	1756.13
973.027	1311.72
973.199	1582.06
973.37	1958.88
973.542	1512.42
973.714	1655.78
973.886	1674.21
974.057	1897.44
974.229	1238
974.401	1397.74
974.572	1293.29
974.744	1205.23
974.915	1350.64
975.087	1295.34
975.259	1909.73
975.43	1489.9
975.602	1465.32
975.773	1274.86
975.945	1391.59
976.116	1793
976.288	1289.2
976.459	1537
976.63	1457.13
976.802	1692.65
976.973	1342.44
977.145	1493.99
977.316	2116.58
977.487	1721.32
977.659	1500.14
977.83	1455.08
978.001	1971.17
978.172	1479.66
978.344	1168.37
978.515	1324.01
978.686	1520.62
978.857	1829.86
979.028	1381.35
979.2	1250.28
979.371	1760.23
979.542	1520.62
979.713	1487.85
979.884	893.94
980.055	1342.44
980.226	1434.6
980.397	1276.91
980.568	1117.17
980.739	1854.44
980.91	1477.61
981.081	1469.42
981.252	1281
981.423	1577.96
981.594	1666.02
981.765	1190.89
981.936	1465.32
982.106	1545.19
982.277	1745.89
982.448	1346.54
982.619	1479.66
982.79	1405.93
982.96	1706.98
983.131	1418.22
983.302	1164.27
983.472	1362.92
983.643	1555.43
983.814	1330.16
983.984	1100.78
984.155	1485.8
984.326	1594.34
984.496	1315.82
984.667	1184.75
984.837	1231.85
985.008	1709.03
985.178	1360.88
985.349	1238
985.519	1346.54
985.69	1307.63
985.86	1264.62
986.031	1094.64
986.201	1455.08
986.371	1543.14
986.542	1025.01
986.712	1051.63
986.882	1500.14
987.053	1565.67
987.223	1039.34
987.393	1475.56
987.563	1254.38
987.734	1582.06
987.904	1403.88
988.074	1065.97
988.244	1405.93
988.414	1221.61
988.585	1119.21
988.755	1264.62
988.925	1389.55
989.095	1731.56
989.265	1033.2
989.435	1229.81
989.605	1457.13
989.775	1577.96
989.945	1473.51
990.115	1006.58
990.285	1350.64
990.455	1414.12
990.625	1301.48
990.795	1031.15
990.965	1635.3
991.134	1143.79
991.304	992.24
991.474	1055.73
991.644	1410.03
991.814	1811.43
991.984	891.89
992.153	922.61
992.323	1262.57
992.493	1377.26
992.662	875.51
992.832	1233.9
993.002	1285.1
993.171	1395.69
993.341	922.61
993.511	1225.71
993.68	1180.65
993.85	1389.55
994.019	855.03
994.189	867.31
994.358	1215.47
994.528	1143.79
994.697	670.71
994.867	873.46
995.036	1469.42
995.206	1336.3
995.375	1051.63
995.544	1125.36
995.714	1381.35
995.883	1219.57
996.052	1244.14
996.222	717.81
996.391	1688.55
996.56	1315.82
996.73	824.31
996.899	803.83
997.068	1610.73
997.237	1313.77
997.406	852.98
997.576	842.74
997.745	1270.76
997.914	1274.86
998.083	734.2
998.252	1033.2
998.421	1190.89
998.59	1018.86
998.759	795.64
998.928	726
999.097	1461.23
999.266	1379.31
999.435	1025.01
999.604	754.68
999.773	1680.36
999.942	1090.54
1000.111	726
1000.28	642.04
1000.448	951.28
1000.617	941.04
1000.786	1065.97
1000.955	672.76
1001.124	1311.72
1001.292	1774.56
1001.461	857.07
1001.63	766.96
1001.798	1455.08
1001.967	1471.47
1002.136	687.09
1002.304	723.96
1002.473	1190.89
1002.642	1180.65
1002.81	938.99
1002.979	885.75
1003.147	1270.76
1003.316	1704.93
1003.484	795.64
1003.653	764.92
1003.821	1434.6
1003.99	1149.93
1004.158	918.51
1004.327	1006.58
1004.495	1285.1
1004.663	848.88
1004.832	943.09
1005	666.61
1005.168	1162.22
1005.337	1078.26
1005.505	672.76
1005.673	996.34
1005.842	1225.71
1006.01	1221.61
1006.178	754.68
1006.346	580.6
1006.514	1229.81
1006.683	1438.7
1006.851	635.89
1007.019	601.08
1007.187	893.94
1007.355	631.8
1007.523	490.49
1007.691	517.11
1007.859	680.95
1008.027	1389.55
1008.195	746.48
1008.363	590.84
1008.531	1164.27
1008.699	904.18
1008.867	529.4
1009.035	676.85
1009.203	1313.77
1009.37	963.57
1009.538	721.91
1009.706	1065.97
1009.874	969.71
1010.042	1090.54
1010.209	492.54
1010.377	644.09
1010.545	1201.13
1010.713	992.24
1010.88	639.99
1011.048	709.62
1011.216	936.95
1011.383	1250.28
1011.551	642.04
1011.718	594.93
1011.886	1285.1
1012.054	1012.72
1012.221	605.17
1012.389	510.97
1012.556	893.94
1012.724	1356.78
1012.891	637.94
1013.058	427
1013.226	1113.07
1013.393	1063.92
1013.561	517.11
1013.728	449.53
1013.895	1151.98
1014.063	1010.67
1014.23	482.3
1014.397	558.07
1014.565	1111.02
1014.732	918.51
1014.899	494.58
1015.066	465.91
1015.233	928.75
1015.401	1141.74
1015.568	601.08
1015.735	631.8
1015.902	873.46
1016.069	1080.3
1016.236	486.39
1016.403	480.25
1016.57	756.72
1016.737	1006.58
1016.904	574.46
1017.071	412.67
1017.238	709.62
1017.405	1047.54
1017.572	504.82
1017.739	672.76
1017.906	1035.25
1018.073	1014.77
1018.24	435.19
1018.407	650.23
1018.573	1102.83
1018.74	760.82
1018.907	601.08
1019.074	373.75
1019.241	1070.06
1019.407	713.72
1019.574	429.05
1019.741	347.13
1019.907	979.95
1020.074	922.61
1020.241	297.98
1020.407	336.89
1020.574	879.6
1020.74	1047.54
1020.907	539.64
1021.073	386.04
1021.24	1283.05
1021.406	1215.47
1021.573	404.47
1021.739	427
1021.906	1092.59
1022.072	846.84
1022.239	427
1022.405	513.02
1022.571	863.22
1022.738	633.85
1022.904	404.47
1023.07	564.22
1023.237	791.54
1023.403	1131.5
1023.569	459.77
1023.735	381.95
1023.902	877.55
1024.068	822.26
1024.234	285.69
1024.4	330.75
1024.566	812.02
1024.732	912.37
1024.898	504.82
1025.065	304.12
1025.231	1014.77
1025.397	664.57
1025.563	383.99
1025.729	388.09
1025.895	281.6
1026.061	508.92
1026.227	361.47
1026.392	472.06
1026.558	977.91
1026.724	848.88
1026.89	316.41
1027.056	533.5
1027.222	877.55
1027.388	670.71
1027.553	353.27
1027.719	291.84
1027.885	1098.74
1028.051	812.02
1028.216	201.72
1028.382	343.03
1028.548	988.14
1028.713	574.46
1028.879	214.01
1029.045	461.82
1029.21	1002.48
1029.376	1004.53
1029.541	347.13
1029.707	340.99
1029.873	797.68
1030.038	988.14
1030.204	318.46
1030.369	386.04
1030.534	797.68
1030.7	623.61
1030.865	289.79
1031.031	297.98
1031.196	736.24
1031.361	730.1
1031.527	394.23
1031.692	138.24
1031.857	281.6
1032.023	936.95
1032.188	281.6
1032.353	324.6
1032.518	955.38
1032.684	752.63
1032.849	218.11
1033.014	355.32
1033.179	746.48
1033.344	799.73
1033.509	386.04
1033.674	236.54
1033.839	908.27
1034.004	873.46
1034.17	275.45
1034.335	209.92
1034.5	506.87
1034.664	515.06
1034.829	187.39
1034.994	300.03
1035.159	711.67
1035.324	699.38
1035.489	261.12
1035.654	193.53
1035.819	965.62
1035.984	779.25
1036.148	353.27
1036.313	226.3
1036.478	836.6
1036.643	599.03
1036.807	148.48
1036.972	177.15
1037.137	1010.67
1037.301	685.05
1037.466	72.7
1037.631	328.7
1037.795	818.16
1037.96	668.66
1038.124	410.62
1038.289	46.08
1038.454	627.7
1038.618	760.82
1038.783	257.02
1038.947	338.94
1039.111	631.8
1039.276	427
1039.44	236.54
1039.605	615.41
1039.769	480.25
1039.933	486.39
1040.098	267.26
1040.262	484.34
1040.426	797.68
1040.591	809.97
1040.755	173.05
1040.919	166.91
1041.083	746.48
1041.248	467.96
1041.412	111.61
1041.576	99.33
1041.74	435.19
1041.904	760.82
1042.068	99.33
1042.232	263.16
1042.397	773.11
1042.561	639.99
1042.725	-44.03
1042.889	306.17
1043.053	732.15
1043.217	685.05
1043.381	320.51
1043.544	35.84
1043.708	832.5
1043.872	295.93
1044.036	-107.52
1044.2	7.17
1044.364	748.53
1044.528	926.71
1044.691	1569.77
1044.855	23.55
1045.019	744.44
1045.183	633.85
1045.346	300.03
1045.51	93.18
1045.674	672.76
1045.837	631.8
1046.001	244.73
1046.165	72.7
1046.328	1106.93
1046.492	531.45
1046.655	291.84
1046.819	193.53
1046.983	451.58
1047.146	654.33
1047.31	218.11
1047.473	-3.07
1047.636	541.69
1047.8	318.46
1047.963	117.76
1048.127	-3.07
1048.29	363.51
