Data from Ink_Intensity_USB4F045381__57__00057.txt Node

Date: Mon Jul 17 10:22:00 EDT 2023
User: mmckonesweet
Spectrometer: USB4F04538
Trigger mode: 4
Integration Time (sec): 9.000000E-1
Scans to average: 1
Electric dark correction enabled: true
Nonlinearity correction enabled: false
Boxcar width: 0
XAxis mode: Wavelengths
Number of Pixels in Spectrum: 3648
>>>>>Begin Spectral Data<<<<<
345.52	-1052.14
345.736	-1052.14
345.952	-1052.14
346.168	-1011.18
346.384	-1007.09
346.6	-144.89
346.816	-157.18
347.032	-208.38
347.248	313.85
347.464	-210.43
347.68	-56.83
347.896	125.44
348.112	375.29
348.328	-73.21
348.544	-97.79
348.76	-24.06
348.975	158.21
349.191	-192
349.407	-157.18
349.623	-15.87
349.839	-120.32
350.055	-134.65
350.27	47.62
350.486	205.31
350.702	356.86
350.918	254.46
351.133	-210.43
351.349	137.73
351.565	391.67
351.781	-290.3
351.996	-50.69
352.212	379.39
352.428	-169.47
352.644	-183.81
352.859	-157.18
353.075	283.13
353.291	37.38
353.506	-60.93
353.722	-181.76
353.938	-52.74
354.153	397.82
354.369	98.81
354.584	-212.48
354.8	211.45
355.016	-296.44
355.231	-177.66
355.447	-69.12
355.662	37.38
355.878	819.7
356.093	-308.73
356.309	25.09
356.524	-183.81
356.74	307.71
356.955	-181.76
357.171	-38.4
357.386	125.44
357.602	-212.48
357.817	-101.89
358.033	-114.17
358.248	389.63
358.464	88.57
358.679	-142.85
358.895	-304.64
359.11	33.28
359.325	338.43
359.541	47.62
359.756	-28.16
359.972	-286.2
360.187	227.84
360.402	-167.42
360.618	-148.99
360.833	969.2
361.048	188.93
361.264	-126.46
361.479	-87.55
361.694	66.05
361.909	154.11
362.125	-179.71
362.34	-42.5
362.555	260.6
362.77	117.25
362.986	-230.91
363.201	-126.46
363.416	115.2
363.631	12.8
363.847	-163.33
364.062	-122.37
364.277	221.69
364.492	109.05
364.707	-210.43
364.922	-329.21
365.138	254.46
365.353	336.38
365.568	-220.67
365.783	-179.71
365.998	86.53
366.213	461.3
366.428	-302.59
366.643	-26.11
366.858	260.6
367.073	190.97
367.288	-93.69
367.503	-267.77
367.718	168.45
367.933	322.04
368.148	-243.2
368.363	-91.65
368.578	-65.02
368.793	401.91
369.008	-159.23
369.223	-230.91
369.438	231.93
369.653	444.92
369.868	-224.76
370.083	-212.48
370.298	55.81
370.513	377.34
370.728	51.71
370.943	-151.04
371.157	-192
371.372	516.6
371.587	-179.71
371.802	-187.9
372.017	20.99
372.232	432.63
372.446	-52.74
372.661	-165.37
372.876	209.4
373.091	193.02
373.306	-69.12
373.52	-196.09
373.735	-159.23
373.95	367.1
374.165	-87.55
374.379	-259.58
374.594	-85.5
374.809	170.49
375.023	-1.54
375.238	-206.33
375.453	168.45
375.667	-179.71
375.882	-167.42
376.097	-196.09
376.311	94.72
376.526	-19.97
376.741	-189.95
376.955	27.14
377.17	537.08
377.384	575.99
377.599	-136.7
377.813	-245.24
378.028	647.67
378.242	166.4
378.457	-60.93
378.672	-275.96
378.886	127.49
379.101	-3.58
379.315	-294.4
379.53	-194.05
379.744	219.64
379.958	207.36
380.173	-75.26
380.387	-169.47
380.602	178.69
380.816	-62.98
381.031	-130.56
381.245	-67.07
381.459	180.73
381.674	2664.92
381.888	-218.62
382.103	0.51
382.317	-177.66
382.531	412.15
382.746	-75.26
382.96	-146.94
383.174	-24.06
383.388	424.44
383.603	156.16
383.817	-280.06
384.031	111.1
384.246	520.7
384.46	2.56
384.674	363
384.888	57.86
385.103	107.01
385.317	-310.78
385.531	72.19
385.745	287.23
385.959	285.18
386.174	-165.37
386.388	-159.23
386.602	-67.07
386.816	-144.89
387.03	-93.69
387.244	-105.98
387.458	12.8
387.672	393.72
387.887	-196.09
388.101	-257.53
388.315	348.67
388.529	127.49
388.743	-105.98
388.957	-228.86
389.171	348.67
389.385	-249.34
389.599	-81.41
389.813	53.76
390.027	193.02
390.241	643.57
390.455	-103.93
390.669	-148.99
390.883	-26.11
391.097	408.06
391.311	-9.73
391.525	-194.05
391.738	160.25
391.952	254.46
392.166	-60.93
392.38	-183.81
392.594	324.09
392.808	305.66
393.022	-77.31
393.236	-153.09
393.449	199.16
393.663	186.88
393.877	-271.87
394.091	-118.27
394.305	-62.98
394.518	-19.97
394.732	-253.44
394.946	-171.52
395.16	442.87
395.373	227.84
395.587	-189.95
395.801	-167.42
396.015	303.61
396.228	182.78
396.442	-142.85
396.656	-333.31
396.869	295.42
397.083	487.93
397.297	-93.69
397.51	-175.61
397.724	356.86
397.938	166.4
398.151	-275.96
398.365	-257.53
398.578	209.4
398.792	401.91
399.005	-7.68
399.219	-91.65
399.433	203.26
399.646	211.45
399.86	47.62
400.073	-36.35
400.287	205.31
400.5	47.62
400.714	59.9
400.927	-50.69
401.141	201.21
401.354	1065.46
401.567	215.55
401.781	-235
401.994	215.55
402.208	619
402.421	-105.98
402.635	-112.13
402.848	31.23
403.061	299.52
403.275	8.7
403.488	-228.86
403.701	389.63
403.915	283.13
404.128	53.76
404.341	-91.65
404.555	281.08
404.768	74.24
404.981	51.71
405.195	-171.52
405.408	506.36
405.621	283.13
405.834	-34.3
406.048	-265.72
406.261	332.28
406.474	406.01
406.687	-232.96
406.9	16.9
407.114	47.62
407.327	158.21
407.54	-251.39
407.753	-255.48
407.966	-60.93
408.179	213.5
408.392	-235
408.605	-249.34
408.819	233.98
409.032	176.64
409.245	-196.09
409.458	-1.54
409.671	338.43
409.884	219.64
410.097	-214.52
410.31	-19.97
410.523	201.21
410.736	29.18
410.949	-67.07
411.162	-85.5
411.375	432.63
411.588	332.28
411.801	53.76
412.014	-228.86
412.227	102.91
412.44	8.7
412.653	-179.71
412.865	-1.54
413.078	315.9
413.291	250.36
413.504	-40.45
413.717	-194.05
413.93	221.69
414.143	-58.88
414.356	-144.89
414.568	-310.78
414.781	299.52
414.994	176.64
415.207	-58.88
415.42	-116.22
415.632	279.04
415.845	551.42
416.058	-282.11
416.271	-212.48
416.483	100.86
416.696	524.79
416.909	-146.94
417.121	-196.09
417.334	141.82
417.547	492.02
417.759	-196.09
417.972	-110.08
418.185	-52.74
418.397	242.17
418.61	-165.37
418.823	-159.23
419.035	416.25
419.248	59.9
419.46	-89.6
419.673	-99.84
419.885	293.37
420.098	57.86
420.311	-179.71
420.523	-345.59
420.736	180.73
420.948	70.14
421.161	-181.76
421.373	-343.55
421.586	147.97
421.798	-42.5
422.01	-290.3
422.223	-38.4
422.435	-81.41
422.648	184.83
422.86	-159.23
423.073	-120.32
423.285	344.57
423.497	-228.86
423.71	-128.51
423.922	-204.28
424.134	72.19
424.347	397.82
424.559	12.8
424.771	47.62
424.984	-11.78
425.196	221.69
425.408	-288.25
425.621	-249.34
425.833	225.79
426.045	332.28
426.257	-235
426.47	-173.57
426.682	178.69
426.894	272.89
427.106	-159.23
427.318	-11.78
427.531	-85.5
427.743	248.32
427.955	-187.9
428.167	217.6
428.379	145.92
428.591	78.33
428.804	-77.31
429.016	-228.86
429.228	2.56
429.44	61.95
429.652	18.94
429.864	-296.44
430.076	104.96
430.288	16.9
430.5	-122.37
430.712	-81.41
430.924	328.19
431.136	74.24
431.348	-368.12
431.56	-189.95
431.772	115.2
431.984	-11.78
432.196	-243.2
432.408	-101.89
432.62	-1.54
432.832	127.49
433.044	49.66
433.256	-77.31
433.468	188.93
433.679	-128.51
433.891	-192
434.103	6.66
434.315	307.71
434.527	199.16
434.739	-42.5
434.95	-126.46
435.162	285.18
435.374	-85.5
435.586	-95.74
435.798	-177.66
436.009	-232.96
436.221	12.8
436.433	-206.33
436.645	-75.26
436.856	-132.61
437.068	320
437.28	-185.85
437.491	188.93
437.703	129.53
437.915	119.29
438.126	-159.23
438.338	31.23
438.55	66.05
438.761	217.6
438.973	-196.09
439.184	-122.37
439.396	23.04
439.608	227.84
439.819	-159.23
440.031	-28.16
440.242	150.01
440.454	266.75
440.665	-105.98
440.877	-95.74
441.088	254.46
441.3	92.67
441.511	-257.53
441.723	-273.92
441.934	107.01
442.146	33.28
442.357	-34.3
442.569	57.86
442.78	33.28
442.991	436.73
443.203	193.02
443.414	-218.62
443.626	315.9
443.837	-142.85
444.048	-253.44
444.26	-298.49
444.471	127.49
444.682	291.32
444.894	-335.35
445.105	-337.4
445.316	260.6
445.528	164.35
445.739	-132.61
445.95	-124.41
446.161	174.59
446.373	338.43
446.584	-130.56
446.795	-169.47
447.006	238.08
447.217	487.93
447.429	-331.26
447.64	-235
447.851	322.04
448.062	98.81
448.273	-364.03
448.484	-261.63
448.695	219.64
448.907	-40.45
449.118	-19.97
449.329	49.66
449.54	-67.07
449.751	-108.03
449.962	-175.61
450.173	-140.8
450.384	291.32
450.595	328.19
450.806	-224.76
451.017	-112.13
451.228	303.61
451.439	297.47
451.65	-171.52
451.861	-302.59
452.072	-136.7
452.283	-5.63
452.494	-1.54
452.705	-257.53
452.915	358.91
453.126	156.16
453.337	-179.71
453.548	-273.92
453.759	299.52
453.97	561.66
454.181	88.57
454.391	-151.04
454.602	129.53
454.813	96.77
455.024	-126.46
455.235	-220.67
455.445	139.77
455.656	223.74
455.867	-85.5
456.078	-247.29
456.288	23.04
456.499	129.53
456.71	-241.15
456.921	115.2
457.131	166.4
457.342	66.05
457.553	-165.37
457.763	-235
457.974	227.84
458.184	250.36
458.395	-200.19
458.606	-208.38
458.816	266.75
459.027	563.7
459.237	-103.93
459.448	-327.16
459.659	391.67
459.869	563.7
460.08	-331.26
460.29	-105.98
460.501	485.88
460.711	-58.88
460.922	-290.3
461.132	-228.86
461.343	692.73
461.553	-179.71
461.764	-189.95
461.974	-187.9
462.184	201.21
462.395	45.57
462.605	-134.65
462.816	-212.48
463.026	107.01
463.236	336.38
463.447	-241.15
463.657	-245.24
463.867	365.05
464.078	90.62
464.288	-118.27
464.498	-243.2
464.709	107.01
464.919	-22.02
465.129	-85.5
465.339	-206.33
465.55	190.97
465.76	201.21
465.97	-151.04
466.18	-235
466.391	254.46
466.601	236.03
466.811	-126.46
467.021	-275.96
467.231	102.91
467.441	373.24
467.651	-126.46
467.862	-384.51
468.072	64
468.282	406.01
468.492	-245.24
468.702	-206.33
468.912	94.72
469.122	520.7
469.332	55.81
469.542	-198.14
469.752	217.6
469.962	139.77
470.172	-243.2
470.382	-212.48
470.592	262.65
470.802	332.28
471.012	-136.7
471.222	-296.44
471.432	303.61
471.642	309.76
471.852	-73.21
472.062	-275.96
472.272	-54.78
472.482	-212.48
472.691	-278.01
472.901	-286.2
473.111	55.81
473.321	487.93
473.531	-286.2
473.741	-38.4
473.95	76.29
474.16	303.61
474.37	-93.69
474.58	-278.01
474.79	483.83
474.999	199.16
475.209	-290.3
475.419	-187.9
475.628	31.23
475.838	305.66
476.048	-155.13
476.258	-351.74
476.467	350.71
476.677	-85.5
476.886	27.14
477.096	-148.99
477.306	-97.79
477.515	379.39
477.725	-58.88
477.935	-165.37
478.144	381.43
478.354	-142.85
478.563	-77.31
478.773	-259.58
478.982	205.31
479.192	363
479.401	-69.12
479.611	-249.34
479.82	-138.75
480.03	127.49
480.239	-253.44
480.449	-255.48
480.658	434.68
480.868	-83.45
481.077	-101.89
481.287	-148.99
481.496	213.5
481.705	479.74
481.915	121.34
482.124	53.76
482.333	123.39
482.543	358.91
482.752	-77.31
482.961	-251.39
483.171	256.51
483.38	82.43
483.589	-155.13
483.799	-239.1
484.008	8.7
484.217	303.61
484.426	-249.34
484.636	-288.25
484.845	94.72
485.054	-101.89
485.263	51.71
485.472	-146.94
485.682	383.48
485.891	180.73
486.1	-314.88
486.309	-245.24
486.518	156.16
486.727	360.95
486.936	-269.82
487.146	-89.6
487.355	410.11
487.564	-181.76
487.773	-243.2
487.982	-185.85
488.191	-15.87
488.4	43.52
488.609	-232.96
488.818	-241.15
489.027	680.44
489.236	326.14
489.445	-173.57
489.654	-280.06
489.863	209.4
490.072	14.85
490.281	135.68
490.49	-200.19
490.698	393.72
490.907	367.1
491.116	-146.94
491.325	-278.01
491.534	336.38
491.743	119.29
491.952	-155.13
492.16	-163.33
492.369	109.05
492.578	274.94
492.787	-108.03
492.996	-304.64
493.204	-163.33
493.413	532.98
493.622	-398.84
493.831	-282.11
494.039	391.67
494.248	-54.78
494.457	-187.9
494.665	-321.02
494.874	236.03
495.083	561.66
495.291	-159.23
495.5	-245.24
495.709	268.8
495.917	78.33
496.126	-52.74
496.335	-251.39
496.543	-105.98
496.752	152.06
496.96	-46.59
497.169	-327.16
497.377	-17.92
497.586	373.24
497.794	-122.37
498.003	-257.53
498.211	88.57
498.42	438.78
498.628	-114.17
498.837	-280.06
499.045	123.39
499.254	96.77
499.462	-228.86
499.671	-218.62
499.879	344.57
500.087	369.15
500.296	-204.28
500.504	-124.41
500.713	115.2
500.921	567.8
501.129	-278.01
501.338	-192
501.546	168.45
501.754	117.25
501.962	-183.81
502.171	-220.67
502.379	102.91
502.587	504.31
502.795	-165.37
503.004	-165.37
503.212	61.95
503.42	330.23
503.628	-210.43
503.837	-44.54
504.045	238.08
504.253	539.13
504.461	-189.95
504.669	-345.59
504.877	166.4
505.085	444.92
505.294	-345.59
505.502	-50.69
505.71	64
505.918	344.57
506.126	-273.92
506.334	-253.44
506.542	115.2
506.75	164.35
506.958	-142.85
507.166	-179.71
507.374	-13.82
507.582	446.97
507.79	-118.27
507.998	-318.97
508.206	8.7
508.414	100.86
508.622	-220.67
508.83	-175.61
509.037	461.3
509.245	117.25
509.453	-249.34
509.661	-284.16
509.869	258.56
510.077	-50.69
510.285	-95.74
510.492	-452.09
510.7	563.7
510.908	-65.02
511.116	-198.14
511.324	-241.15
511.531	-3.58
511.739	64
511.947	-38.4
512.155	78.33
512.362	117.25
512.57	-112.13
512.778	-196.09
512.985	-384.51
513.193	336.38
513.401	416.25
513.608	-103.93
513.816	-220.67
514.024	229.88
514.231	412.15
514.439	-185.85
514.646	-173.57
514.854	266.75
515.061	289.28
515.269	-273.92
515.477	-151.04
515.684	-83.45
515.892	252.41
516.099	-280.06
516.307	-353.79
516.514	211.45
516.722	379.39
516.929	-171.52
517.136	-286.2
517.344	469.5
517.551	133.63
517.759	-241.15
517.966	-183.81
518.173	-19.97
518.381	141.82
518.588	-99.84
518.796	-239.1
519.003	295.42
519.21	129.53
519.418	-241.15
519.625	57.86
519.832	74.24
520.039	254.46
520.247	-323.07
520.454	-249.34
520.661	369.15
520.868	205.31
521.076	-175.61
521.283	-144.89
521.49	670.2
521.697	217.6
521.904	-278.01
522.112	-198.14
522.319	328.19
522.526	182.78
522.733	-259.58
522.94	-239.1
523.147	80.38
523.354	229.88
523.561	-380.41
523.768	-132.61
523.975	367.1
524.183	78.33
524.39	-128.51
524.597	-216.57
524.804	16.9
525.011	-175.61
525.218	-308.73
525.425	-253.44
525.632	385.53
525.838	8.7
526.045	-202.24
526.252	-243.2
526.459	1073.65
526.666	889.33
526.873	-290.3
527.08	-249.34
527.287	399.87
527.494	203.26
527.701	-310.78
527.907	-159.23
528.114	199.16
528.321	47.62
528.528	-189.95
528.735	-239.1
528.941	-50.69
529.148	-56.83
529.355	-60.93
529.562	-218.62
529.768	295.42
529.975	74.24
530.182	-177.66
530.388	-247.29
530.595	299.52
530.802	-167.42
531.008	-108.03
531.215	-114.17
531.422	645.62
531.628	803.32
531.835	-204.28
532.042	-118.27
532.248	2.56
532.455	104.96
532.661	-155.13
532.868	-198.14
533.074	135.68
533.281	301.56
533.487	-183.81
533.694	-237.05
533.9	-95.74
534.107	211.45
534.313	-208.38
534.52	-339.45
534.726	369.15
534.933	543.22
535.139	-329.21
535.345	-296.44
535.552	61.95
535.758	61.95
535.965	-210.43
536.171	-235
536.377	274.94
536.584	389.63
536.79	-142.85
536.996	-169.47
537.203	184.83
537.409	182.78
537.615	-222.72
537.821	-56.83
538.028	229.88
538.234	291.32
538.44	-210.43
538.646	-112.13
538.853	238.08
539.059	18.94
539.265	147.97
539.471	-343.55
539.677	326.14
539.883	12.8
540.09	-263.68
540.296	195.07
540.502	-17.92
540.708	-77.31
540.914	-50.69
541.12	-189.95
541.326	209.4
541.532	57.86
541.738	-48.64
541.944	-114.17
542.15	334.33
542.356	-54.78
542.562	-237.05
542.768	-93.69
542.974	678.39
543.18	635.38
543.386	-196.09
543.592	-282.11
543.798	416.25
544.004	338.43
544.21	-216.57
544.415	-71.17
544.621	215.55
544.827	254.46
545.033	-323.07
545.239	64
545.445	-89.6
545.651	242.17
545.856	-257.53
546.062	-192
546.268	-5.63
546.474	76.29
546.679	-112.13
546.885	-216.57
547.091	-17.92
547.297	487.93
547.502	-118.27
547.708	-228.86
547.914	-46.59
548.119	266.75
548.325	-257.53
548.531	-316.92
548.736	408.06
548.942	-77.31
549.147	-214.52
549.353	74.24
549.559	344.57
549.764	125.44
549.97	-122.37
550.175	-192
550.381	221.69
550.586	-58.88
550.792	-138.75
550.997	-267.77
551.203	322.04
551.408	270.84
551.614	-204.28
551.819	-204.28
552.025	502.26
552.23	537.08
552.435	-232.96
552.641	-24.06
552.846	-48.64
553.052	367.1
553.257	-77.31
553.462	-165.37
553.668	-52.74
553.873	205.31
554.078	-212.48
554.283	-224.76
554.489	129.53
554.694	113.15
554.899	-253.44
555.105	-1.54
555.31	260.6
555.515	225.79
555.72	-81.41
555.925	-216.57
556.131	229.88
556.336	-24.06
556.541	-228.86
556.746	-208.38
556.951	471.54
557.156	500.22
557.361	-11.78
557.567	-93.69
557.772	565.75
557.977	268.8
558.182	-269.82
558.387	-237.05
558.592	-1.54
558.797	377.34
559.002	-87.55
559.207	-97.79
559.412	121.34
559.617	463.35
559.822	-153.09
560.027	-237.05
560.232	193.02
560.437	338.43
560.642	-339.45
560.847	-337.4
561.051	70.14
561.256	74.24
561.461	-118.27
561.666	-251.39
561.871	133.63
562.076	164.35
562.281	-91.65
562.485	-259.58
562.69	320
562.895	336.38
563.1	-146.94
563.305	-243.2
563.509	334.33
563.714	635.38
563.919	-230.91
564.123	-200.19
564.328	115.2
564.533	432.63
564.737	-116.22
564.942	-181.76
565.147	403.96
565.351	592.37
565.556	-36.35
565.761	-116.22
565.965	104.96
566.17	16.9
566.374	-181.76
566.579	-333.31
566.784	182.78
566.988	-38.4
567.193	-339.45
567.397	-171.52
567.602	-140.8
567.806	74.24
568.011	-126.46
568.215	-54.78
568.42	41.47
568.624	57.86
568.828	-171.52
569.033	27.14
569.237	313.85
569.442	184.83
569.646	-204.28
569.85	-128.51
570.055	57.86
570.259	160.25
570.463	10.75
570.668	-163.33
570.872	68.09
571.076	78.33
571.281	-116.22
571.485	-17.92
571.689	143.87
571.893	336.38
572.098	20.99
572.302	-110.08
572.506	258.56
572.71	107.01
572.914	-93.69
573.119	-132.61
573.323	446.97
573.527	410.11
573.731	-163.33
573.935	-237.05
574.139	213.5
574.343	-110.08
574.547	-134.65
574.751	-230.91
574.955	465.4
575.159	506.36
575.364	-189.95
575.568	-306.68
575.772	76.29
575.976	424.44
576.18	-212.48
576.383	-345.59
576.587	403.96
576.791	219.64
576.995	-298.49
577.199	-290.3
577.403	422.39
577.607	342.52
577.811	-196.09
578.015	-101.89
578.219	231.93
578.422	360.95
578.626	-151.04
578.83	-11.78
579.034	360.95
579.238	182.78
579.442	-198.14
579.645	184.83
579.849	184.83
580.053	111.1
580.257	-175.61
580.46	-83.45
580.664	344.57
580.868	240.12
581.071	-81.41
581.275	8.7
581.479	-165.37
581.682	233.98
581.886	-114.17
582.09	-75.26
582.293	354.81
582.497	403.96
582.7	2.56
582.904	-237.05
583.107	186.88
583.311	33.28
583.515	-136.7
583.718	-146.94
583.922	201.21
584.125	608.76
584.329	-214.52
584.532	68.09
584.735	389.63
584.939	244.22
585.142	-359.93
585.346	-239.1
585.549	199.16
585.753	49.66
585.956	-110.08
586.159	-108.03
586.363	586.23
586.566	242.17
586.769	-155.13
586.973	-216.57
587.176	201.21
587.379	436.73
587.582	186.88
587.786	86.53
587.989	121.34
588.192	778.74
588.395	-69.12
588.599	195.07
588.802	293.37
589.005	258.56
589.208	-85.5
589.411	-77.31
589.615	354.81
589.818	518.65
590.021	98.81
590.224	-38.4
590.427	344.57
590.63	334.33
590.833	-271.87
591.036	-130.56
591.239	57.86
591.442	55.81
591.645	96.77
591.848	-122.37
592.051	236.03
592.254	309.76
592.457	-85.5
592.66	-48.64
592.863	141.82
593.066	262.65
593.269	-114.17
593.472	2.56
593.675	-7.68
593.878	348.67
594.081	-34.3
594.284	-189.95
594.486	315.9
594.689	242.17
594.892	-32.26
595.095	-77.31
595.298	299.52
595.5	90.62
595.703	66.05
595.906	-34.3
596.109	535.03
596.311	350.71
596.514	-318.97
596.717	-11.78
596.92	373.24
597.122	213.5
597.325	-331.26
597.528	-110.08
597.73	406.01
597.933	180.73
598.136	-148.99
598.338	-325.12
598.541	328.19
598.743	401.91
598.946	-134.65
599.148	-77.31
599.351	446.97
599.554	397.82
599.756	88.57
599.959	-138.75
600.161	442.87
600.363	713.21
600.566	164.35
600.768	-118.27
600.971	606.71
601.173	371.19
601.376	-118.27
601.578	-89.6
601.78	248.32
601.983	786.93
602.185	-187.9
602.388	115.2
602.59	307.71
602.792	76.29
602.995	94.72
603.197	-105.98
603.399	416.25
603.601	279.04
603.804	-32.26
604.006	-28.16
604.208	129.53
604.41	-245.24
604.613	102.91
604.815	-126.46
605.017	655.86
605.219	35.33
605.421	238.08
605.623	-85.5
605.826	477.69
606.028	520.7
606.23	-124.41
606.432	-65.02
606.634	653.81
606.836	465.4
607.038	-187.9
607.24	59.9
607.442	133.63
607.644	254.46
607.846	96.77
608.048	-85.5
608.25	504.31
608.452	70.14
608.654	-108.03
608.856	-235
609.058	152.06
609.26	256.51
609.462	6.66
609.664	-65.02
609.866	602.61
610.067	360.95
610.269	102.91
610.471	-52.74
610.673	176.64
610.875	334.33
611.077	-151.04
611.278	61.95
611.48	160.25
611.682	559.61
611.884	57.86
612.085	-60.93
612.287	-42.5
612.489	350.71
612.69	-239.1
612.892	-24.06
613.094	475.64
613.295	348.67
613.497	-159.23
613.699	-81.41
613.9	520.7
614.102	418.3
614.304	12.8
614.505	-192
614.707	172.54
614.908	252.41
615.11	-116.22
615.311	-38.4
615.513	354.81
615.714	414.2
615.916	-116.22
616.117	-32.26
616.319	141.82
616.52	356.86
616.722	-30.21
616.923	-114.17
617.124	463.35
617.326	315.9
617.527	8.7
617.729	131.58
617.93	330.23
618.131	397.82
618.333	-19.97
618.534	88.57
618.735	-73.21
618.937	575.99
619.138	-232.96
619.339	-101.89
619.54	311.8
619.742	98.81
619.943	176.64
620.144	82.43
620.345	338.43
620.546	500.22
620.748	-110.08
620.949	-50.69
621.15	272.89
621.351	336.38
621.552	-67.07
621.753	-165.37
621.954	-144.89
622.155	668.15
622.356	-151.04
622.558	12.8
622.759	195.07
622.96	623.09
623.161	-15.87
623.362	31.23
623.563	276.99
623.764	305.66
623.965	-48.64
624.166	102.91
624.366	137.73
624.567	377.34
624.768	-316.92
624.969	-116.22
625.17	197.12
625.371	324.09
625.572	-7.68
625.773	-153.09
625.973	403.96
626.174	369.15
626.375	86.53
626.576	31.23
626.777	340.47
626.977	694.77
627.178	-83.45
627.379	133.63
627.58	229.88
627.78	262.65
627.981	33.28
628.182	70.14
628.382	481.78
628.583	-62.98
628.784	-79.36
628.984	162.3
629.185	459.26
629.386	473.59
629.586	20.99
629.787	-177.66
629.987	434.68
630.188	203.26
630.388	-19.97
630.589	12.8
630.79	877.04
630.99	299.52
631.191	61.95
631.391	64
631.591	436.73
631.792	651.77
631.992	147.97
632.193	-9.73
632.393	614.9
632.594	227.84
632.794	-22.02
632.994	45.57
633.195	248.32
633.395	242.17
633.595	-83.45
633.796	184.83
633.996	96.77
634.196	506.36
634.397	-122.37
634.597	156.16
634.797	78.33
634.997	553.46
635.198	176.64
635.398	-95.74
635.598	379.39
635.798	659.96
635.998	346.62
636.199	-56.83
636.399	119.29
636.599	82.43
636.799	18.94
636.999	246.27
637.199	256.51
637.399	418.3
637.599	-42.5
637.799	131.58
637.999	80.38
638.199	549.37
638.399	-36.35
638.599	-3.58
638.799	408.06
638.999	791.03
639.199	176.64
639.399	80.38
639.599	545.27
639.799	125.44
639.999	-52.74
640.199	-62.98
640.399	340.47
640.599	367.1
640.799	39.42
640.998	221.69
641.198	575.99
641.398	342.52
641.598	90.62
641.798	20.99
641.997	1180.14
642.197	252.41
642.397	156.16
642.597	-40.45
642.796	403.96
642.996	621.05
643.196	201.21
643.395	-24.06
643.595	459.26
643.795	-5.63
643.994	111.1
644.194	47.62
644.394	561.66
644.593	281.08
644.793	-167.42
644.992	131.58
645.192	446.97
645.392	-105.98
645.591	129.53
645.791	55.81
645.99	444.92
646.19	229.88
646.389	53.76
646.589	41.47
646.788	428.54
646.987	352.76
647.187	283.13
647.386	307.71
647.586	258.56
647.785	494.07
647.984	43.52
648.184	168.45
648.383	201.21
648.582	188.93
648.782	-7.68
648.981	229.88
649.18	88.57
649.38	412.15
649.579	49.66
649.778	0.51
649.977	465.4
650.177	373.24
650.376	53.76
650.575	96.77
650.774	743.92
650.973	139.77
651.173	-140.8
651.372	107.01
651.571	391.67
651.77	500.22
651.969	16.9
652.168	135.68
652.367	37.38
652.566	438.78
652.765	29.18
652.964	324.09
653.163	784.88
653.362	272.89
653.561	33.28
653.76	-26.11
653.959	119.29
654.158	457.21
654.357	322.04
654.556	18.94
654.755	446.97
654.954	416.25
655.153	162.3
655.352	160.25
655.551	598.52
655.749	98.81
655.948	174.59
656.147	211.45
656.346	297.47
656.545	299.52
656.743	92.67
656.942	90.62
657.141	315.9
657.34	82.43
657.538	129.53
657.737	143.87
657.936	225.79
658.135	487.93
658.333	-7.68
658.532	264.7
658.731	774.64
658.929	483.83
659.128	389.63
659.326	53.76
659.525	561.66
659.724	295.42
659.922	-85.5
660.121	-91.65
660.319	381.43
660.518	178.69
660.716	-36.35
660.915	-36.35
661.113	596.47
661.312	31.23
661.51	227.84
661.709	68.09
661.907	500.22
662.105	745.97
662.304	119.29
662.502	94.72
662.701	627.19
662.899	236.03
663.097	461.3
663.296	-50.69
663.494	631.29
663.692	719.35
663.891	0.51
664.089	-34.3
664.287	377.34
664.485	571.9
664.684	-3.58
664.882	219.64
665.08	381.43
665.278	305.66
665.476	2.56
665.675	422.39
665.873	725.49
666.071	655.86
666.269	37.38
666.467	301.56
666.665	401.91
666.863	356.86
667.061	279.04
667.259	-38.4
667.457	324.09
667.655	479.74
667.853	49.66
668.051	205.31
668.249	135.68
668.447	432.63
668.645	-22.02
668.843	260.6
669.041	467.45
669.239	266.75
669.437	322.04
669.635	307.71
669.833	231.93
670.031	606.71
670.229	246.27
670.426	209.4
670.624	279.04
670.822	188.93
671.02	61.95
671.218	209.4
671.415	119.29
671.613	438.78
671.811	283.13
672.009	145.92
672.206	496.12
672.404	403.96
672.602	350.71
672.799	283.13
672.997	522.74
673.195	623.09
673.392	193.02
673.59	-32.26
673.788	565.75
673.985	10.75
674.183	229.88
674.38	127.49
674.578	588.28
674.775	258.56
674.973	45.57
675.17	53.76
675.368	709.11
675.565	571.9
675.763	168.45
675.96	33.28
676.158	713.21
676.355	317.95
676.553	96.77
676.75	180.73
676.947	424.44
677.145	225.79
677.342	291.32
677.539	303.61
677.737	332.28
677.934	836.08
678.131	354.81
678.329	68.09
678.526	795.12
678.723	543.22
678.92	250.36
679.118	205.31
679.315	86.53
679.512	756.21
679.709	225.79
679.906	260.6
680.104	610.81
680.301	606.71
680.498	86.53
680.695	104.96
680.892	219.64
681.089	258.56
681.286	258.56
681.483	33.28
681.68	547.32
681.877	631.29
682.075	205.31
682.272	436.73
682.469	453.11
682.665	197.12
682.862	0.51
683.059	-91.65
683.256	465.4
683.453	414.2
683.65	246.27
683.847	156.16
684.044	303.61
684.241	190.97
684.438	250.36
684.635	41.47
684.831	858.61
685.028	819.7
685.225	156.16
685.422	274.94
685.619	309.76
685.815	422.39
686.012	207.36
686.209	195.07
686.405	219.64
686.602	526.84
686.799	31.23
686.996	158.21
687.192	221.69
687.389	860.66
687.586	127.49
687.782	227.84
687.979	674.29
688.175	586.23
688.372	320
688.568	164.35
688.765	287.23
688.962	686.58
689.158	258.56
689.355	25.09
689.551	571.9
689.748	289.28
689.944	258.56
690.14	-1.54
690.337	604.66
690.533	260.6
690.73	270.84
690.926	236.03
691.123	530.94
691.319	309.76
691.515	53.76
691.712	276.99
691.908	539.13
692.104	465.4
692.301	303.61
692.497	-11.78
692.693	567.8
692.889	549.37
693.086	293.37
693.282	8.7
693.478	461.3
693.674	739.83
693.87	242.17
694.067	152.06
694.263	539.13
694.459	399.87
694.655	307.71
694.851	266.75
695.047	553.46
695.243	588.28
695.439	383.48
695.635	104.96
695.831	571.9
696.027	414.2
696.224	182.78
696.42	512.5
696.615	823.8
696.811	643.57
697.007	70.14
697.203	217.6
697.399	557.56
697.595	764.4
697.791	37.38
697.987	324.09
698.183	238.08
698.379	197.12
698.575	227.84
698.77	211.45
698.966	619
699.162	735.73
699.358	201.21
699.554	186.88
699.749	586.23
699.945	616.95
700.141	344.57
700.337	356.86
700.532	328.19
700.728	295.42
700.924	147.97
701.119	53.76
701.315	596.47
701.511	387.58
701.706	326.14
701.902	31.23
702.097	489.98
702.293	596.47
702.489	332.28
702.684	186.88
702.88	354.81
703.075	387.58
703.271	244.22
703.466	109.05
703.662	379.39
703.857	631.29
704.053	184.83
704.248	231.93
704.443	516.6
704.639	569.85
704.834	233.98
705.03	256.51
705.225	635.38
705.42	696.82
705.616	307.71
705.811	74.24
706.006	301.56
706.202	395.77
706.397	260.6
706.592	102.91
706.787	502.26
706.983	426.49
707.178	514.55
707.373	295.42
707.568	590.33
707.763	705.01
707.959	209.4
708.154	201.21
708.349	377.34
708.544	383.48
708.739	461.3
708.934	176.64
709.129	545.27
709.324	731.64
709.519	135.68
709.714	156.16
709.909	676.34
710.104	492.02
710.299	190.97
710.494	274.94
710.689	580.09
710.884	483.83
711.079	371.19
711.274	463.35
711.469	553.46
711.664	602.61
711.859	203.26
712.054	299.52
712.249	604.66
712.443	778.74
712.638	133.63
712.833	250.36
713.028	342.52
713.223	506.36
713.417	463.35
713.612	240.12
713.807	594.42
714.002	1053.17
714.196	389.63
714.391	129.53
714.586	573.94
714.78	387.58
714.975	283.13
715.17	160.25
715.364	367.1
715.559	715.25
715.754	23.04
715.948	143.87
716.143	868.85
716.337	590.33
716.532	494.07
716.726	182.78
716.921	596.47
717.115	907.76
717.31	82.43
717.504	727.54
717.699	393.72
717.893	639.48
718.088	137.73
718.282	96.77
718.476	549.37
718.671	621.05
718.865	303.61
719.059	270.84
719.254	440.83
719.448	801.27
719.642	1405.42
719.837	41.47
720.031	631.29
720.225	737.78
720.419	332.28
720.614	233.98
720.808	684.53
721.002	399.87
721.196	162.3
721.39	229.88
721.585	872.95
721.779	584.18
721.973	274.94
722.167	57.86
722.361	479.74
722.555	688.63
722.749	242.17
722.943	180.73
723.137	291.32
723.331	600.57
723.525	211.45
723.719	201.21
723.913	670.2
724.107	774.64
724.301	180.73
724.495	266.75
724.689	946.67
724.883	772.6
725.077	180.73
725.271	203.26
725.465	823.8
725.659	500.22
725.853	342.52
726.046	59.9
726.24	328.19
726.434	635.38
726.628	285.18
726.822	293.37
727.015	614.9
727.209	815.6
727.403	233.98
727.596	133.63
727.79	631.29
727.984	676.34
728.177	227.84
728.371	332.28
728.565	750.07
728.758	178.69
728.952	139.77
729.146	215.55
729.339	707.06
729.533	477.69
729.726	281.08
729.92	219.64
730.113	840.18
730.307	549.37
730.5	168.45
730.694	152.06
730.887	401.91
731.081	700.92
731.274	117.25
731.468	258.56
731.661	444.92
731.854	356.86
732.048	236.03
732.241	127.49
732.435	348.67
732.628	539.13
732.821	369.15
733.014	150.01
733.208	170.49
733.401	723.44
733.594	309.76
733.788	246.27
733.981	692.73
734.174	582.14
734.367	211.45
734.56	418.3
734.754	696.82
734.947	473.59
735.14	223.74
735.333	299.52
735.526	719.35
735.719	236.03
735.912	158.21
736.105	315.9
736.298	545.27
736.491	350.71
736.684	258.56
736.877	213.5
737.07	537.08
737.263	778.74
737.456	281.08
737.649	135.68
737.842	379.39
738.035	467.45
738.228	401.91
738.421	399.87
738.614	817.65
738.807	659.96
739	57.86
739.192	178.69
739.385	635.38
739.578	649.72
739.771	455.16
739.964	279.04
740.156	506.36
740.349	420.35
740.542	457.21
740.735	45.57
740.927	147.97
741.12	256.51
741.313	238.08
741.505	334.33
741.698	600.57
741.891	602.61
742.083	403.96
742.276	276.99
742.468	512.5
742.661	436.73
742.854	399.87
743.046	190.97
743.239	936.43
743.431	381.43
743.624	317.95
743.816	102.91
744.009	459.26
744.201	569.85
744.393	449.02
744.586	104.96
744.778	784.88
744.971	522.74
745.163	356.86
745.355	340.47
745.548	487.93
745.74	422.39
745.932	332.28
746.125	229.88
746.317	1016.3
746.509	600.57
746.702	250.36
746.894	326.14
747.086	610.81
747.278	750.07
747.471	397.82
747.663	381.43
747.855	473.59
748.047	905.71
748.239	180.73
748.431	258.56
748.623	860.66
748.815	915.95
749.008	102.91
749.2	197.12
749.392	612.85
749.584	582.14
749.776	340.47
749.968	301.56
750.16	915.95
750.352	434.68
750.544	258.56
750.736	193.02
750.928	610.81
751.12	494.07
751.311	248.32
751.503	328.19
751.695	573.94
751.887	532.98
752.079	90.62
752.271	293.37
752.463	1231.34
752.654	659.96
752.846	297.47
753.038	279.04
753.23	393.72
753.421	741.88
753.613	242.17
753.805	422.39
753.997	692.73
754.188	662.01
754.38	225.79
754.572	313.85
754.763	438.78
754.955	651.77
755.146	342.52
755.338	352.76
755.53	588.28
755.721	453.11
755.913	139.77
756.104	156.16
756.296	430.59
756.487	715.25
756.679	266.75
756.87	252.41
757.062	469.5
757.253	610.81
757.445	219.64
757.636	457.21
757.827	434.68
758.019	1102.32
758.21	107.01
758.401	254.46
758.593	1008.11
758.784	758.26
758.975	193.02
759.167	176.64
759.358	504.31
759.549	754.16
759.74	215.55
759.932	299.52
760.123	821.75
760.314	383.48
760.505	381.43
760.696	272.89
760.888	969.2
761.079	496.12
761.27	182.78
761.461	2.56
761.652	893.43
761.843	412.15
762.034	205.31
762.225	481.78
762.416	420.35
762.607	516.6
762.798	297.47
762.989	311.8
763.18	1133.04
763.371	475.64
763.562	240.12
763.753	328.19
763.944	803.32
764.135	735.73
764.326	424.44
764.517	225.79
764.708	571.9
764.899	592.37
765.089	268.8
765.28	125.44
765.471	530.94
765.662	633.33
765.853	322.04
766.043	139.77
766.234	702.97
766.425	774.64
766.615	377.34
766.806	92.67
766.997	815.6
767.187	535.03
767.378	127.49
767.569	25.09
767.759	705.01
767.95	514.55
768.141	344.57
768.331	139.77
768.522	537.08
768.712	633.33
768.903	233.98
769.093	137.73
769.284	944.63
769.474	520.7
769.665	143.87
769.855	47.62
770.046	649.72
770.236	410.11
770.426	487.93
770.617	115.2
770.807	565.75
770.998	418.3
771.188	401.91
771.378	199.16
771.569	657.91
771.759	672.25
771.949	127.49
772.139	-65.02
772.33	459.26
772.52	881.14
772.71	211.45
772.9	172.54
773.09	881.14
773.281	866.8
773.471	145.92
773.661	266.75
773.851	754.16
774.041	430.59
774.231	119.29
774.421	293.37
774.611	936.43
774.802	557.56
774.992	246.27
775.182	131.58
775.372	502.26
775.562	735.73
775.752	203.26
775.942	268.8
776.131	727.54
776.321	621.05
776.511	178.69
776.701	158.21
776.891	774.64
777.081	236.03
777.271	320
777.461	229.88
777.651	686.58
777.84	743.92
778.03	365.05
778.22	291.32
778.41	811.51
778.599	363
778.789	334.33
778.979	174.59
779.169	623.09
779.358	543.22
779.548	621.05
779.738	12.8
779.927	631.29
780.117	225.79
780.307	350.71
780.496	-5.63
780.686	545.27
780.875	907.76
781.065	305.66
781.254	195.07
781.444	510.46
781.633	487.93
781.823	217.6
782.012	162.3
782.202	422.39
782.391	438.78
782.581	119.29
782.77	379.39
782.96	670.2
783.149	489.98
783.338	178.69
783.528	0.51
783.717	713.21
783.906	678.39
784.096	305.66
784.285	203.26
784.474	401.91
784.663	209.4
784.853	154.11
785.042	260.6
785.231	436.73
785.42	860.66
785.61	379.39
785.799	127.49
785.988	401.91
786.177	426.49
786.366	219.64
786.555	381.43
786.744	741.88
786.933	408.06
787.122	135.68
787.312	127.49
787.501	311.8
787.69	588.28
787.879	209.4
788.068	127.49
788.257	184.83
788.445	365.05
788.634	225.79
788.823	113.15
789.012	1114.61
789.201	782.84
789.39	381.43
789.579	233.98
789.768	506.36
789.957	473.59
790.145	209.4
790.334	-9.73
790.523	377.34
790.712	395.77
790.9	348.67
791.089	86.53
791.278	694.77
791.467	561.66
791.655	479.74
791.844	719.35
792.033	328.19
792.221	375.29
792.41	340.47
792.599	0.51
792.787	643.57
792.976	625.14
793.164	137.73
793.353	193.02
793.541	549.37
793.73	625.14
793.918	281.08
794.107	279.04
794.295	426.49
794.484	588.28
794.672	303.61
794.861	231.93
795.049	600.57
795.238	961.01
795.426	55.81
795.614	334.33
795.803	604.66
795.991	737.78
796.179	229.88
796.368	268.8
796.556	694.77
796.744	242.17
796.932	231.93
797.121	170.49
797.309	432.63
797.497	569.85
797.685	322.04
797.874	242.17
798.062	424.44
798.25	811.51
798.438	107.01
798.626	211.45
798.814	598.52
799.002	1085.94
799.19	393.72
799.378	414.2
799.566	786.93
799.755	895.47
799.943	356.86
800.131	141.82
800.318	492.02
800.506	532.98
800.694	188.93
800.882	342.52
801.07	803.32
801.258	430.59
801.446	201.21
801.634	248.32
801.822	487.93
802.01	508.41
802.197	188.93
802.385	449.02
802.573	516.6
802.761	227.84
802.949	260.6
803.136	188.93
803.324	795.12
803.512	412.15
803.699	326.14
803.887	74.24
804.075	819.7
804.262	383.48
804.45	76.29
804.638	274.94
804.825	276.99
805.013	430.59
805.201	236.03
805.388	168.45
805.576	379.39
805.763	848.37
805.951	201.21
806.138	356.86
806.326	995.82
806.513	483.83
806.701	301.56
806.888	113.15
807.075	504.31
807.263	989.68
807.45	57.86
807.638	397.82
807.825	1034.74
808.012	733.68
808.2	385.53
808.387	471.54
808.574	668.15
808.761	891.38
808.949	168.45
809.136	381.43
809.323	383.48
809.51	381.43
809.698	578.04
809.885	446.97
810.072	619
810.259	766.45
810.446	348.67
810.633	137.73
810.82	729.59
811.008	901.62
811.195	410.11
811.382	397.82
811.569	512.5
811.756	264.7
811.943	367.1
812.13	193.02
812.317	356.86
812.504	399.87
812.691	285.18
812.878	358.91
813.064	842.23
813.251	561.66
813.438	215.55
813.625	498.17
813.812	457.21
813.999	455.16
814.186	401.91
814.372	272.89
814.559	561.66
814.746	846.32
814.933	248.32
815.12	369.15
815.306	489.98
815.493	283.13
815.68	287.23
815.866	250.36
816.053	729.59
816.24	1071.6
816.426	348.67
816.613	197.12
816.799	758.26
816.986	684.53
817.173	246.27
817.359	197.12
817.546	659.96
817.732	229.88
817.919	109.05
818.105	324.09
818.292	430.59
818.478	596.47
818.665	385.53
818.851	276.99
819.037	942.58
819.224	547.32
819.41	156.16
819.597	236.03
819.783	911.86
819.969	567.8
820.156	346.62
820.342	244.22
820.528	1223.15
820.714	528.89
820.901	557.56
821.087	350.71
821.273	881.14
821.459	379.39
821.646	264.7
821.832	199.16
822.018	571.9
822.204	645.62
822.39	295.42
822.576	186.88
822.762	684.53
822.948	596.47
823.134	598.52
823.32	381.43
823.507	176.64
823.693	479.74
823.879	739.83
824.065	283.13
824.25	619
824.436	291.32
824.622	348.67
824.808	213.5
824.994	397.82
825.18	324.09
825.366	229.88
825.552	242.17
825.738	434.68
825.923	750.07
826.109	483.83
826.295	289.28
826.481	422.39
826.667	414.2
826.852	393.72
827.038	170.49
827.224	762.36
827.409	995.82
827.595	123.39
827.781	424.44
827.966	782.84
828.152	791.03
828.338	264.7
828.523	133.63
828.709	328.19
828.894	893.43
829.08	352.76
829.266	233.98
829.451	367.1
829.637	651.77
829.822	342.52
830.008	195.07
830.193	682.49
830.378	961.01
830.564	342.52
830.749	74.24
830.935	709.11
831.12	676.34
831.305	199.16
831.491	383.48
831.676	262.65
831.861	727.54
832.047	309.76
832.232	109.05
832.417	803.32
832.602	451.07
832.788	174.59
832.973	291.32
833.158	537.08
833.343	543.22
833.528	399.87
833.714	418.3
833.899	621.05
834.084	1063.41
834.269	434.68
834.454	434.68
834.639	729.59
834.824	532.98
835.009	485.88
835.194	436.73
835.379	762.36
835.564	915.95
835.749	451.07
835.934	162.3
836.119	666.1
836.304	528.89
836.489	291.32
836.674	516.6
836.859	373.24
837.044	821.75
837.228	307.71
837.413	274.94
837.598	662.01
837.783	680.44
837.968	266.75
838.152	133.63
838.337	133.63
838.522	842.23
838.707	719.35
838.891	455.16
839.076	686.58
839.261	823.8
839.445	291.32
839.63	340.47
839.815	969.2
839.999	401.91
840.184	184.83
840.368	332.28
840.553	772.6
840.737	793.08
840.922	262.65
841.106	213.5
841.291	295.42
841.475	631.29
841.66	193.02
841.844	367.1
842.029	1155.57
842.213	217.6
842.397	274.94
842.582	111.1
842.766	811.51
842.951	754.16
843.135	205.31
843.319	264.7
843.504	647.67
843.688	731.64
843.872	70.14
844.056	225.79
844.241	659.96
844.425	471.54
844.609	401.91
844.793	94.72
844.977	795.12
845.161	698.87
845.346	160.25
845.53	274.94
845.714	500.22
845.898	793.08
846.082	94.72
846.266	326.14
846.45	451.07
846.634	573.94
846.818	242.17
847.002	467.45
847.186	686.58
847.37	238.08
847.554	242.17
847.738	358.91
847.922	637.43
848.106	686.58
848.29	137.73
848.473	330.23
848.657	686.58
848.841	444.92
849.025	172.54
849.209	23.04
849.392	686.58
849.576	465.4
849.76	72.19
849.944	403.96
850.127	885.23
850.311	352.76
850.495	158.21
850.678	213.5
850.862	815.6
851.046	858.61
851.229	510.46
851.413	209.4
851.596	473.59
851.78	475.64
851.964	332.28
852.147	285.18
852.331	1210.86
852.514	809.46
852.698	365.05
852.881	131.58
853.065	711.16
853.248	557.56
853.431	408.06
853.615	367.1
853.798	1038.83
853.982	653.81
854.165	483.83
854.348	360.95
854.532	326.14
854.715	334.33
854.898	315.9
855.081	256.51
855.265	801.27
855.448	991.73
855.631	289.28
855.814	293.37
855.997	731.64
856.181	549.37
856.364	283.13
856.547	143.87
856.73	498.17
856.913	592.37
857.096	57.86
857.279	422.39
857.462	397.82
857.645	668.15
857.828	412.15
858.011	342.52
858.194	373.24
858.377	702.97
858.56	238.08
858.743	348.67
858.926	317.95
859.109	602.61
859.292	184.83
859.475	150.01
859.658	807.41
859.841	705.01
860.023	174.59
860.206	217.6
860.389	539.13
860.572	909.81
860.755	332.28
860.937	291.32
861.12	473.59
861.303	455.16
861.486	365.05
861.668	143.87
861.851	702.97
862.034	694.77
862.216	305.66
862.399	137.73
862.581	705.01
862.764	934.39
862.947	334.33
863.129	188.93
863.312	291.32
863.494	952.82
863.677	596.47
863.859	172.54
864.042	723.44
864.224	903.67
864.406	408.06
864.589	117.25
864.771	651.77
864.954	309.76
865.136	195.07
865.318	129.53
865.501	766.45
865.683	145.92
865.865	178.69
866.048	293.37
866.23	610.81
866.412	582.14
866.594	152.06
866.777	258.56
866.959	737.78
867.141	436.73
867.323	549.37
867.505	477.69
867.687	522.74
867.869	594.42
868.052	227.84
868.234	117.25
868.416	449.02
868.598	741.88
868.78	268.8
868.962	172.54
869.144	715.25
869.326	688.63
869.508	178.69
869.69	166.4
869.872	408.06
870.054	791.03
870.236	84.48
870.417	168.45
870.599	428.54
870.781	963.06
870.963	311.8
871.145	98.81
871.327	197.12
871.508	696.82
871.69	272.89
871.872	238.08
872.054	508.41
872.235	690.68
872.417	309.76
872.599	248.32
872.78	971.25
872.962	528.89
873.144	53.76
873.325	305.66
873.507	872.95
873.689	619
873.87	164.35
874.052	414.2
874.233	414.2
874.415	717.3
874.596	266.75
874.778	156.16
874.959	528.89
875.141	762.36
875.322	266.75
875.503	262.65
875.685	627.19
875.866	100.86
876.048	150.01
876.229	109.05
876.41	483.83
876.592	619
876.773	178.69
876.954	129.53
877.136	840.18
877.317	436.73
877.498	66.05
877.679	313.85
877.86	686.58
878.042	563.7
878.223	279.04
878.404	459.26
878.585	625.14
878.766	907.76
878.947	492.02
879.128	475.64
879.309	674.29
879.49	758.26
879.672	303.61
879.853	223.74
880.034	291.32
880.215	426.49
880.396	348.67
880.576	209.4
880.757	293.37
880.938	848.37
881.119	262.65
881.3	160.25
881.481	336.38
881.662	1368.56
881.843	111.1
882.023	61.95
882.204	616.95
882.385	569.85
882.566	303.61
882.747	203.26
882.927	426.49
883.108	518.65
883.289	205.31
883.469	440.83
883.65	336.38
883.831	539.13
884.011	461.3
884.192	209.4
884.373	764.4
884.553	553.46
884.734	395.77
884.914	459.26
885.095	1061.36
885.275	934.39
885.456	573.94
885.636	154.11
885.817	475.64
885.997	571.9
886.178	213.5
886.358	291.32
886.538	551.42
886.719	1462.76
886.899	209.4
887.08	264.7
887.26	735.73
887.44	274.94
887.621	158.21
887.801	348.67
887.981	1073.65
888.161	690.68
888.342	315.9
888.522	303.61
888.702	698.87
888.882	860.66
889.062	512.5
889.242	139.77
889.423	1028.59
889.603	612.85
889.783	381.43
889.963	258.56
890.143	729.59
890.323	803.32
890.503	289.28
890.683	332.28
890.863	610.81
891.043	610.81
891.223	338.43
891.403	451.07
891.583	518.65
891.763	653.81
891.943	346.62
892.122	252.41
892.302	551.42
892.482	553.46
892.662	418.3
892.842	266.75
893.022	631.29
893.201	320
893.381	451.07
893.561	320
893.741	721.4
893.92	637.43
894.1	446.97
894.28	430.59
894.459	758.26
894.639	588.28
894.819	340.47
894.998	406.01
895.178	520.7
895.357	651.77
895.537	233.98
895.716	244.22
895.896	557.56
896.075	905.71
896.255	410.11
896.434	176.64
896.614	786.93
896.793	893.43
896.973	512.5
897.152	442.87
897.331	668.15
897.511	635.38
897.69	123.39
897.87	365.05
898.049	647.67
898.228	549.37
898.407	399.87
898.587	479.74
898.766	356.86
898.945	711.16
899.124	487.93
899.304	395.77
899.483	709.11
899.662	1049.07
899.841	207.36
900.02	264.7
900.199	844.28
900.378	645.62
900.557	201.21
900.737	135.68
900.916	729.59
901.095	682.49
901.274	621.05
901.453	233.98
901.632	377.34
901.811	483.83
901.989	229.88
902.168	250.36
902.347	700.92
902.526	389.63
902.705	295.42
902.884	354.81
903.063	928.24
903.242	872.95
903.42	186.88
903.599	471.54
903.778	907.76
903.957	1057.26
904.135	406.01
904.314	320
904.493	633.33
904.672	782.84
904.85	410.11
905.029	346.62
905.207	639.48
905.386	1395.18
905.565	186.88
905.743	223.74
905.922	549.37
906.1	788.98
906.279	137.73
906.457	225.79
906.636	455.16
906.814	510.46
906.993	367.1
907.171	184.83
907.35	705.01
907.528	641.53
907.707	549.37
907.885	229.88
908.063	971.25
908.242	406.01
908.42	354.81
908.598	154.11
908.777	795.12
908.955	395.77
909.133	473.59
909.311	229.88
909.49	586.23
909.668	619
909.846	348.67
910.024	186.88
910.202	557.56
910.38	684.53
910.559	205.31
910.737	242.17
910.915	629.24
911.093	645.62
911.271	311.8
911.449	457.21
911.627	657.91
911.805	1026.54
911.983	342.52
912.161	307.71
912.339	682.49
912.517	907.76
912.695	446.97
912.872	256.51
913.05	346.62
913.228	692.73
913.406	303.61
913.584	213.5
913.762	688.63
913.939	440.83
914.117	215.55
914.295	217.6
914.473	770.55
914.65	584.18
914.828	328.19
915.006	289.28
915.184	320
915.361	670.2
915.539	408.06
915.716	537.08
915.894	662.01
916.072	705.01
916.249	561.66
916.427	477.69
916.604	291.32
916.782	557.56
916.959	178.69
917.137	279.04
917.314	532.98
917.492	799.22
917.669	397.82
917.847	358.91
918.024	651.77
918.201	416.25
918.379	320
918.556	358.91
918.733	721.4
918.911	446.97
919.088	508.41
919.265	307.71
919.442	494.07
919.62	446.97
919.797	260.6
919.974	252.41
920.151	590.33
920.328	590.33
920.506	227.84
920.683	416.25
920.86	401.91
921.037	381.43
921.214	436.73
921.391	186.88
921.568	723.44
921.745	426.49
921.922	281.08
922.099	176.64
922.276	772.6
922.453	602.61
922.63	209.4
922.807	535.03
922.984	631.29
923.161	311.8
923.338	250.36
923.514	276.99
923.691	496.12
923.868	645.62
924.045	213.5
924.222	225.79
924.399	541.18
924.575	807.41
924.752	266.75
924.929	418.3
925.105	598.52
925.282	336.38
925.459	254.46
925.635	342.52
925.812	602.61
925.989	387.58
926.165	291.32
926.342	186.88
926.518	379.39
926.695	514.55
926.871	233.98
927.048	215.55
927.224	739.83
927.401	481.78
927.577	479.74
927.754	150.01
927.93	795.12
928.107	791.03
928.283	113.15
928.459	383.48
928.636	594.42
928.812	336.38
928.988	184.83
929.165	143.87
929.341	479.74
929.517	549.37
929.693	637.43
929.87	84.48
930.046	621.05
930.222	348.67
930.398	188.93
930.574	334.33
930.751	483.83
930.927	426.49
931.103	260.6
931.279	254.46
931.455	279.04
931.631	563.7
931.807	59.9
931.983	139.77
932.159	166.4
932.335	557.56
932.511	262.65
932.687	158.21
932.863	563.7
933.039	516.6
933.215	170.49
933.391	147.97
933.566	389.63
933.742	485.88
933.918	211.45
934.094	107.01
934.27	459.26
934.445	500.22
934.621	293.37
934.797	250.36
934.973	637.43
935.148	535.03
935.324	53.76
935.5	53.76
935.675	698.87
935.851	451.07
936.027	213.5
936.202	299.52
936.378	496.12
936.553	463.35
936.729	586.23
936.904	78.33
937.08	188.93
937.255	303.61
937.431	123.39
937.606	61.95
937.782	266.75
937.957	494.07
938.133	262.65
938.308	107.01
938.483	395.77
938.659	188.93
938.834	219.64
939.009	129.53
939.185	360.95
939.36	59.9
939.535	-134.65
939.71	233.98
939.886	643.57
940.061	494.07
940.236	303.61
940.411	152.06
940.586	363
940.761	522.74
940.937	186.88
941.112	80.38
941.287	322.04
941.462	328.19
941.637	-108.03
941.812	127.49
941.987	381.43
942.162	328.19
942.337	90.62
942.512	154.11
942.687	532.98
942.862	481.78
943.037	-56.83
943.212	-192
943.386	143.87
943.561	346.62
943.736	190.97
943.911	481.78
944.086	432.63
944.26	375.29
944.435	109.05
944.61	272.89
944.785	567.8
944.959	731.64
945.134	176.64
945.309	-28.16
945.483	170.49
945.658	543.22
945.833	-157.18
946.007	-48.64
946.182	571.9
946.357	61.95
946.531	16.9
946.706	131.58
946.88	-77.31
947.055	268.8
947.229	-46.59
947.404	-32.26
947.578	549.37
947.752	233.98
947.927	-77.31
948.101	-118.27
948.276	332.28
948.45	297.47
948.624	238.08
948.799	27.14
948.973	356.86
949.147	33.28
949.321	96.77
949.496	86.53
949.67	406.01
949.844	268.8
950.018	57.86
950.193	16.9
950.367	848.37
950.541	215.55
950.715	147.97
950.889	127.49
951.063	188.93
951.237	444.92
951.411	-79.36
951.585	-163.33
951.759	420.35
951.933	254.46
952.107	-9.73
952.281	233.98
952.455	619
952.629	424.44
952.803	-54.78
952.977	-15.87
953.151	467.45
953.325	408.06
953.499	203.26
953.672	-36.35
953.846	59.9
954.02	84.48
954.194	6.66
954.368	18.94
954.541	430.59
954.715	74.24
954.889	160.25
955.062	-93.69
955.236	315.9
955.41	90.62
955.583	129.53
955.757	-151.04
955.93	180.73
956.104	-9.73
956.278	2.56
956.451	133.63
956.625	481.78
956.798	614.9
956.972	313.85
957.145	-24.06
957.319	223.74
957.492	287.23
957.665	195.07
957.839	82.43
958.012	287.23
958.185	102.91
958.359	39.42
958.532	270.84
958.705	383.48
958.879	356.86
959.052	94.72
959.225	-62.98
959.398	258.56
959.572	334.33
959.745	33.28
959.918	84.48
960.091	150.01
960.264	309.76
960.438	-75.26
960.611	-60.93
960.784	354.81
960.957	98.81
961.13	393.72
961.303	-44.54
961.476	225.79
961.649	481.78
961.822	-73.21
961.995	131.58
962.168	399.87
962.341	281.08
962.514	90.62
962.686	-15.87
962.859	174.59
963.032	301.56
963.205	-24.06
963.378	-114.17
963.551	326.14
963.723	326.14
963.896	211.45
964.069	143.87
964.242	233.98
964.414	461.3
964.587	137.73
964.76	164.35
964.932	250.36
965.105	195.07
965.278	-38.4
965.45	-3.58
965.623	227.84
965.795	475.64
965.968	35.33
966.14	-36.35
966.313	258.56
966.485	227.84
966.658	-5.63
966.83	-81.41
967.003	571.9
967.175	537.08
967.348	-3.58
967.52	41.47
967.692	614.9
967.865	371.19
968.037	25.09
968.209	320
968.382	221.69
968.554	438.78
968.726	88.57
968.898	-44.54
969.071	188.93
969.243	262.65
969.415	82.43
969.587	84.48
969.759	723.44
969.932	463.35
970.104	57.86
970.276	-153.09
970.448	182.78
970.62	137.73
970.792	123.39
970.964	107.01
971.136	643.57
971.308	381.43
971.48	-1.54
971.652	-48.64
971.824	569.85
971.996	190.97
972.168	76.29
972.339	78.33
972.511	516.6
972.683	190.97
972.855	193.02
973.027	61.95
973.199	371.19
973.37	336.38
973.542	156.16
973.714	143.87
973.886	283.13
974.057	430.59
974.229	-46.59
974.401	37.38
974.572	14.85
974.744	-136.7
974.915	-52.74
975.087	18.94
975.259	588.28
975.43	176.64
975.602	-15.87
975.773	-75.26
975.945	127.49
976.116	307.71
976.288	35.33
976.459	233.98
976.63	260.6
976.802	328.19
976.973	-60.93
977.145	160.25
977.316	791.03
977.487	592.37
977.659	78.33
977.83	-13.82
978.001	631.29
978.172	350.71
978.344	-65.02
978.515	10.75
978.686	133.63
978.857	557.56
979.028	47.62
979.2	-32.26
979.371	471.54
979.542	231.93
979.713	143.87
979.884	-318.97
980.055	20.99
980.226	250.36
980.397	-69.12
980.568	-132.61
980.739	463.35
980.91	229.88
981.081	213.5
981.252	0.51
981.423	410.11
981.594	459.26
981.765	-122.37
981.936	133.63
982.106	217.6
982.277	401.91
982.448	4.61
982.619	252.41
982.79	135.68
982.96	532.98
983.131	180.73
983.302	-161.28
983.472	160.25
983.643	291.32
983.814	193.02
983.984	57.86
984.155	156.16
984.326	473.59
984.496	74.24
984.667	-42.5
984.837	23.04
985.008	545.27
985.178	143.87
985.349	29.18
985.519	201.21
985.69	86.53
985.86	29.18
986.031	-101.89
986.201	254.46
986.371	367.1
986.542	-95.74
986.712	-138.75
986.882	387.58
987.053	344.57
987.223	-97.79
987.393	172.54
987.563	129.53
987.734	449.02
987.904	283.13
988.074	-38.4
988.244	274.94
988.414	133.63
988.585	-79.36
988.755	119.29
988.925	168.45
989.095	563.7
989.265	-48.64
989.435	82.43
989.605	311.8
989.775	455.16
989.945	332.28
990.115	-93.69
990.285	252.41
990.455	289.28
990.625	61.95
990.795	-103.93
990.965	500.22
991.134	-9.73
991.304	-48.64
991.474	-52.74
991.644	236.03
991.814	539.13
991.984	-185.85
992.153	-15.87
992.323	215.55
992.493	283.13
992.662	-206.33
992.832	98.81
993.002	311.8
993.171	303.61
993.341	-183.81
993.511	66.05
993.68	33.28
993.85	428.54
994.019	-208.38
994.189	-97.79
994.358	311.8
994.528	78.33
994.697	-290.3
994.867	-105.98
995.036	410.11
995.206	139.77
995.375	-134.65
995.544	57.86
995.714	150.01
995.883	119.29
996.052	74.24
996.222	-343.55
996.391	649.72
996.56	274.94
996.73	-153.09
996.899	-271.87
997.068	547.32
997.237	182.78
997.406	-142.85
997.576	-292.35
997.745	244.22
997.914	291.32
998.083	-292.35
998.252	-89.6
998.421	135.68
998.59	82.43
998.759	-134.65
998.928	-321.02
999.097	489.98
999.266	205.31
999.435	20.99
999.604	-298.49
999.773	580.09
999.942	55.81
1000.111	-247.29
1000.28	-267.77
1000.448	-54.78
1000.617	-91.65
1000.786	-17.92
1000.955	-103.93
1001.124	152.06
1001.292	786.93
1001.461	-179.71
1001.63	-192
1001.798	496.12
1001.967	498.17
1002.136	-224.76
1002.304	-93.69
1002.473	381.43
1002.642	283.13
1002.81	-26.11
1002.979	-163.33
1003.147	401.91
1003.316	713.21
1003.484	-97.79
1003.653	-263.68
1003.821	471.54
1003.99	188.93
1004.158	-19.97
1004.327	-81.41
1004.495	334.33
1004.663	-99.84
1004.832	-40.45
1005	-269.82
1005.168	365.05
1005.337	209.4
1005.505	-306.68
1005.673	-19.97
1005.842	276.99
1006.01	387.58
1006.178	-253.44
1006.346	-146.94
1006.514	356.86
1006.683	422.39
1006.851	-218.62
1007.019	-288.25
1007.187	-93.69
1007.355	-255.48
1007.523	-255.48
1007.691	-300.54
1007.859	-204.28
1008.027	451.07
1008.195	-192
1008.363	-253.44
1008.531	367.1
1008.699	43.52
1008.867	-220.67
1009.035	-198.14
1009.203	453.11
1009.37	137.73
1009.538	-101.89
1009.706	283.13
1009.874	217.6
1010.042	115.2
1010.209	-196.09
1010.377	-261.63
1010.545	369.15
1010.713	203.26
1010.88	-249.34
1011.048	-144.89
1011.216	143.87
1011.383	514.55
1011.551	-99.84
1011.718	-247.29
1011.886	276.99
1012.054	182.78
1012.221	-204.28
1012.389	-241.15
1012.556	70.14
1012.724	569.85
1012.891	-114.17
1013.058	-398.84
1013.226	203.26
1013.393	328.19
1013.561	-357.88
1013.728	-284.16
1013.895	367.1
1014.063	340.47
1014.23	-255.48
1014.397	-228.86
1014.565	383.48
1014.732	53.76
1014.899	-169.47
1015.066	-241.15
1015.233	145.92
1015.401	291.32
1015.568	-134.65
1015.735	-58.88
1015.902	229.88
1016.069	317.95
1016.236	-157.18
1016.403	-310.78
1016.57	29.18
1016.737	279.04
1016.904	-146.94
1017.071	-261.63
1017.238	76.29
1017.405	340.47
1017.572	-175.61
1017.739	4.61
1017.906	215.55
1018.073	360.95
1018.24	-282.11
1018.407	-110.08
1018.573	457.21
1018.74	115.2
1018.907	-122.37
1019.074	-325.12
1019.241	373.24
1019.407	193.02
1019.574	-196.09
1019.741	-323.07
1019.907	180.73
1020.074	270.84
1020.241	-374.27
1020.407	-282.11
1020.574	281.08
1020.74	227.84
1020.907	-116.22
1021.073	-271.87
1021.24	715.25
1021.406	516.6
1021.573	-177.66
1021.739	-220.67
1021.906	336.38
1022.072	229.88
1022.239	-189.95
1022.405	-138.75
1022.571	143.87
1022.738	-60.93
1022.904	-214.52
1023.07	-148.99
1023.237	184.83
1023.403	283.13
1023.569	-179.71
1023.735	-208.38
1023.902	246.27
1024.068	174.59
1024.234	-226.81
1024.4	-171.52
1024.566	258.56
1024.732	391.67
1024.898	-142.85
1025.065	-296.44
1025.231	442.87
1025.397	141.82
1025.563	-208.38
1025.729	-278.01
1025.895	-224.76
1026.061	-34.3
1026.227	-359.93
1026.392	-148.99
1026.558	403.96
1026.724	215.55
1026.89	-220.67
1027.056	-42.5
1027.222	289.28
1027.388	57.86
1027.553	-245.24
1027.719	-253.44
1027.885	535.03
1028.051	315.9
1028.216	-333.31
1028.382	-118.27
1028.548	373.24
1028.713	104.96
1028.879	-183.81
1029.045	-36.35
1029.21	442.87
1029.376	467.45
1029.541	-183.81
1029.707	-77.31
1029.873	297.47
1030.038	303.61
1030.204	-232.96
1030.369	-163.33
1030.534	385.53
1030.7	166.4
1030.865	-142.85
1031.031	-208.38
1031.196	270.84
1031.361	246.27
1031.527	-292.35
1031.692	-251.39
1031.857	-230.91
1032.023	346.62
1032.188	-245.24
1032.353	-187.9
1032.518	451.07
1032.684	217.6
1032.849	-249.34
1033.014	-138.75
1033.179	360.95
1033.344	393.72
1033.509	-60.93
1033.674	-222.72
1033.839	313.85
1034.004	330.23
1034.17	-269.82
1034.335	-267.77
1034.5	109.05
1034.664	-7.68
1034.829	-218.62
1034.994	-151.04
1035.159	229.88
1035.324	209.4
1035.489	-169.47
1035.654	-224.76
1035.819	412.15
1035.984	317.95
1036.148	-151.04
1036.313	-157.18
1036.478	401.91
1036.643	256.51
1036.807	-230.91
1036.972	-239.1
1037.137	477.69
1037.301	213.5
1037.466	-288.25
1037.631	-75.26
1037.795	524.79
1037.96	233.98
1038.124	8.7
1038.289	-232.96
1038.454	313.85
1038.618	311.8
1038.783	-128.51
1038.947	-69.12
1039.111	272.89
1039.276	78.33
1039.44	-253.44
1039.605	252.41
1039.769	33.28
1039.933	133.63
1040.098	-93.69
1040.262	-11.78
1040.426	459.26
1040.591	346.62
1040.755	-245.24
1040.919	-249.34
1041.083	242.17
1041.248	68.09
1041.412	-329.21
1041.576	-314.88
1041.74	147.97
1041.904	381.43
1042.068	-192
1042.232	-138.75
1042.397	373.24
1042.561	309.76
1042.725	-329.21
1042.889	-26.11
1043.053	424.44
1043.217	301.56
1043.381	-120.32
1043.544	-310.78
1043.708	459.26
1043.872	4.61
1044.036	-333.31
1044.2	-278.01
1044.364	510.46
1044.528	545.27
1044.691	3154.38
1044.855	-284.16
1045.019	358.91
1045.183	320
1045.346	-11.78
1045.51	-198.14
1045.674	317.95
1045.837	320
1046.001	-183.81
1046.165	-161.28
1046.328	696.82
1046.492	350.71
1046.655	-114.17
1046.819	-93.69
1046.983	72.19
1047.146	328.19
1047.31	-105.98
1047.473	-288.25
1047.636	213.5
1047.8	14.85
1047.963	-202.24
1048.127	-173.57
1048.29	37.38
