Data from Ink_Intensity_USB4F045381__32__00032.txt Node

Date: Mon Jul 17 09:47:54 EDT 2023
User: mmckonesweet
Spectrometer: USB4F04538
Trigger mode: 4
Integration Time (sec): 9.000000E-1
Scans to average: 1
Electric dark correction enabled: true
Nonlinearity correction enabled: false
Boxcar width: 0
XAxis mode: Wavelengths
Number of Pixels in Spectrum: 3648
>>>>>Begin Spectral Data<<<<<
345.52	-957.6
345.736	-957.6
345.952	-957.6
346.168	-1043.61
346.384	-908.44
346.6	-15.53
346.816	-277.67
347.032	-222.38
347.248	344.91
347.464	-263.33
347.68	-152.74
347.896	115.54
348.112	346.96
348.328	-13.48
348.544	-54.44
348.76	-50.35
348.975	242.51
349.191	-103.59
349.407	-146.6
349.623	29.52
349.839	-74.92
350.055	-87.21
350.27	74.58
350.486	131.92
350.702	400.21
350.918	236.37
351.133	-134.31
351.349	109.4
351.565	357.2
351.781	-228.52
351.996	-3.24
352.212	285.52
352.428	-89.26
352.644	-160.94
352.859	-230.57
353.075	297.81
353.291	13.14
353.506	-162.98
353.722	-195.75
353.938	-54.44
354.153	420.69
354.369	140.12
354.584	-210.09
354.8	181.07
355.016	-324.77
355.231	-246.95
355.447	-70.83
355.662	58.2
355.878	918.34
356.093	-273.57
356.309	-5.29
356.524	-152.74
356.74	195.41
356.955	-111.78
357.171	105.3
357.386	199.51
357.602	-251.05
357.817	-56.49
358.033	-193.7
358.248	361.3
358.464	142.16
358.679	-150.7
358.895	-312.49
359.11	11.09
359.325	267.09
359.541	293.71
359.756	35.67
359.972	-214.18
360.187	138.07
360.402	-208.04
360.618	-97.45
360.833	873.29
361.048	119.64
361.264	-222.38
361.479	-31.91
361.694	13.14
361.909	222.03
362.125	-249
362.34	0.85
362.555	232.27
362.77	125.78
362.986	-300.2
363.201	-173.22
363.416	105.3
363.631	-54.44
363.847	-148.65
364.062	-203.94
364.277	238.42
364.492	168.79
364.707	-152.74
364.922	-322.73
365.138	250.71
365.353	357.2
365.568	-218.28
365.783	-156.84
365.998	181.07
366.213	584.52
366.428	-208.04
366.643	105.3
366.858	197.46
367.073	117.59
367.288	-113.83
367.503	-259.24
367.718	11.09
367.933	303.95
368.148	-300.2
368.363	-124.07
368.578	4.95
368.793	377.68
369.008	-171.18
369.223	-208.04
369.438	119.64
369.653	377.68
369.868	-242.85
370.083	-253.09
370.298	47.96
370.513	359.25
370.728	2.9
370.943	-173.22
371.157	-169.13
371.372	490.32
371.587	-257.19
371.802	-287.91
372.017	64.34
372.232	422.73
372.446	-13.48
372.661	-251.05
372.876	168.79
373.091	164.69
373.306	-46.25
373.52	-236.71
373.735	-179.37
373.95	473.93
374.165	-103.59
374.379	-185.51
374.594	-183.46
374.809	37.72
375.023	58.2
375.238	-187.56
375.453	238.42
375.667	-199.85
375.882	-156.84
376.097	-228.52
376.311	15.19
376.526	-68.78
376.741	-234.66
376.955	142.16
377.17	531.28
377.384	420.69
377.599	-15.53
377.813	-222.38
378.028	562
378.242	232.27
378.457	-103.59
378.672	-316.58
378.886	66.39
379.101	-50.35
379.315	-332.97
379.53	-136.36
379.744	142.16
379.958	217.94
380.173	-146.6
380.387	-128.17
380.602	95.06
380.816	-91.31
381.031	-132.26
381.245	-124.07
381.459	187.22
381.674	2480.94
381.888	-236.71
382.103	146.26
382.317	-228.52
382.531	506.7
382.746	-107.69
382.96	-140.46
383.174	-54.44
383.388	439.12
383.603	54.1
383.817	-230.57
384.031	88.92
384.246	506.7
384.46	-3.24
384.674	191.31
384.888	2.9
385.103	-9.39
385.317	-283.81
385.531	-99.5
385.745	320.34
385.959	244.56
386.174	-224.42
386.388	-242.85
386.602	35.67
386.816	-87.21
387.03	-93.35
387.244	-105.64
387.458	52.05
387.672	355.15
387.887	-246.95
388.101	-296.1
388.315	271.19
388.529	60.24
388.743	-169.13
388.957	-249
389.171	330.58
389.385	-177.32
389.599	-68.78
389.813	78.68
390.027	158.55
390.241	686.92
390.455	-42.15
390.669	-117.93
390.883	-115.88
391.097	402.26
391.311	64.34
391.525	-142.5
391.738	226.13
391.952	183.12
392.166	-64.68
392.38	-232.62
392.594	279.38
392.808	287.57
393.022	-158.89
393.236	-124.07
393.449	195.41
393.663	166.74
393.877	-246.95
394.091	-146.6
394.305	2.9
394.518	-50.35
394.732	-228.52
394.946	-177.32
395.16	406.35
395.373	140.12
395.587	-107.69
395.801	-187.56
396.015	322.38
396.228	154.45
396.442	-279.72
396.656	-322.73
396.869	322.38
397.083	463.69
397.297	-54.44
397.51	-130.22
397.724	441.17
397.938	76.63
398.151	-283.81
398.365	-255.14
398.578	207.7
398.792	324.43
399.005	-85.16
399.219	-111.78
399.433	125.78
399.646	203.6
399.86	-44.2
400.073	-9.39
400.287	224.08
400.5	-72.87
400.714	-1.19
400.927	-1.19
401.141	211.79
401.354	942.92
401.567	256.85
401.781	-287.91
401.994	203.6
402.208	553.8
402.421	-89.26
402.635	-105.64
402.848	39.76
403.061	232.27
403.275	-52.39
403.488	-197.8
403.701	467.79
403.915	156.5
404.128	-27.82
404.341	-134.31
404.555	140.12
404.768	29.52
404.981	84.82
405.195	-203.94
405.408	596.81
405.621	232.27
405.834	-3.24
406.048	-232.62
406.261	389.97
406.474	486.22
406.687	-171.18
406.9	15.19
407.114	17.24
407.327	105.3
407.54	-310.44
407.753	-249
407.966	-183.46
408.179	269.14
408.392	-156.84
408.605	-306.34
408.819	195.41
409.032	219.99
409.245	-109.74
409.458	23.38
409.671	170.83
409.884	254.8
410.097	-310.44
410.31	-25.77
410.523	203.6
410.736	-97.45
410.949	-95.4
411.162	-17.58
411.375	428.88
411.588	240.47
411.801	-31.91
412.014	-150.7
412.227	11.09
412.44	-66.73
412.653	-167.08
412.865	-33.96
413.078	293.71
413.291	170.83
413.504	-38.06
413.717	-154.79
413.93	232.27
414.143	-115.88
414.356	-105.64
414.568	-308.39
414.781	262.99
414.994	234.32
415.207	-91.31
415.42	-58.54
415.632	252.75
415.845	463.69
416.058	-267.43
416.271	-218.28
416.483	70.48
416.696	377.68
416.909	-146.6
417.121	-167.08
417.334	148.31
417.547	523.09
417.759	-136.36
417.972	-185.51
418.185	-31.91
418.397	195.41
418.61	-107.69
418.823	-222.38
419.035	457.55
419.248	58.2
419.46	-50.35
419.673	-46.25
419.885	209.75
420.098	-33.96
420.311	-165.03
420.523	-351.4
420.736	162.64
420.948	41.81
421.161	-136.36
421.373	-324.77
421.586	56.15
421.798	-76.97
422.01	-312.49
422.223	-19.63
422.435	-66.73
422.648	99.16
422.86	-158.89
423.073	-152.74
423.285	285.52
423.497	-226.47
423.71	-101.55
423.922	-199.85
424.134	84.82
424.347	426.83
424.559	-31.91
424.771	127.83
424.984	-29.87
425.196	105.3
425.408	-287.91
425.621	-195.75
425.833	320.34
426.045	330.58
426.257	-244.9
426.47	-134.31
426.682	80.72
426.894	146.26
427.106	-119.98
427.318	-23.72
427.531	-85.16
427.743	303.95
427.955	-208.04
428.167	265.04
428.379	222.03
428.591	-7.34
428.804	-81.07
429.016	-304.29
429.228	-66.73
429.44	56.15
429.652	45.91
429.864	-273.57
430.076	-36.01
430.288	-52.39
430.5	-124.07
430.712	23.38
430.924	303.95
431.136	21.33
431.348	-273.57
431.56	-181.42
431.772	37.72
431.984	-54.44
432.196	-199.85
432.408	-205.99
432.62	-56.49
432.832	52.05
433.044	101.2
433.256	-56.49
433.468	207.7
433.679	-261.29
433.891	-277.67
434.103	0.85
434.315	371.54
434.527	174.93
434.739	-119.98
434.95	-142.5
435.162	244.56
435.374	-162.98
435.586	-132.26
435.798	-177.32
436.009	-191.66
436.221	-23.72
436.433	-79.02
436.645	-140.46
436.856	-66.73
437.068	338.77
437.28	-242.85
437.491	64.34
437.703	148.31
437.915	107.35
438.126	-124.07
438.338	74.58
438.55	-46.25
438.761	140.12
438.973	-107.69
439.184	-119.98
439.396	27.48
439.608	281.43
439.819	-236.71
440.031	-76.97
440.242	123.73
440.454	195.41
440.665	-117.93
440.877	-89.26
441.088	13.14
441.3	-13.48
441.511	-324.77
441.723	-244.9
441.934	150.36
442.146	95.06
442.357	-56.49
442.569	168.79
442.78	58.2
442.991	404.3
443.203	80.72
443.414	-283.81
443.626	293.71
443.837	-156.84
444.048	-259.24
444.26	-246.95
444.471	35.67
444.682	295.76
444.894	-322.73
445.105	-335.01
445.316	318.29
445.528	199.51
445.739	15.19
445.95	-130.22
446.161	166.74
446.373	295.76
446.584	-187.56
446.795	-132.26
447.006	146.26
447.217	451.41
447.429	-361.64
447.64	-216.23
447.851	334.67
448.062	58.2
448.273	-271.53
448.484	-246.95
448.695	205.65
448.907	0.85
449.118	-64.68
449.329	189.27
449.54	-42.15
449.751	-197.8
449.962	-193.7
450.173	-144.55
450.384	201.55
450.595	340.82
450.806	-187.56
451.017	-220.33
451.228	340.82
451.439	306
451.65	-148.65
451.861	-341.16
452.072	-148.65
452.283	-15.53
452.494	66.39
452.705	-201.9
452.915	402.26
453.126	93.01
453.337	-97.45
453.548	-281.77
453.759	195.41
453.97	586.57
454.181	129.88
454.391	-64.68
454.602	121.68
454.813	166.74
455.024	-99.5
455.235	-195.75
455.445	47.96
455.656	209.75
455.867	-5.29
456.078	-199.85
456.288	-29.87
456.499	50
456.71	-156.84
456.921	64.34
457.131	146.26
457.342	133.97
457.553	-25.77
457.763	-148.65
457.974	166.74
458.184	310.1
458.395	-187.56
458.606	-285.86
458.816	273.23
459.027	488.27
459.237	76.63
459.448	-361.64
459.659	283.47
459.869	514.89
460.08	-308.39
460.29	-38.06
460.501	492.37
460.711	-50.35
460.922	-222.38
461.132	-189.61
461.343	680.78
461.553	-279.72
461.764	-189.61
461.974	-152.74
462.184	240.47
462.395	142.16
462.605	-103.59
462.816	-218.28
463.026	99.16
463.236	316.24
463.447	-277.67
463.657	-171.18
463.867	201.55
464.078	-17.58
464.288	-83.11
464.498	-201.9
464.709	72.53
464.919	9.05
465.129	-140.46
465.339	-275.62
465.55	140.12
465.76	191.31
465.97	-189.61
466.18	-265.38
466.391	228.18
466.601	133.97
466.811	-95.4
467.021	-304.29
467.231	99.16
467.441	269.14
467.651	-201.9
467.862	-371.88
468.072	2.9
468.282	349.01
468.492	-203.94
468.702	-107.69
468.912	41.81
469.122	668.49
469.332	138.07
469.542	-244.9
469.752	271.19
469.962	121.68
470.172	-222.38
470.382	-230.57
470.592	310.1
470.802	306
471.012	-25.77
471.222	-175.27
471.432	371.54
471.642	240.47
471.852	-52.39
472.062	-201.9
472.272	35.67
472.482	-203.94
472.691	-226.47
472.901	-238.76
473.111	123.73
473.321	617.29
473.531	-177.32
473.741	-1.19
473.95	72.53
474.16	211.79
474.37	-42.15
474.58	-259.24
474.79	471.89
474.999	351.06
475.209	-269.48
475.419	-208.04
475.628	60.24
475.838	308.05
476.048	-130.22
476.258	-222.38
476.467	265.04
476.677	-111.78
476.886	82.77
477.096	-85.16
477.306	-79.02
477.515	445.26
477.725	-40.11
477.935	-103.59
478.144	344.91
478.354	-101.55
478.563	-138.41
478.773	-197.8
478.982	222.03
479.192	312.14
479.401	-76.97
479.611	-240.81
479.82	-50.35
480.03	179.03
480.239	-85.16
480.449	-208.04
480.658	426.83
480.868	-83.11
481.077	-13.48
481.287	-152.74
481.496	174.93
481.705	457.55
481.915	129.88
482.124	72.53
482.333	172.88
482.543	478.03
482.752	-40.11
482.961	-146.6
483.171	267.09
483.38	76.63
483.589	2.9
483.799	-193.7
484.008	2.9
484.217	349.01
484.426	-48.3
484.636	-271.53
484.845	158.55
485.054	-177.32
485.263	174.93
485.472	-122.02
485.682	478.03
485.891	129.88
486.1	-259.24
486.309	-183.46
486.518	246.61
486.727	349.01
486.936	-185.51
487.146	37.72
487.355	385.87
487.564	-167.08
487.773	-89.26
487.982	-93.35
488.191	23.38
488.4	47.96
488.609	-83.11
488.818	-171.18
489.027	666.44
489.236	353.1
489.445	-74.92
489.654	-150.7
489.863	373.58
490.072	72.53
490.281	277.33
490.49	-107.69
490.698	541.52
490.907	510.8
491.116	-160.94
491.325	-257.19
491.534	484.17
491.743	205.65
491.952	-29.87
492.16	-83.11
492.369	250.71
492.578	330.58
492.787	-76.97
492.996	-21.67
493.204	47.96
493.413	512.85
493.622	-339.11
493.831	-298.15
494.039	295.76
494.248	-74.92
494.457	-46.25
494.665	-173.22
494.874	320.34
495.083	574.28
495.291	-46.25
495.5	-197.8
495.709	437.07
495.917	254.8
496.126	4.95
496.335	-134.31
496.543	13.14
496.752	148.31
496.96	185.17
497.169	-230.57
497.377	125.78
497.586	412.5
497.794	72.53
498.003	-261.29
498.211	95.06
498.42	451.41
498.628	21.33
498.837	-224.42
499.045	260.95
499.254	197.46
499.462	-101.55
499.671	-162.98
499.879	549.71
500.087	453.45
500.296	-107.69
500.504	-99.5
500.713	191.31
500.921	674.64
501.129	-85.16
501.338	-72.87
501.546	238.42
501.754	215.89
501.962	-83.11
502.171	-169.13
502.379	297.81
502.587	635.72
502.795	60.24
503.004	-83.11
503.212	142.16
503.42	527.18
503.628	43.86
503.837	88.92
504.045	328.53
504.253	660.3
504.461	-58.54
504.669	-255.14
504.877	306
505.085	488.27
505.294	-214.18
505.502	52.05
505.71	199.51
505.918	420.69
506.126	-62.63
506.334	-119.98
506.542	125.78
506.75	242.51
506.958	56.15
507.166	-38.06
507.374	35.67
507.582	744.27
507.79	35.67
507.998	-44.2
508.206	297.81
508.414	265.04
508.622	-134.31
508.83	-62.63
509.037	486.22
509.245	119.64
509.453	-130.22
509.661	-154.79
509.869	279.38
510.077	111.44
510.285	125.78
510.492	-320.68
510.7	752.46
510.908	54.1
511.116	7
511.324	-50.35
511.531	183.12
511.739	289.62
511.947	191.31
512.155	316.24
512.362	285.52
512.57	-25.77
512.778	-79.02
512.985	-126.12
513.193	459.6
513.401	584.52
513.608	27.48
513.816	-74.92
514.024	312.14
514.231	514.89
514.439	109.4
514.646	-27.82
514.854	385.87
515.061	412.5
515.269	-95.4
515.477	-66.73
515.684	54.1
515.892	459.6
516.099	-177.32
516.307	-181.42
516.514	379.73
516.722	605
516.929	25.43
517.136	-27.82
517.344	590.67
517.551	346.96
517.759	9.05
517.966	-44.2
518.173	113.49
518.381	138.07
518.588	103.25
518.796	-23.72
519.003	512.85
519.21	213.84
519.418	-119.98
519.625	289.62
519.832	211.79
520.039	408.4
520.247	-152.74
520.454	19.29
520.661	426.83
520.868	361.3
521.076	109.4
521.283	62.29
521.49	658.25
521.697	410.45
521.904	60.24
522.112	39.76
522.319	418.64
522.526	394.06
522.733	-48.3
522.94	19.29
523.147	334.67
523.354	383.82
523.561	-246.95
523.768	101.2
523.975	490.32
524.183	256.85
524.39	-25.77
524.597	-29.87
524.804	234.32
525.011	58.2
525.218	82.77
525.425	33.62
525.632	547.66
525.838	95.06
526.045	-50.35
526.252	43.86
526.459	1172.29
526.666	1022.79
526.873	-70.83
527.08	52.05
527.287	672.59
527.494	443.21
527.701	-95.4
527.907	-25.77
528.114	373.58
528.321	187.22
528.528	54.1
528.735	2.9
528.941	107.35
529.148	117.59
529.355	54.1
529.562	-72.87
529.768	660.3
529.975	197.46
530.182	156.5
530.388	-101.55
530.595	549.71
530.802	-5.29
531.008	129.88
531.215	45.91
531.422	879.43
531.628	1055.56
531.835	160.59
532.042	179.03
532.248	99.16
532.455	265.04
532.661	86.87
532.868	-1.19
533.074	414.54
533.281	484.17
533.487	168.79
533.694	37.72
533.9	31.57
534.107	504.65
534.313	37.72
534.52	-27.82
534.726	562
534.933	756.55
535.139	-1.19
535.345	-83.11
535.552	443.21
535.758	269.14
535.965	60.24
536.171	117.59
536.377	592.72
536.584	744.27
536.79	66.39
536.996	146.26
537.203	414.54
537.409	408.4
537.615	39.76
537.821	306
538.028	478.03
538.234	533.33
538.44	101.2
538.646	140.12
538.853	426.83
539.059	246.61
539.265	553.8
539.471	-113.83
539.677	478.03
539.883	289.62
540.09	88.92
540.296	416.59
540.502	328.53
540.708	256.85
540.914	236.37
541.12	140.12
541.326	486.22
541.532	267.09
541.738	232.27
541.944	267.09
542.15	547.66
542.356	222.03
542.562	52.05
542.768	187.22
542.974	1008.45
543.18	817.99
543.386	86.87
543.592	-25.77
543.798	734.03
544.004	703.31
544.21	86.87
544.415	273.23
544.621	486.22
544.827	615.24
545.033	103.25
545.239	392.02
545.445	172.88
545.651	482.13
545.856	125.78
546.062	168.79
546.268	351.06
546.474	392.02
546.679	156.5
546.885	205.65
547.091	338.77
547.297	805.71
547.502	299.86
547.708	86.87
547.914	168.79
548.119	461.65
548.325	90.96
548.531	43.86
548.736	881.48
548.942	254.8
549.147	136.02
549.353	447.31
549.559	719.69
549.764	445.26
549.97	148.31
550.175	166.74
550.381	525.13
550.586	242.51
550.792	191.31
550.997	170.83
551.203	506.7
551.408	537.42
551.614	140.12
551.819	203.6
552.025	824.14
552.23	918.34
552.435	72.53
552.641	328.53
552.846	326.48
553.052	693.07
553.257	299.86
553.462	254.8
553.668	326.48
553.873	617.29
554.078	154.45
554.283	88.92
554.489	461.65
554.694	486.22
554.899	39.76
555.105	359.25
555.31	521.04
555.515	623.44
555.72	211.79
555.925	121.68
556.131	697.16
556.336	389.97
556.541	131.92
556.746	181.07
556.951	813.9
557.156	793.42
557.361	338.77
557.567	314.19
557.772	983.88
557.977	588.62
558.182	224.08
558.387	236.37
558.592	404.3
558.797	701.26
559.002	338.77
559.207	355.15
559.412	478.03
559.617	875.34
559.822	109.4
560.027	181.07
560.232	516.94
560.437	674.64
560.642	129.88
560.847	242.51
561.051	625.48
561.256	688.97
561.461	291.66
561.666	86.87
561.871	484.17
562.076	666.44
562.281	291.66
562.485	209.75
562.69	619.34
562.895	731.98
563.1	322.38
563.305	168.79
563.509	861
563.714	1035.08
563.919	277.33
564.123	279.38
564.328	473.93
564.533	856.9
564.737	316.24
564.942	236.37
565.147	897.86
565.351	996.17
565.556	363.34
565.761	406.35
565.965	537.42
566.17	406.35
566.374	344.91
566.579	224.08
566.784	588.62
566.988	412.5
567.193	170.83
567.397	201.55
567.602	222.03
567.806	459.6
568.011	316.24
568.215	312.14
568.42	541.52
568.624	445.26
568.828	240.47
569.033	432.97
569.237	639.82
569.442	633.68
569.646	84.82
569.85	338.77
570.055	451.41
570.259	557.9
570.463	506.7
570.668	228.18
570.872	504.65
571.076	445.26
571.281	392.02
571.485	451.41
571.689	537.42
571.893	631.63
572.098	457.55
572.302	340.82
572.506	746.31
572.71	605
572.914	375.63
573.119	224.08
573.323	922.44
573.527	918.34
573.731	377.68
573.935	211.79
574.139	752.46
574.343	420.69
574.547	375.63
574.751	383.82
574.955	930.63
575.159	820.04
575.364	365.39
575.568	240.47
575.772	465.74
575.976	844.62
576.18	336.72
576.383	219.99
576.587	820.04
576.791	867.14
576.995	37.72
577.199	211.79
577.403	850.76
577.607	815.94
577.811	236.37
578.015	490.32
578.219	594.76
578.422	801.61
578.626	373.58
578.83	605
579.034	813.9
579.238	648.01
579.442	269.14
579.645	746.31
579.849	607.05
580.053	633.68
580.257	453.45
580.46	510.8
580.664	826.18
580.868	711.5
581.071	602.96
581.275	441.17
581.479	351.06
581.682	781.13
581.886	467.79
582.09	494.41
582.293	807.75
582.497	795.47
582.7	529.23
582.904	301.9
583.107	557.9
583.311	545.61
583.515	424.78
583.718	504.65
583.922	799.56
584.125	959.3
584.329	246.61
584.532	590.67
584.735	944.97
584.939	709.45
585.142	273.23
585.346	328.53
585.549	834.38
585.753	469.84
585.956	518.99
586.159	586.57
586.363	1078.08
586.566	768.84
586.769	328.53
586.973	392.02
587.176	785.23
587.379	998.21
587.582	641.87
587.786	572.24
587.989	666.44
588.192	1309.51
588.395	512.85
588.599	723.79
588.802	803.66
589.005	858.95
589.208	465.74
589.411	496.46
589.615	899.91
589.818	1069.89
590.021	713.55
590.224	566.09
590.427	930.63
590.63	910.15
590.833	297.81
591.036	424.78
591.239	623.44
591.442	625.48
591.645	695.11
591.848	441.17
592.051	779.08
592.254	867.14
592.457	504.65
592.66	611.15
592.863	703.31
593.066	838.47
593.269	475.98
593.472	572.24
593.675	588.62
593.878	961.35
594.081	664.4
594.284	420.69
594.486	869.19
594.689	760.65
594.892	645.96
595.095	570.19
595.298	826.18
595.5	633.68
595.703	592.72
595.906	605
596.109	1178.44
596.311	969.54
596.514	328.53
596.717	643.92
596.92	1024.84
597.122	828.23
597.325	359.25
597.528	482.13
597.73	1129.28
597.933	789.32
598.136	516.94
598.338	328.53
598.541	899.91
598.743	1008.45
598.946	600.91
599.148	629.58
599.351	906.06
599.554	1026.89
599.756	691.02
599.959	539.47
600.161	994.12
600.363	1395.52
600.566	844.62
600.768	615.24
600.971	1237.83
601.173	969.54
601.376	605
601.578	615.24
601.78	899.91
601.983	1387.33
602.185	465.74
602.388	680.78
602.59	858.95
602.792	705.35
602.995	795.47
603.197	654.16
603.399	1094.47
603.601	938.82
603.804	713.55
604.006	605
604.208	760.65
604.41	463.69
604.613	783.18
604.815	688.97
605.017	1243.97
605.219	719.69
605.421	918.34
605.623	584.52
605.826	1094.47
606.028	1194.82
606.23	598.86
606.432	637.77
606.634	1203.01
606.836	1145.67
607.038	539.47
607.24	760.65
607.442	1014.6
607.644	838.47
607.846	772.94
608.048	510.8
608.25	1180.48
608.452	676.68
608.654	670.54
608.856	467.79
609.058	834.38
609.26	983.88
609.462	832.33
609.664	777.03
609.866	1372.99
610.067	1147.72
610.269	957.25
610.471	754.51
610.673	774.99
610.875	983.88
611.077	545.61
611.278	817.99
611.48	961.35
611.682	1372.99
611.884	686.92
612.085	629.58
612.287	756.55
612.489	1020.74
612.69	461.65
612.892	817.99
613.094	1039.17
613.295	1059.65
613.497	619.34
613.699	750.41
613.9	1301.31
614.102	1166.15
614.304	662.35
614.505	514.89
614.707	901.96
614.908	971.59
615.11	580.43
615.311	697.16
615.513	987.97
615.714	1198.92
615.916	543.57
616.117	824.14
616.319	826.18
616.52	1133.38
616.722	648.01
616.923	670.54
617.124	1241.92
617.326	1020.74
617.527	846.66
617.729	1035.08
617.93	1088.32
618.131	1225.54
618.333	756.55
618.534	762.7
618.735	727.88
618.937	1372.99
619.138	602.96
619.339	650.06
619.54	1131.33
619.742	854.86
619.943	928.58
620.144	858.95
620.345	1162.05
620.546	1215.3
620.748	725.83
620.949	721.74
621.15	1061.7
621.351	1106.76
621.552	738.12
621.753	535.37
621.954	748.36
622.155	1497.92
622.356	625.48
622.558	944.97
622.759	1157.96
622.96	1499.97
623.161	785.23
623.362	797.51
623.563	924.49
623.764	1069.89
623.965	779.08
624.166	977.73
624.366	949.06
624.567	1149.76
624.768	500.56
624.969	834.38
625.17	998.21
625.371	1141.57
625.572	826.18
625.773	680.78
625.973	1299.27
626.174	1069.89
626.375	824.14
626.576	799.56
626.777	1174.34
626.977	1588.03
627.178	729.93
627.379	879.43
627.58	949.06
627.78	1002.31
627.981	977.73
628.182	932.68
628.382	1223.49
628.583	725.83
628.784	643.92
628.984	1051.46
629.185	1241.92
629.386	1235.78
629.586	918.34
629.787	787.27
629.987	1258.31
630.188	1080.13
630.388	883.53
630.589	801.61
630.79	1628.99
630.99	1143.62
631.191	957.25
631.391	1043.27
631.591	1186.63
631.792	1563.45
631.992	1002.31
632.193	979.78
632.393	1538.88
632.594	1033.03
632.794	805.71
632.994	1106.76
633.195	1096.52
633.395	1067.85
633.595	826.18
633.796	1121.09
633.996	928.58
634.196	1336.13
634.397	609.1
634.597	912.2
634.797	848.71
634.997	1440.58
635.198	1098.56
635.398	815.94
635.598	1260.35
635.798	1489.73
635.998	1358.66
636.199	760.65
636.399	1030.98
636.599	959.3
636.799	830.28
636.999	1172.29
637.199	1262.4
637.399	1364.8
637.599	838.47
637.799	992.07
637.999	1043.27
638.199	1450.82
638.399	813.9
638.599	822.09
638.799	1332.03
638.999	1620.8
639.199	1063.75
639.399	1018.69
639.599	1469.25
639.799	981.83
639.999	926.54
640.199	815.94
640.399	1166.15
640.599	1219.39
640.799	1014.6
640.998	1276.74
641.198	1436.48
641.398	1145.67
641.598	1096.52
641.798	965.45
641.997	2030.39
642.197	1168.2
642.397	1121.09
642.597	875.34
642.796	1278.79
642.996	1467.2
643.196	1096.52
643.395	875.34
643.595	1323.84
643.795	887.62
643.994	1000.26
644.194	1006.41
644.394	1354.56
644.593	1211.2
644.793	842.57
644.992	1162.05
645.192	1286.98
645.392	813.9
645.591	1045.32
645.791	967.49
645.99	1346.37
646.19	1221.44
646.389	1092.42
646.589	975.69
646.788	1332.03
646.987	1284.93
647.187	1313.6
647.386	1207.11
647.586	1227.59
647.785	1348.42
647.984	1076.04
648.184	1084.23
648.383	1162.05
648.582	1205.06
648.782	1162.05
648.981	1207.11
649.18	928.58
649.38	1305.41
649.579	977.73
649.778	973.64
649.977	1272.64
650.177	1416
650.376	1069.89
650.575	1002.31
650.774	1661.76
650.973	1141.57
651.173	977.73
651.372	1178.44
651.571	1307.46
651.77	1422.14
651.969	940.87
652.168	1180.48
652.367	940.87
652.566	1321.79
652.765	1090.37
652.964	1338.18
653.163	1719.1
653.362	1286.98
653.561	1022.79
653.76	1026.89
653.959	1217.35
654.158	1352.51
654.357	1205.06
654.556	1088.32
654.755	1440.58
654.954	1407.81
655.153	1094.47
655.352	1100.61
655.551	1622.84
655.749	1135.43
655.948	1059.65
656.147	1129.28
656.346	1346.37
656.545	1217.35
656.743	1239.87
656.942	1176.39
657.141	1307.46
657.34	1080.13
657.538	1205.06
657.737	1096.52
657.936	1272.64
658.135	1432.38
658.333	1053.51
658.532	1211.2
658.731	1747.77
658.929	1522.49
659.128	1436.48
659.326	1043.27
659.525	1663.8
659.724	1198.92
659.922	889.67
660.121	1069.89
660.319	1391.42
660.518	1151.81
660.716	1028.93
660.915	951.11
661.113	1704.76
661.312	1094.47
661.51	1313.6
661.709	1094.47
661.907	1504.06
662.105	1796.92
662.304	1219.39
662.502	1229.63
662.701	1837.88
662.899	1229.63
663.097	1375.04
663.296	1014.6
663.494	1563.45
663.692	1620.8
663.891	969.54
664.089	949.06
664.287	1407.81
664.485	1649.47
664.684	1264.45
664.882	1289.03
665.08	1299.27
665.278	1405.76
665.476	1030.98
665.675	1434.43
665.873	1884.98
666.071	1598.27
666.269	1166.15
666.467	1311.55
666.665	1448.77
666.863	1411.9
667.061	1278.79
667.259	1176.39
667.457	1397.57
667.655	1538.88
667.853	1002.31
668.051	1289.03
668.249	1211.2
668.447	1481.53
668.645	1098.56
668.843	1438.53
669.041	1508.16
669.239	1266.5
669.437	1311.55
669.635	1260.35
669.833	1372.99
670.031	1618.75
670.229	1221.44
670.426	1301.31
670.624	1319.75
670.822	1231.68
671.02	1164.1
671.218	1203.01
671.415	1180.48
671.613	1401.66
671.811	1276.74
672.009	1145.67
672.206	1569.6
672.404	1512.25
672.602	1370.94
672.799	1266.5
672.997	1526.59
673.195	1620.8
673.392	1338.18
673.59	1157.96
673.788	1618.75
673.985	1086.28
674.183	1190.72
674.38	1190.72
674.578	1534.78
674.775	1168.2
674.973	1125.19
675.17	1149.76
675.368	1760.06
675.565	1616.7
675.763	1125.19
675.96	1209.15
676.158	1770.3
676.355	1360.7
676.553	1178.44
676.75	1243.97
676.947	1424.19
677.145	1420.1
677.342	1352.51
677.539	1379.14
677.737	1522.49
677.934	1940.28
678.131	1319.75
678.329	1112.9
678.526	1762.11
678.723	1633.08
678.92	1360.7
679.118	1176.39
679.315	1209.15
679.512	1766.2
679.709	1246.02
679.906	1215.3
680.104	1602.36
680.301	1590.08
680.498	1182.53
680.695	1186.63
680.892	1305.41
681.089	1268.55
681.286	1315.65
681.483	1172.29
681.68	1571.65
681.877	1526.59
682.075	1231.68
682.272	1479.49
682.469	1524.54
682.665	1340.22
682.862	1207.11
683.059	1174.34
683.256	1469.25
683.453	1442.62
683.65	1391.42
683.847	1311.55
684.044	1475.39
684.241	1184.58
684.438	1446.72
684.635	1141.57
684.831	1880.89
685.028	1792.83
685.225	1264.45
685.422	1372.99
685.619	1473.34
685.815	1334.08
686.012	1372.99
686.209	1205.06
686.405	1203.01
686.602	1596.22
686.799	1155.91
686.996	1069.89
687.192	1155.91
687.389	1837.88
687.586	1295.17
687.782	1278.79
687.979	1706.81
688.175	1719.1
688.372	1266.5
688.568	1272.64
688.765	1256.26
688.962	1749.82
689.158	1358.66
689.355	1108.8
689.551	1692.48
689.748	1303.36
689.944	1354.56
690.14	1092.42
690.337	1665.85
690.533	1307.46
690.73	1489.73
690.926	1258.31
691.123	1575.74
691.319	1485.63
691.515	1239.87
691.712	1491.77
691.908	1641.28
692.104	1600.32
692.301	1338.18
692.497	1168.2
692.693	1764.15
692.889	1651.52
693.086	1387.33
693.282	1051.46
693.478	1542.97
693.674	1780.54
693.87	1360.7
694.067	1100.61
694.263	1567.55
694.459	1375.04
694.655	1426.24
694.851	1368.9
695.047	1551.17
695.243	1549.12
695.439	1346.37
695.635	1170.24
695.831	1715
696.027	1399.62
696.224	1252.16
696.42	1526.59
696.615	1905.46
696.811	1567.55
697.007	1139.52
697.203	1336.13
697.399	1577.79
697.595	1751.87
697.791	1137.48
697.987	1471.29
698.183	1233.73
698.379	1286.98
698.575	1372.99
698.77	1254.21
698.966	1561.41
699.162	1719.1
699.358	1422.14
699.554	1307.46
699.749	1663.8
699.945	1661.76
700.141	1377.09
700.337	1272.64
700.532	1481.53
700.728	1282.88
700.924	1219.39
701.119	1223.49
701.315	1600.32
701.511	1413.95
701.706	1332.03
701.902	1012.55
702.097	1508.16
702.293	1696.57
702.489	1424.19
702.684	1409.86
702.88	1473.34
703.075	1524.54
703.271	1299.27
703.466	1223.49
703.662	1545.02
703.857	1643.32
704.053	1264.45
704.248	1207.11
704.443	1737.53
704.639	1702.72
704.834	1246.02
705.03	1260.35
705.225	1657.66
705.42	1819.45
705.616	1401.66
705.811	1282.88
706.006	1579.84
706.202	1473.34
706.397	1405.76
706.592	1217.35
706.787	1545.02
706.983	1463.1
707.178	1573.69
707.373	1409.86
707.568	1690.43
707.763	1907.51
707.959	1293.12
708.154	1256.26
708.349	1614.65
708.544	1608.51
708.739	1567.55
708.934	1252.16
709.129	1768.25
709.324	1729.34
709.519	1129.28
709.714	1192.77
709.909	1723.2
710.104	1538.88
710.299	1432.38
710.494	1309.51
710.689	1645.37
710.884	1477.44
711.079	1387.33
711.274	1608.51
711.469	1698.62
711.664	1606.46
711.859	1264.45
712.054	1424.19
712.249	1694.52
712.443	1801.02
712.638	1205.06
712.833	1368.9
713.028	1571.65
713.223	1522.49
713.417	1553.21
713.612	1233.73
713.807	1702.72
714.002	1956.66
714.196	1547.07
714.391	1239.87
714.586	1717.05
714.78	1516.35
714.975	1254.21
715.17	1272.64
715.364	1438.53
715.559	1710.91
715.754	1125.19
715.948	1321.79
716.143	1913.66
716.337	1575.74
716.532	1608.51
716.726	1315.65
716.921	1743.67
717.115	1958.71
717.31	1260.35
717.504	1790.78
717.699	1364.8
717.893	1731.39
718.088	1313.6
718.282	1172.29
718.476	1624.89
718.671	1620.8
718.865	1430.34
719.059	1389.38
719.254	1559.36
719.448	1819.45
719.642	2698.03
719.837	1192.77
720.031	1729.34
720.225	1907.51
720.419	1452.86
720.614	1336.13
720.808	1768.25
721.002	1463.1
721.196	1280.83
721.39	1221.44
721.585	1874.74
721.779	1598.27
721.973	1313.6
722.167	1145.67
722.361	1581.89
722.555	1801.02
722.749	1317.7
722.943	1286.98
723.137	1260.35
723.331	1676.09
723.525	1321.79
723.719	1313.6
723.913	1702.72
724.107	1856.31
724.301	1360.7
724.495	1424.19
724.689	1921.85
724.883	1993.53
725.077	1286.98
725.271	1301.31
725.465	1741.63
725.659	1620.8
725.853	1508.16
726.046	1217.35
726.24	1370.94
726.434	1766.2
726.628	1297.22
726.822	1463.1
727.015	1897.27
727.209	1813.31
727.403	1397.57
727.596	1160
727.79	1786.68
727.984	1971
728.177	1362.75
728.371	1368.9
728.565	1790.78
728.758	1313.6
728.952	1297.22
729.146	1346.37
729.339	1850.17
729.533	1432.38
729.726	1383.23
729.92	1342.27
730.113	1856.31
730.307	1633.08
730.5	1411.9
730.694	1383.23
730.887	1481.53
731.081	1706.81
731.274	1352.51
731.468	1407.81
731.661	1649.47
731.854	1497.92
732.048	1381.18
732.241	1227.59
732.435	1334.08
732.628	1579.84
732.821	1510.21
733.014	1346.37
733.208	1346.37
733.401	1764.15
733.594	1342.27
733.788	1403.71
733.981	1848.12
734.174	1643.32
734.367	1385.28
734.56	1418.05
734.754	1682.24
734.947	1565.5
735.14	1409.86
735.333	1397.57
735.526	1704.76
735.719	1522.49
735.912	1393.47
736.105	1362.75
736.298	1637.18
736.491	1549.12
736.684	1383.23
736.877	1254.21
737.07	1624.89
737.263	1848.12
737.456	1366.85
737.649	1264.45
737.842	1514.3
738.035	1569.6
738.228	1291.07
738.421	1557.31
738.614	1712.96
738.807	1651.52
739	1262.4
739.192	1184.58
739.385	1626.94
739.578	1727.29
739.771	1512.25
739.964	1499.97
740.156	1721.15
740.349	1567.55
740.542	1561.41
740.735	1280.83
740.927	1336.13
741.12	1354.56
741.313	1368.9
741.505	1393.47
741.698	1745.72
741.891	1600.32
742.083	1581.89
742.276	1340.22
742.468	1628.99
742.661	1483.58
742.854	1461.06
743.046	1358.66
743.239	2030.39
743.431	1409.86
743.624	1446.72
743.816	1305.41
744.009	1538.88
744.201	1674.04
744.393	1596.22
744.586	1254.21
744.778	1925.94
744.971	1528.64
745.163	1444.67
745.355	1446.72
745.548	1524.54
745.74	1518.4
745.932	1506.11
746.125	1436.48
746.317	2063.16
746.509	1575.74
746.702	1401.66
746.894	1428.29
747.086	1753.91
747.278	1915.7
747.471	1540.93
747.663	1493.82
747.855	1596.22
748.047	1907.51
748.239	1434.43
748.431	1403.71
748.623	1997.62
748.815	1956.66
749.008	1293.12
749.2	1375.04
749.392	1741.63
749.584	1651.52
749.776	1493.82
749.968	1596.22
750.16	2067.25
750.352	1510.21
750.544	1481.53
750.736	1147.72
750.928	1766.2
751.12	1618.75
751.311	1405.76
751.503	1502.01
751.695	1686.33
751.887	1481.53
752.079	1211.2
752.271	1424.19
752.463	2327.35
752.654	1844.03
752.846	1440.58
753.038	1327.94
753.23	1401.66
753.421	1663.8
753.613	1465.15
753.805	1715
753.997	1884.98
754.188	1876.79
754.38	1325.89
754.572	1317.7
754.763	1534.78
754.955	1680.19
755.146	1510.21
755.338	1528.64
755.53	1657.66
755.721	1592.13
755.913	1295.17
756.104	1164.1
756.296	1592.13
756.487	1745.72
756.679	1295.17
756.87	1350.46
757.062	1442.62
757.253	1686.33
757.445	1430.34
757.636	1497.92
757.827	1538.88
758.019	2169.65
758.21	1262.4
758.401	1399.62
758.593	2120.5
758.784	1850.17
758.975	1227.59
759.167	1205.06
759.358	1643.32
759.549	1925.94
759.74	1309.51
759.932	1372.99
760.123	1876.79
760.314	1411.9
760.505	1510.21
760.696	1436.48
760.888	2007.86
761.079	1403.71
761.27	1309.51
761.461	1112.9
761.652	1897.27
761.843	1477.44
762.034	1416
762.225	1628.99
762.416	1569.6
762.607	1678.14
762.798	1293.12
762.989	1348.42
763.18	2237.24
763.371	1428.29
763.562	1397.57
763.753	1362.75
763.944	1952.57
764.135	1780.54
764.326	1401.66
764.517	1305.41
764.708	1530.69
764.899	1628.99
765.089	1356.61
765.28	1151.81
765.471	1661.76
765.662	1612.6
765.853	1372.99
766.043	1256.26
766.234	1721.15
766.425	1827.64
766.615	1391.42
766.806	1209.15
766.997	1805.11
767.187	1628.99
767.378	1215.3
767.569	1123.14
767.759	1700.67
767.95	1684.28
768.141	1422.14
768.331	1307.46
768.522	1502.01
768.712	1751.87
768.903	1356.61
769.093	1205.06
769.284	2030.39
769.474	1588.03
769.665	1149.76
769.855	1143.62
770.046	1782.59
770.236	1391.42
770.426	1495.87
770.617	1280.83
770.807	1579.84
770.998	1399.62
771.188	1545.02
771.378	1305.41
771.569	1684.28
771.759	1803.07
771.949	1254.21
772.139	1010.5
772.33	1493.82
772.52	1878.84
772.71	1231.68
772.9	1141.57
773.09	1971
773.281	2003.77
773.471	1295.17
773.661	1356.61
773.851	1751.87
774.041	1381.18
774.231	1252.16
774.421	1297.22
774.611	1887.03
774.802	1557.31
774.992	1442.62
775.182	1237.83
775.372	1596.22
775.562	1678.14
775.752	1329.99
775.942	1356.61
776.131	1801.02
776.321	1581.89
776.511	1321.79
776.701	1168.2
776.891	1743.67
777.081	1227.59
777.271	1346.37
777.461	1215.3
777.651	1598.27
777.84	1895.22
778.03	1354.56
778.22	1284.93
778.41	1975.1
778.599	1278.79
778.789	1397.57
778.979	1176.39
779.169	1741.63
779.358	1596.22
779.548	1649.47
779.738	1160
779.927	1641.28
780.117	1297.22
780.307	1252.16
780.496	1041.22
780.686	1514.3
780.875	1727.29
781.065	1260.35
781.254	1241.92
781.444	1442.62
781.633	1631.04
781.823	1174.34
782.012	1260.35
782.202	1413.95
782.391	1555.26
782.581	1051.46
782.77	1454.91
782.96	1651.52
783.149	1366.85
783.338	1233.73
783.528	1057.61
783.717	1667.9
783.906	1727.29
784.096	1364.8
784.285	1315.65
784.474	1387.33
784.663	1334.08
784.853	1319.75
785.042	1327.94
785.231	1426.24
785.42	1702.72
785.61	1289.03
785.799	1162.05
785.988	1485.63
786.177	1411.9
786.366	1260.35
786.555	1440.58
786.744	1717.05
786.933	1428.29
787.122	1180.48
787.312	1258.31
787.501	1413.95
787.69	1514.3
787.879	1293.12
788.068	1241.92
788.257	1256.26
788.445	1303.36
788.634	1352.51
788.823	1030.98
789.012	2157.36
789.201	1706.81
789.39	1303.36
789.579	1145.67
789.768	1424.19
789.957	1446.72
790.145	1329.99
790.334	1069.89
790.523	1391.42
790.712	1344.32
790.9	1295.17
791.089	1123.14
791.278	1604.41
791.467	1563.45
791.655	1422.14
791.844	1743.67
792.033	1235.78
792.221	1280.83
792.41	1291.07
792.599	1039.17
792.787	1588.03
792.976	1649.47
793.164	1102.66
793.353	1262.4
793.541	1616.7
793.73	1577.79
793.918	1207.11
794.107	1188.68
794.295	1350.46
794.484	1448.77
794.672	1135.43
794.861	1227.59
795.049	1479.49
795.238	1839.93
795.426	1233.73
795.614	1293.12
795.803	1399.62
795.991	1854.27
796.179	1153.86
796.368	1217.35
796.556	1657.66
796.744	1272.64
796.932	1235.78
797.121	1147.72
797.309	1399.62
797.497	1604.41
797.685	1205.06
797.874	1217.35
798.062	1364.8
798.25	1702.72
798.438	1143.62
798.626	1256.26
798.814	1463.1
799.002	2022.2
799.19	1387.33
799.378	1239.87
799.566	1696.57
799.755	1776.44
799.943	1377.09
800.131	1231.68
800.318	1459.01
800.506	1573.69
800.694	1153.86
800.882	1293.12
801.07	1626.94
801.258	1489.73
801.446	1375.04
801.634	1147.72
801.822	1321.79
802.01	1383.23
802.197	1231.68
802.385	1405.76
802.573	1477.44
802.761	1315.65
802.949	1317.7
803.136	1141.57
803.324	1631.04
803.512	1473.34
803.699	1313.6
803.887	1100.61
804.075	1712.96
804.262	1321.79
804.45	1114.95
804.638	1332.03
804.825	1319.75
805.013	1223.49
805.201	1299.27
805.388	1237.83
805.576	1520.45
805.763	1850.17
805.951	1131.33
806.138	1350.46
806.326	1954.62
806.513	1581.89
806.701	1340.22
806.888	1276.74
807.075	1567.55
807.263	1952.57
807.45	1131.33
807.638	1497.92
807.825	2005.81
808.012	1542.97
808.2	1278.79
808.387	1538.88
808.574	1620.8
808.761	1690.43
808.949	1127.24
809.136	1350.46
809.323	1428.29
809.51	1452.86
809.698	1551.17
809.885	1516.35
810.072	1571.65
810.259	1733.43
810.446	1409.86
810.633	1262.4
810.82	1708.86
811.008	1833.79
811.195	1456.96
811.382	1426.24
811.569	1538.88
811.756	1149.76
811.943	1282.88
812.13	1391.42
812.317	1364.8
812.504	1442.62
812.691	1465.15
812.878	1387.33
813.064	1887.03
813.251	1581.89
813.438	1170.24
813.625	1448.77
813.812	1424.19
813.999	1504.06
814.186	1411.9
814.372	1416
814.559	1508.16
814.746	1872.7
814.933	1348.42
815.12	1575.74
815.306	1364.8
815.493	1411.9
815.68	1174.34
815.866	1393.47
816.053	1825.59
816.24	2067.25
816.426	1399.62
816.613	1135.43
816.799	1737.53
816.986	1788.73
817.173	1219.39
817.359	1243.97
817.546	1649.47
817.732	1219.39
817.919	1082.18
818.105	1454.91
818.292	1399.62
818.478	1719.1
818.665	1542.97
818.851	1213.25
819.037	2018.1
819.224	1553.21
819.41	1289.03
819.597	1284.93
819.783	1899.32
819.969	1645.37
820.156	1391.42
820.342	1190.72
820.528	2183.99
820.714	1508.16
820.901	1532.73
821.087	1313.6
821.273	1946.42
821.459	1489.73
821.646	1268.55
821.832	1149.76
822.018	1618.75
822.204	1665.85
822.39	1315.65
822.576	1225.54
822.762	1649.47
822.948	1592.13
823.134	1520.45
823.32	1338.18
823.507	1160
823.693	1534.78
823.879	1665.85
824.065	1278.79
824.25	1438.53
824.436	1198.92
824.622	1352.51
824.808	1286.98
824.994	1350.46
825.18	1278.79
825.366	1250.11
825.552	1203.01
825.738	1567.55
825.923	1661.76
826.109	1563.45
826.295	1334.08
826.481	1276.74
826.667	1420.1
826.852	1387.33
827.038	1303.36
827.224	1788.73
827.409	1895.22
827.595	1200.96
827.781	1448.77
827.966	1719.1
828.152	1672
828.338	1291.07
828.523	1121.09
828.709	1385.28
828.894	1694.52
829.08	1301.31
829.266	1270.59
829.451	1266.5
829.637	1620.8
829.822	1461.06
830.008	1268.55
830.193	1567.55
830.378	1798.97
830.564	1348.42
830.749	1198.92
830.935	1555.26
831.12	1561.41
831.305	1219.39
831.491	1198.92
831.676	1172.29
831.861	1622.84
832.047	1266.5
832.232	1145.67
832.417	1780.54
832.602	1577.79
832.788	1243.97
832.973	1188.68
833.158	1491.77
833.343	1528.64
833.528	1305.41
833.714	1319.75
833.899	1518.4
834.084	1932.09
834.269	1583.93
834.454	1403.71
834.639	1696.57
834.824	1534.78
835.009	1436.48
835.194	1518.4
835.379	1739.58
835.564	1874.74
835.749	1442.62
835.934	1100.61
836.119	1604.41
836.304	1454.91
836.489	1313.6
836.674	1475.39
836.859	1420.1
837.044	1753.91
837.228	1282.88
837.413	1160
837.598	1641.28
837.783	1626.94
837.968	1282.88
838.152	1151.81
838.337	1151.81
838.522	1739.58
838.707	1729.34
838.891	1499.97
839.076	1633.08
839.261	1647.42
839.445	1272.64
839.63	1221.44
839.815	1774.39
839.999	1434.43
840.184	1264.45
840.368	1262.4
840.553	1551.17
840.737	1717.05
840.922	1100.61
841.106	1069.89
841.291	1233.73
841.475	1499.97
841.66	1190.72
841.844	1225.54
842.029	2214.71
842.213	1178.44
842.397	1211.2
842.582	1084.23
842.766	1680.19
842.951	1659.71
843.135	1194.82
843.319	1280.83
843.504	1575.74
843.688	1598.27
843.872	1061.7
844.056	1149.76
844.241	1456.96
844.425	1350.46
844.609	1276.74
844.793	1061.7
844.977	1620.8
845.161	1424.19
845.346	1151.81
845.53	1194.82
845.714	1360.7
845.898	1792.83
846.082	953.16
846.266	1094.47
846.45	1434.43
846.634	1420.1
846.818	1166.15
847.002	1354.56
847.186	1616.7
847.37	1073.99
847.554	1196.87
847.738	1440.58
847.922	1588.03
848.106	1389.38
848.29	1088.32
848.473	1241.92
848.657	1614.65
848.841	1377.09
849.025	1250.11
849.209	969.54
849.392	1508.16
849.576	1325.89
849.76	916.3
849.944	1248.07
850.127	1770.3
850.311	1182.53
850.495	1049.41
850.678	1010.5
850.862	1616.7
851.046	1708.86
851.229	1405.76
851.413	1166.15
851.596	1329.99
851.78	1329.99
851.964	1350.46
852.147	1176.39
852.331	2052.92
852.514	1663.8
852.698	1239.87
852.881	1004.36
853.065	1622.84
853.248	1383.23
853.431	1280.83
853.615	1215.3
853.798	1852.22
853.982	1409.86
854.165	1293.12
854.348	1205.06
854.532	1205.06
854.715	1254.21
854.898	1260.35
855.081	1248.07
855.265	1674.04
855.448	1846.07
855.631	1155.91
855.814	1143.62
855.997	1465.15
856.181	1401.66
856.364	1270.59
856.547	1033.03
856.73	1391.42
856.913	1362.75
857.096	983.88
857.279	1160
857.462	1243.97
857.645	1590.08
857.828	1264.45
858.011	1151.81
858.194	1188.68
858.377	1579.84
858.56	1041.22
858.743	1125.19
858.926	1100.61
859.109	1622.84
859.292	1258.31
859.475	990.02
859.658	1583.93
859.841	1579.84
860.023	1030.98
860.206	998.21
860.389	1334.08
860.572	1719.1
860.755	1024.84
860.937	1108.8
861.12	1272.64
861.303	1321.79
861.486	1125.19
861.668	1102.66
861.851	1461.06
862.034	1479.49
862.216	1221.44
862.399	977.73
862.581	1450.82
862.764	1696.57
862.947	1084.23
863.129	1028.93
863.312	1012.55
863.494	1663.8
863.677	1372.99
863.859	936.78
864.042	1575.74
864.224	1715
864.406	1272.64
864.589	883.53
864.771	1379.14
864.954	1155.91
865.136	1045.32
865.318	887.62
865.501	1428.29
865.683	908.1
865.865	1174.34
866.048	1073.99
866.23	1360.7
866.412	1256.26
866.594	908.1
866.777	1207.11
866.959	1526.59
867.141	1160
867.323	1424.19
867.505	1268.55
867.687	1317.7
867.869	1344.32
868.052	1073.99
868.234	904.01
868.416	1276.74
868.598	1481.53
868.78	1055.56
868.962	916.3
869.144	1440.58
869.326	1512.25
869.508	1084.23
869.69	979.78
869.872	1178.44
870.054	1379.14
870.236	1039.17
870.417	1082.18
870.599	1215.3
870.781	1649.47
870.963	1321.79
871.145	979.78
871.327	1133.38
871.508	1526.59
871.69	1129.28
871.872	1114.95
872.054	1209.15
872.235	1436.48
872.417	1020.74
872.599	940.87
872.78	1639.23
872.962	1366.85
873.144	959.3
873.325	1090.37
873.507	1680.19
873.689	1440.58
873.87	869.19
874.052	1090.37
874.233	1172.29
874.415	1579.84
874.596	1100.61
874.778	1030.98
874.959	1225.54
875.141	1581.89
875.322	1096.52
875.503	987.97
875.685	1299.27
875.866	1000.26
876.048	920.39
876.229	955.21
876.41	1178.44
876.592	1276.74
876.773	1018.69
876.954	844.62
877.136	1528.64
877.317	1182.53
877.498	916.3
877.679	1098.56
877.86	1436.48
878.042	1346.37
878.223	1047.37
878.404	1428.29
878.585	1397.57
878.766	1743.67
878.947	1342.27
879.128	1246.02
879.309	1485.63
879.49	1557.31
879.672	1200.96
879.853	1198.92
880.034	1067.85
880.215	1241.92
880.396	1121.09
880.576	1123.14
880.757	1174.34
880.938	1639.23
881.119	906.06
881.3	1047.37
881.481	1096.52
881.662	2104.12
881.843	1008.45
882.023	916.3
882.204	1381.18
882.385	1192.77
882.566	1020.74
882.747	1033.03
882.927	1272.64
883.108	1305.41
883.289	1094.47
883.469	1375.04
883.65	1274.69
883.831	1303.36
884.011	1280.83
884.192	1098.56
884.373	1585.98
884.553	1418.05
884.734	1178.44
884.914	1442.62
885.095	1891.13
885.275	1672
885.456	1262.4
885.636	1002.31
885.817	1260.35
885.997	1317.7
886.178	1145.67
886.358	1172.29
886.538	1364.8
886.719	2323.25
886.899	1104.71
887.08	1203.01
887.26	1559.36
887.44	1160
887.621	904.01
887.801	1311.55
887.981	1880.89
888.161	1477.44
888.342	1190.72
888.522	1200.96
888.702	1682.24
888.882	1612.6
889.062	1248.07
889.242	975.69
889.423	1641.28
889.603	1534.78
889.783	1270.59
889.963	1137.48
890.143	1626.94
890.323	1727.29
890.503	1190.72
890.683	1223.49
890.863	1364.8
891.043	1461.06
891.223	1180.48
891.403	1319.75
891.583	1397.57
891.763	1444.67
891.943	1246.02
892.122	1153.86
892.302	1370.94
892.482	1366.85
892.662	1342.27
892.842	1256.26
893.022	1459.01
893.201	1278.79
893.381	1426.24
893.561	1178.44
893.741	1573.69
893.92	1506.11
894.1	1293.12
894.28	1293.12
894.459	1659.71
894.639	1530.69
894.819	1203.01
894.998	1344.32
895.178	1432.38
895.357	1540.93
895.537	1188.68
895.716	1104.71
895.896	1493.82
896.075	1784.63
896.255	1213.25
896.434	1096.52
896.614	1518.4
896.793	1760.06
896.973	1479.49
897.152	1315.65
897.331	1512.25
897.511	1710.91
897.69	1086.28
897.87	1358.66
898.049	1528.64
898.228	1422.14
898.407	1321.79
898.587	1397.57
898.766	1352.51
898.945	1626.94
899.124	1510.21
899.304	1241.92
899.483	1620.8
899.662	1889.08
899.841	1028.93
900.02	1237.83
900.199	1850.17
900.378	1571.65
900.557	1188.68
900.737	1061.7
900.916	1626.94
901.095	1493.82
901.274	1463.1
901.453	1186.63
901.632	1188.68
901.811	1235.78
901.989	1174.34
902.168	1153.86
902.347	1465.15
902.526	1239.87
902.705	1178.44
902.884	1254.21
903.063	1723.2
903.242	1682.24
903.42	1082.18
903.599	1282.88
903.778	1588.03
903.957	1876.79
904.135	1254.21
904.314	1235.78
904.493	1485.63
904.672	1538.88
904.85	1153.86
905.029	1143.62
905.207	1549.12
905.386	2130.74
905.565	1006.41
905.743	1094.47
905.922	1352.51
906.1	1622.84
906.279	965.45
906.457	1186.63
906.636	1268.55
906.814	1254.21
906.993	1215.3
907.171	1133.38
907.35	1434.43
907.528	1719.1
907.707	1407.81
907.885	1073.99
908.063	1790.78
908.242	1264.45
908.42	1104.71
908.598	1008.45
908.777	1653.56
908.955	1213.25
909.133	1305.41
909.311	1086.28
909.49	1336.13
909.668	1413.95
909.846	1139.52
910.024	998.21
910.202	1379.14
910.38	1426.24
910.559	922.44
910.737	1035.08
910.915	1440.58
911.093	1469.25
911.271	1178.44
911.449	1370.94
911.627	1463.1
911.805	1692.48
911.983	1145.67
912.161	1117
912.339	1479.49
912.517	1614.65
912.695	1248.07
912.872	1196.87
913.05	1192.77
913.228	1461.06
913.406	1143.62
913.584	1119.04
913.762	1510.21
913.939	1135.43
914.117	1051.46
914.295	979.78
914.473	1440.58
914.65	1411.9
914.828	1028.93
915.006	1084.23
915.184	1037.13
915.361	1338.18
915.539	1145.67
915.716	1274.69
915.894	1405.76
916.072	1456.96
916.249	1276.74
916.427	1205.06
916.604	1094.47
916.782	1397.57
916.959	990.02
917.137	1041.22
917.314	1383.23
917.492	1485.63
917.669	1246.02
917.847	1073.99
918.024	1418.05
918.201	1092.42
918.379	1139.52
918.556	1082.18
918.733	1454.91
918.911	1131.33
919.088	1168.2
919.265	987.97
919.442	1311.55
919.62	1196.87
919.797	899.91
919.974	883.53
920.151	1305.41
920.328	1190.72
920.506	942.92
920.683	1141.57
920.86	967.49
921.037	1063.75
921.214	1092.42
921.391	998.21
921.568	1491.77
921.745	916.3
921.922	1020.74
922.099	1016.65
922.276	1530.69
922.453	1286.98
922.63	1014.6
922.807	1258.31
922.984	1250.11
923.161	1088.32
923.338	963.4
923.514	899.91
923.691	1246.02
923.868	1323.84
924.045	904.01
924.222	842.57
924.399	1284.93
924.575	1510.21
924.752	1039.17
924.929	1061.7
925.105	1352.51
925.282	959.3
925.459	932.68
925.635	994.12
925.812	1117
925.989	930.63
926.165	1033.03
926.342	721.74
926.518	953.16
926.695	1182.53
926.871	899.91
927.048	824.14
927.224	1311.55
927.401	1112.9
927.577	973.64
927.754	754.51
927.93	1350.46
928.107	1225.54
928.283	856.9
928.459	1053.51
928.636	1264.45
928.812	1002.31
928.988	813.9
929.165	748.36
929.341	1045.32
929.517	1084.23
929.693	1215.3
929.87	643.92
930.046	1284.93
930.222	973.64
930.398	838.47
930.574	969.54
930.751	1071.94
930.927	965.45
931.103	871.24
931.279	832.33
931.455	772.94
931.631	990.02
931.807	676.68
931.983	707.4
932.159	711.5
932.335	1059.65
932.511	815.94
932.687	768.84
932.863	1088.32
933.039	1030.98
933.215	539.47
933.391	605
933.566	865.1
933.742	965.45
933.918	785.23
934.094	551.76
934.27	990.02
934.445	1092.42
934.621	817.99
934.797	701.26
934.973	1143.62
935.148	1047.37
935.324	729.93
935.5	443.21
935.675	1241.92
935.851	951.11
936.027	564.04
936.202	772.94
936.378	838.47
936.553	852.81
936.729	1170.24
936.904	533.33
937.08	631.63
937.255	713.55
937.431	465.74
937.606	406.35
937.782	641.87
937.957	820.04
938.133	605
938.308	512.85
938.483	803.66
938.659	576.33
938.834	514.89
939.009	455.5
939.185	703.31
939.36	545.61
939.535	222.03
939.71	537.42
939.886	940.87
940.061	789.32
940.236	590.67
940.411	521.04
940.586	744.27
940.761	820.04
940.937	502.61
941.112	418.64
941.287	615.24
941.462	715.59
941.637	400.21
941.812	516.94
941.987	725.83
942.162	674.64
942.337	516.94
942.512	486.22
942.687	752.46
942.862	719.69
943.037	271.19
943.212	203.6
943.386	531.28
943.561	670.54
943.736	572.24
943.911	537.42
944.086	637.77
944.26	572.24
944.435	340.82
944.61	533.33
944.785	906.06
944.959	949.06
945.134	447.31
945.309	336.72
945.483	328.53
945.658	791.37
945.833	72.53
946.007	312.14
946.182	924.49
946.357	412.5
946.531	256.85
946.706	291.66
946.88	232.27
947.055	645.96
947.229	367.44
947.404	269.14
947.578	766.79
947.752	412.5
947.927	238.42
948.101	224.08
948.276	502.61
948.45	623.44
948.624	451.41
948.799	244.56
948.973	613.2
949.147	197.46
949.321	355.15
949.496	371.54
949.67	754.51
949.844	488.27
950.018	283.47
950.193	318.29
950.367	1016.65
950.541	430.93
950.715	607.05
950.889	547.66
951.063	494.41
951.237	654.16
951.411	90.96
951.585	125.78
951.759	553.8
951.933	451.41
952.107	258.9
952.281	453.45
952.455	867.14
952.629	725.83
952.803	209.75
952.977	338.77
953.151	664.4
953.325	656.2
953.499	455.5
953.672	301.9
953.846	248.66
954.02	449.36
954.194	170.83
954.368	291.66
954.541	715.59
954.715	265.04
954.889	535.37
955.062	252.75
955.236	490.32
955.41	435.02
955.583	482.13
955.757	121.68
955.93	439.12
956.104	277.33
956.278	306
956.451	328.53
956.625	637.77
956.798	918.34
956.972	549.71
957.145	211.79
957.319	447.31
957.492	494.41
957.665	420.69
957.839	414.54
958.012	668.49
958.185	461.65
958.359	437.07
958.532	533.33
958.705	785.23
958.879	592.72
959.052	332.62
959.225	189.27
959.398	408.4
959.572	633.68
959.745	396.11
959.918	396.11
960.091	406.35
960.264	588.62
960.438	138.07
960.611	279.38
960.784	672.59
960.957	396.11
961.13	633.68
961.303	193.36
961.476	533.33
961.649	731.98
961.822	232.27
961.995	328.53
962.168	650.06
962.341	582.48
962.514	318.29
962.686	213.84
962.859	574.28
963.032	611.15
963.205	185.17
963.378	97.11
963.551	654.16
963.723	488.27
963.896	398.16
964.069	394.06
964.242	418.64
964.414	711.5
964.587	365.39
964.76	414.54
964.932	529.23
965.105	488.27
965.278	328.53
965.45	291.66
965.623	592.72
965.795	572.24
965.968	355.15
966.14	258.9
966.313	320.34
966.485	480.08
966.658	267.09
966.83	172.88
967.003	748.36
967.175	678.73
967.348	269.14
967.52	279.38
967.692	936.78
967.865	576.33
968.037	316.24
968.209	586.57
968.382	437.07
968.554	652.11
968.726	275.28
968.898	213.84
969.071	510.8
969.243	596.81
969.415	387.92
969.587	394.06
969.759	1006.41
969.932	695.11
970.104	254.8
970.276	-11.43
970.448	394.06
970.62	383.82
970.792	367.44
970.964	340.82
971.136	908.1
971.308	576.33
971.48	226.13
971.652	238.42
971.824	889.67
971.996	351.06
972.168	367.44
972.339	314.19
972.511	713.55
972.683	355.15
972.855	531.28
973.027	306
973.199	475.98
973.37	621.39
973.542	459.6
973.714	494.41
973.886	471.89
974.057	684.87
974.229	174.93
974.401	303.95
974.572	228.18
974.744	23.38
974.915	250.71
975.087	199.51
975.259	809.8
975.43	250.71
975.602	234.32
975.773	176.98
975.945	340.82
976.116	594.76
976.288	232.27
976.459	496.46
976.63	322.38
976.802	602.96
976.973	140.12
977.145	408.4
977.316	850.76
977.487	824.14
977.659	369.49
977.83	279.38
978.001	904.01
978.172	475.98
978.344	152.4
978.515	351.06
978.686	316.24
978.857	746.31
979.028	363.34
979.2	90.96
979.371	658.25
979.542	547.66
979.713	392.02
979.884	-79.02
980.055	367.44
980.226	406.35
980.397	193.36
980.568	158.55
980.739	664.4
980.91	308.05
981.081	330.58
981.252	170.83
981.423	672.59
981.594	623.44
981.765	123.73
981.936	312.14
982.106	437.07
982.277	725.83
982.448	293.71
982.619	334.67
982.79	406.35
982.96	684.87
983.131	336.72
983.302	39.76
983.472	416.59
983.643	559.95
983.814	295.76
983.984	271.19
984.155	414.54
984.326	662.35
984.496	371.54
984.667	256.85
984.837	205.65
985.008	731.98
985.178	414.54
985.349	254.8
985.519	443.21
985.69	226.13
985.86	301.9
986.031	144.21
986.201	473.93
986.371	596.81
986.542	156.5
986.712	-7.34
986.882	512.85
987.053	559.95
987.223	117.59
987.393	351.06
987.563	381.78
987.734	543.57
987.904	457.55
988.074	174.93
988.244	484.17
988.414	299.86
988.585	162.64
988.755	326.48
988.925	361.3
989.095	748.36
989.265	181.07
989.435	283.47
989.605	527.18
989.775	373.58
989.945	535.37
990.115	131.92
990.285	437.07
990.455	453.45
990.625	219.99
990.795	158.55
990.965	734.03
991.134	156.5
991.304	197.46
991.474	168.79
991.644	486.22
991.814	742.22
991.984	150.36
992.153	138.07
992.323	398.16
992.493	392.02
992.662	-31.91
992.832	273.23
993.002	506.7
993.171	574.28
993.341	35.67
993.511	308.05
993.68	187.22
993.85	512.85
994.019	86.87
994.189	109.4
994.358	410.45
994.528	236.37
994.697	-187.56
994.867	50
995.036	625.48
995.206	226.13
995.375	103.25
995.544	244.56
995.714	516.94
995.883	283.47
996.052	308.05
996.222	-19.63
996.391	875.34
996.56	424.78
996.73	90.96
996.899	15.19
997.068	781.13
997.237	412.5
997.406	93.01
997.576	-33.96
997.745	414.54
997.914	291.66
998.083	-124.07
998.252	88.92
998.421	289.62
998.59	215.89
998.759	41.81
998.928	-54.44
999.097	645.96
999.266	414.54
999.435	193.36
999.604	-95.4
999.773	781.13
999.942	322.38
1000.111	-140.46
1000.28	-109.74
1000.448	74.58
1000.617	129.88
1000.786	224.08
1000.955	2.9
1001.124	394.06
1001.292	1059.65
1001.461	33.62
1001.63	74.58
1001.798	738.12
1001.967	623.44
1002.136	-48.3
1002.304	-60.59
1002.473	420.69
1002.642	351.06
1002.81	152.4
1002.979	17.24
1003.147	510.8
1003.316	809.8
1003.484	-19.63
1003.653	-54.44
1003.821	658.25
1003.99	291.66
1004.158	252.75
1004.327	179.03
1004.495	480.08
1004.663	170.83
1004.832	205.65
1005	-62.63
1005.168	379.73
1005.337	375.63
1005.505	-93.35
1005.673	273.23
1005.842	408.4
1006.01	344.91
1006.178	-64.68
1006.346	-56.49
1006.514	435.02
1006.683	559.95
1006.851	-27.82
1007.019	-154.79
1007.187	19.29
1007.355	-44.2
1007.523	-212.14
1007.691	-162.98
1007.859	84.82
1008.027	529.23
1008.195	50
1008.363	-56.49
1008.531	525.13
1008.699	109.4
1008.867	-85.16
1009.035	19.29
1009.203	533.33
1009.37	283.47
1009.538	47.96
1009.706	400.21
1009.874	254.8
1010.042	246.61
1010.209	-89.26
1010.377	-83.11
1010.545	473.93
1010.713	230.23
1010.88	-50.35
1011.048	13.14
1011.216	244.56
1011.383	664.4
1011.551	-38.06
1011.718	-85.16
1011.886	582.48
1012.054	277.33
1012.221	-21.67
1012.389	-44.2
1012.556	228.18
1012.724	639.82
1012.891	64.34
1013.058	-142.5
1013.226	400.21
1013.393	424.78
1013.561	-230.57
1013.728	-185.51
1013.895	465.74
1014.063	392.02
1014.23	-107.69
1014.397	-9.39
1014.565	408.4
1014.732	187.22
1014.899	-91.31
1015.066	-72.87
1015.233	273.23
1015.401	467.79
1015.568	29.52
1015.735	136.02
1015.902	293.71
1016.069	369.49
1016.236	-91.31
1016.403	-83.11
1016.57	47.96
1016.737	437.07
1016.904	-5.29
1017.071	-115.88
1017.238	70.48
1017.405	418.64
1017.572	2.9
1017.739	140.12
1017.906	267.09
1018.073	465.74
1018.24	-119.98
1018.407	-70.83
1018.573	457.55
1018.74	242.51
1018.907	15.19
1019.074	-218.28
1019.241	369.49
1019.407	334.67
1019.574	-62.63
1019.741	-189.61
1019.907	289.62
1020.074	340.82
1020.241	-236.71
1020.407	-70.83
1020.574	322.38
1020.74	385.87
1020.907	-15.53
1021.073	-117.93
1021.24	709.45
1021.406	592.72
1021.573	-144.55
1021.739	-60.59
1021.906	437.07
1022.072	187.22
1022.239	-46.25
1022.405	-74.92
1022.571	353.1
1022.738	162.64
1022.904	-58.54
1023.07	-83.11
1023.237	250.71
1023.403	510.8
1023.569	-17.58
1023.735	-95.4
1023.902	340.82
1024.068	265.04
1024.234	-187.56
1024.4	-117.93
1024.566	334.67
1024.732	383.82
1024.898	-101.55
1025.065	-251.05
1025.231	467.79
1025.397	142.16
1025.563	-113.83
1025.729	-76.97
1025.895	-132.26
1026.061	7
1026.227	-242.85
1026.392	-109.74
1026.558	482.13
1026.724	332.62
1026.89	-109.74
1027.056	-48.3
1027.222	383.82
1027.388	138.07
1027.553	-115.88
1027.719	-40.11
1027.885	578.38
1028.051	351.06
1028.216	-371.88
1028.382	-11.43
1028.548	494.41
1028.713	158.55
1028.879	-181.42
1029.045	119.64
1029.21	527.18
1029.376	432.97
1029.541	4.95
1029.707	-70.83
1029.873	344.91
1030.038	373.58
1030.204	-109.74
1030.369	-33.96
1030.534	508.75
1030.7	129.88
1030.865	-109.74
1031.031	-31.91
1031.196	303.95
1031.361	318.29
1031.527	-76.97
1031.692	-124.07
1031.857	-42.15
1032.023	303.95
1032.188	-189.61
1032.353	4.95
1032.518	600.91
1032.684	197.46
1032.849	-201.9
1033.014	-68.78
1033.179	381.78
1033.344	394.06
1033.509	-91.31
1033.674	-183.46
1033.839	359.25
1034.004	332.62
1034.17	-48.3
1034.335	-148.65
1034.5	162.64
1034.664	27.48
1034.829	-115.88
1034.994	-23.72
1035.159	316.24
1035.324	238.42
1035.489	-103.59
1035.654	-64.68
1035.819	492.37
1035.984	303.95
1036.148	-46.25
1036.313	-97.45
1036.478	492.37
1036.643	269.14
1036.807	-124.07
1036.972	-117.93
1037.137	527.18
1037.301	224.08
1037.466	-283.81
1037.631	-105.64
1037.795	529.23
1037.96	326.48
1038.124	70.48
1038.289	-201.9
1038.454	314.19
1038.618	334.67
1038.783	-87.21
1038.947	-19.63
1039.111	262.99
1039.276	172.88
1039.44	-109.74
1039.605	318.29
1039.769	222.03
1039.933	160.59
1040.098	-76.97
1040.262	125.78
1040.426	404.3
1040.591	430.93
1040.755	-52.39
1040.919	-91.31
1041.083	367.44
1041.248	129.88
1041.412	-218.28
1041.576	-189.61
1041.74	219.99
1041.904	559.95
1042.068	-44.2
1042.232	-97.45
1042.397	400.21
1042.561	279.38
1042.725	-316.58
1042.889	76.63
1043.053	400.21
1043.217	410.45
1043.381	68.44
1043.544	-263.33
1043.708	523.09
1043.872	-23.72
1044.036	-289.96
1044.2	-234.66
1044.364	512.85
1044.528	645.96
1044.691	2628.4
1044.855	-189.61
1045.019	412.5
1045.183	334.67
1045.346	-74.92
1045.51	-146.6
1045.674	322.38
1045.837	451.41
1046.001	-91.31
1046.165	-105.64
1046.328	754.51
1046.492	375.63
1046.655	60.24
1046.819	-68.78
1046.983	125.78
1047.146	344.91
1047.31	15.19
1047.473	-283.81
1047.636	219.99
1047.8	68.44
1047.963	11.09
1048.127	-195.75
1048.29	105.3
