Data from Ink_Intensity_USB4F045381__122__00122.txt Node

Date: Mon Jul 17 11:11:37 EDT 2023
User: mmckonesweet
Spectrometer: USB4F04538
Trigger mode: 4
Integration Time (sec): 9.000000E-1
Scans to average: 1
Electric dark correction enabled: true
Nonlinearity correction enabled: false
Boxcar width: 0
XAxis mode: Wavelengths
Number of Pixels in Spectrum: 3648
>>>>>Begin Spectral Data<<<<<
345.52	-989.85
345.736	-989.85
345.952	-989.85
346.168	-1036.95
346.384	-1036.95
346.6	-144.04
346.816	-191.14
347.032	-182.95
347.248	257.36
347.464	-289.45
347.68	-27.31
347.896	68.95
348.112	398.67
348.328	-74.41
348.544	-119.46
348.76	36.18
348.975	267.6
349.191	-316.07
349.407	-158.38
349.623	81.24
349.839	-68.27
350.055	-197.29
350.27	79.19
350.486	183.63
350.702	394.58
350.918	281.94
351.133	-168.62
351.349	116.05
351.565	378.19
351.781	-252.58
351.996	3.41
352.212	247.12
352.428	-150.18
352.644	-168.62
352.859	-244.39
353.075	324.94
353.291	154.96
353.506	-98.99
353.722	-240.3
353.938	-33.45
354.153	435.53
354.369	107.86
354.584	-221.86
354.8	245.07
355.016	-391.84
355.231	-262.82
355.447	1.37
355.662	111.96
355.878	793.93
356.093	-389.8
356.309	62.8
356.524	-207.53
356.74	228.69
356.955	-215.72
357.171	-68.27
357.386	148.82
357.602	-166.57
357.817	-33.45
358.033	-135.85
358.248	365.9
358.464	193.87
358.679	-119.46
358.895	-314.02
359.11	-21.16
359.325	238.93
359.541	64.85
359.756	87.38
359.972	-250.53
360.187	232.79
360.402	-205.48
360.618	-195.24
360.833	906.57
361.048	179.54
361.264	-189.1
361.479	15.7
361.694	68.95
361.909	152.91
362.125	-248.49
362.34	-86.7
362.555	183.63
362.77	101.72
362.986	-338.6
363.201	-217.77
363.416	161.11
363.631	-12.97
363.847	-64.17
364.062	-195.24
364.277	124.24
364.492	101.72
364.707	-174.76
364.922	-393.89
365.138	179.54
365.353	333.14
365.568	-236.2
365.783	-176.81
365.998	25.94
366.213	562.51
366.428	-234.15
366.643	95.57
366.858	238.93
367.073	249.17
367.288	-135.85
367.503	-254.63
367.718	220.5
367.933	337.23
368.148	-295.59
368.363	-72.36
368.578	-8.87
368.793	535.89
369.008	-164.52
369.223	-287.4
369.438	195.92
369.653	382.29
369.868	-221.86
370.083	-320.17
370.298	42.32
370.513	398.67
370.728	44.37
370.943	-238.25
371.157	-90.79
371.372	609.61
371.587	-318.12
371.802	-281.25
372.017	66.9
372.232	390.48
372.446	3.41
372.661	-211.62
372.876	142.68
373.091	206.16
373.306	-49.83
373.52	-285.35
373.735	-180.9
373.95	513.36
374.165	21.84
374.379	-144.04
374.594	-144.04
374.809	175.44
375.023	-12.97
375.238	-314.02
375.453	267.6
375.667	-225.96
375.882	-103.08
376.097	-213.67
376.311	23.89
376.526	56.66
376.741	-244.39
376.955	111.96
377.17	566.6
377.384	558.41
377.599	-88.75
377.813	-344.74
378.028	591.18
378.242	200.02
378.457	-107.18
378.672	-387.75
378.886	89.43
379.101	-86.7
379.315	-338.6
379.53	-150.18
379.744	132.44
379.958	175.44
380.173	-160.42
380.387	-158.38
380.602	99.67
380.816	-105.13
381.031	-213.67
381.245	-86.7
381.459	183.63
381.674	2655.53
381.888	-221.86
382.103	99.67
382.317	-205.48
382.531	386.38
382.746	-68.27
382.96	-133.8
383.174	-189.1
383.388	462.16
383.603	1.37
383.817	-225.96
384.031	142.68
384.246	505.17
384.46	-37.55
384.674	347.47
384.888	-41.64
385.103	48.47
385.317	-213.67
385.531	-53.93
385.745	355.66
385.959	286.03
386.174	-207.53
386.388	-258.73
386.602	15.7
386.816	-86.7
387.03	-111.27
387.244	-144.04
387.458	27.99
387.672	419.15
387.887	-328.36
388.101	-340.65
388.315	290.13
388.529	136.53
388.743	-125.61
388.957	-320.17
389.171	253.27
389.385	-90.79
389.599	-131.75
389.813	68.95
390.027	122.2
390.241	578.89
390.455	-174.76
390.669	-103.08
390.883	-86.7
391.097	402.77
391.311	118.1
391.525	-266.92
391.738	146.77
391.952	146.77
392.166	-90.79
392.38	-221.86
392.594	326.99
392.808	361.81
393.022	-90.79
393.236	-86.7
393.449	333.14
393.663	105.81
393.877	-281.25
394.091	-117.42
394.305	-113.32
394.518	-82.6
394.732	-236.2
394.946	-84.65
395.16	404.82
395.373	101.72
395.587	-146.09
395.801	-182.95
396.015	331.09
396.228	167.25
396.442	-287.4
396.656	-287.4
396.869	370
397.083	441.68
397.297	-98.99
397.51	-185
397.724	413.01
397.938	54.61
398.151	-328.36
398.365	-299.69
398.578	243.03
398.792	322.9
399.005	-107.18
399.219	-207.53
399.433	185.68
399.646	193.87
399.86	-27.31
400.073	-37.55
400.287	300.37
400.5	42.32
400.714	-53.93
400.927	-72.36
401.141	275.79
401.354	1109.32
401.567	195.92
401.781	-236.2
401.994	228.69
402.208	601.42
402.421	-103.08
402.635	-72.36
402.848	32.08
403.061	269.65
403.275	-45.74
403.488	-246.44
403.701	542.03
403.915	322.9
404.128	21.84
404.341	-166.57
404.555	222.55
404.768	-29.35
404.981	-17.07
405.195	-193.19
405.408	507.21
405.621	257.36
405.834	46.42
406.048	-225.96
406.261	453.97
406.474	511.31
406.687	-176.81
406.9	44.37
407.114	23.89
407.327	187.73
407.54	-291.49
407.753	-311.97
407.966	-162.47
408.179	224.59
408.392	-281.25
408.605	-373.41
408.819	142.68
409.032	181.59
409.245	-185
409.458	40.28
409.671	240.98
409.884	290.13
410.097	-211.62
410.31	1.37
410.523	97.62
410.736	52.56
410.949	-70.31
411.162	-131.75
411.375	486.73
411.588	318.8
411.801	36.18
412.014	-197.29
412.227	54.61
412.44	-53.93
412.653	-180.9
412.865	-12.97
413.078	189.78
413.291	144.72
413.504	-66.22
413.717	-176.81
413.93	234.83
414.143	-117.42
414.356	-103.08
414.568	-434.85
414.781	277.84
414.994	64.85
415.207	-86.7
415.42	-111.27
415.632	249.17
415.845	480.59
416.058	-344.74
416.271	-277.16
416.483	97.62
416.696	595.28
416.909	-166.57
417.121	-189.1
417.334	226.64
417.547	519.5
417.759	-213.67
417.972	-311.97
418.185	-62.12
418.397	243.03
418.61	-160.42
418.823	-193.19
419.035	367.95
419.248	89.43
419.46	-191.14
419.673	-51.88
419.885	177.49
420.098	30.04
420.311	-156.33
420.523	-441
420.736	230.74
420.948	-12.97
421.161	-123.56
421.373	-381.6
421.586	150.87
421.798	-58.03
422.01	-336.55
422.223	-12.97
422.435	-41.64
422.648	200.02
422.86	-187.05
423.073	-185
423.285	300.37
423.497	-131.75
423.71	-211.62
423.922	-252.58
424.134	175.44
424.347	441.68
424.559	56.66
424.771	157.01
424.984	-17.07
425.196	163.15
425.408	-357.03
425.621	-234.15
425.833	204.11
426.045	318.8
426.257	-215.72
426.47	-146.09
426.682	150.87
426.894	232.79
427.106	-133.8
427.318	-217.77
427.531	-70.31
427.743	243.03
427.955	-115.37
428.167	140.63
428.379	167.25
428.591	81.24
428.804	44.37
429.016	-271.01
429.228	7.51
429.44	171.35
429.652	66.9
429.864	-307.88
430.076	-37.55
430.288	9.56
430.5	-43.69
430.712	-119.46
430.924	324.94
431.136	189.78
431.348	-357.03
431.56	-158.38
431.772	54.61
431.984	-19.11
432.196	-213.67
432.408	-162.47
432.62	-49.83
432.832	163.15
433.044	62.8
433.256	-84.65
433.468	187.73
433.679	-195.24
433.891	-252.58
434.103	48.47
434.315	306.51
434.527	179.54
434.739	-37.55
434.95	-207.53
435.162	281.94
435.374	-121.51
435.586	-166.57
435.798	-215.72
436.009	-144.04
436.221	19.8
436.433	-139.94
436.645	-154.28
436.856	17.75
437.068	331.09
437.28	-305.83
437.491	-15.02
437.703	167.25
437.915	126.29
438.126	-103.08
438.338	105.81
438.55	32.08
438.761	202.07
438.973	-123.56
439.184	-168.62
439.396	66.9
439.608	273.75
439.819	-258.73
440.031	-41.64
440.242	204.11
440.454	253.27
440.665	-55.98
440.877	-45.74
441.088	253.27
441.3	-29.35
441.511	-371.37
441.723	-197.29
441.934	114
442.146	44.37
442.357	-66.22
442.569	183.63
442.78	60.76
442.991	372.05
443.203	130.39
443.414	-205.48
443.626	404.82
443.837	-139.94
444.048	-244.39
444.26	-289.45
444.471	109.91
444.682	300.37
444.894	-410.28
445.105	-363.17
445.316	236.88
445.528	109.91
445.739	-107.18
445.95	-82.6
446.161	122.2
446.373	290.13
446.584	-172.71
446.795	-164.52
447.006	197.97
447.217	417.1
447.429	-340.65
447.64	-266.92
447.851	398.67
448.062	79.19
448.273	-332.45
448.484	-185
448.695	167.25
448.907	13.65
449.118	-2.73
449.329	-43.69
449.54	40.28
449.751	-125.61
449.962	-168.62
450.173	-223.91
450.384	312.66
450.595	406.86
450.806	-295.59
451.017	-58.03
451.228	290.13
451.439	331.09
451.65	-197.29
451.861	-395.94
452.072	-176.81
452.283	36.18
452.494	25.94
452.705	-223.91
452.915	398.67
453.126	142.68
453.337	-127.66
453.548	-242.34
453.759	335.18
453.97	613.71
454.181	30.04
454.391	-135.85
454.602	150.87
454.813	185.68
455.024	-166.57
455.235	-160.42
455.445	93.52
455.656	175.44
455.867	32.08
456.078	-217.77
456.288	17.75
456.499	175.44
456.71	-260.77
456.921	81.24
457.131	218.45
457.342	120.15
457.553	-152.23
457.763	-168.62
457.974	265.55
458.184	279.89
458.395	-152.23
458.606	-205.48
458.816	322.9
459.027	462.16
459.237	15.7
459.448	-264.87
459.659	322.9
459.869	617.8
460.08	-340.65
460.29	-29.35
460.501	552.27
460.711	21.84
460.922	-291.49
461.132	-139.94
461.343	750.92
461.553	-185
461.764	-185
461.974	-166.57
462.184	308.56
462.395	146.77
462.605	-131.75
462.816	-176.81
463.026	165.2
463.236	310.61
463.447	-170.66
463.657	-178.86
463.867	275.79
464.078	56.66
464.288	-60.07
464.498	-84.65
464.709	56.66
464.919	54.61
465.129	-98.99
465.339	-248.49
465.55	134.48
465.76	322.9
465.97	-158.38
466.18	-139.94
466.391	240.98
466.601	212.31
466.811	52.56
467.021	-215.72
467.231	173.39
467.441	404.82
467.651	-98.99
467.862	-367.27
468.072	5.46
468.282	464.21
468.492	-90.79
468.702	-86.7
468.912	122.2
469.122	664.91
469.332	68.95
469.542	-170.66
469.752	286.03
469.962	253.27
470.172	-170.66
470.382	-221.86
470.592	384.34
470.802	304.46
471.012	15.7
471.222	-156.33
471.432	372.05
471.642	302.42
471.852	-53.93
472.062	-242.34
472.272	111.96
472.482	-135.85
472.691	-217.77
472.901	-260.77
473.111	163.15
473.321	716.11
473.531	-213.67
473.741	-2.73
473.95	208.21
474.16	335.18
474.37	-33.45
474.58	-129.7
474.79	660.81
474.999	367.95
475.209	-209.58
475.419	-105.13
475.628	138.58
475.838	482.64
476.048	-107.18
476.258	-156.33
476.467	415.05
476.677	44.37
476.886	56.66
477.096	-37.55
477.306	52.56
477.515	539.98
477.725	-41.64
477.935	34.13
478.144	511.31
478.354	25.94
478.563	-62.12
478.773	-88.75
478.982	480.59
479.192	406.86
479.401	54.61
479.611	-60.07
479.82	-8.87
480.03	277.84
480.239	-176.81
480.449	-121.51
480.658	562.51
480.868	68.95
481.077	68.95
481.287	-29.35
481.496	345.42
481.705	677.19
481.915	163.15
482.124	234.83
482.333	372.05
482.543	554.32
482.752	71
482.961	-72.36
483.171	509.26
483.38	169.3
483.589	73.04
483.799	-111.27
484.008	150.87
484.217	378.19
484.426	-17.07
484.636	-164.52
484.845	353.62
485.054	-86.7
485.263	339.28
485.472	36.18
485.682	646.48
485.891	302.42
486.1	-215.72
486.309	-0.68
486.518	365.9
486.727	652.62
486.936	-96.94
487.146	120.15
487.355	535.89
487.564	46.42
487.773	161.11
487.982	-6.83
488.191	200.02
488.4	392.53
488.609	3.41
488.818	9.56
489.027	793.93
489.236	757.07
489.445	99.67
489.654	48.47
489.863	548.17
490.072	329.04
490.281	329.04
490.49	157.01
490.698	761.16
490.907	701.77
491.116	40.28
491.325	-45.74
491.534	658.76
491.743	435.53
491.952	232.79
492.16	124.24
492.369	470.35
492.578	589.13
492.787	230.74
492.996	-51.88
493.204	216.4
493.413	826.7
493.622	-139.94
493.831	-19.11
494.039	652.62
494.248	58.71
494.457	116.05
494.665	-21.16
494.874	523.6
495.083	970.05
495.291	236.88
495.5	150.87
495.709	628.04
495.917	460.11
496.126	394.58
496.335	25.94
496.543	353.62
496.752	470.35
496.96	494.93
497.169	1.37
497.377	464.21
497.586	707.91
497.794	296.27
498.003	-86.7
498.211	349.52
498.42	830.79
498.628	245.07
498.837	68.95
499.045	576.84
499.254	507.21
499.462	107.86
499.671	157.01
499.879	879.94
500.087	736.59
500.296	234.83
500.504	177.49
500.713	576.84
500.921	902.47
501.129	212.31
501.338	159.06
501.546	603.47
501.754	472.4
501.962	257.36
502.171	150.87
502.379	574.8
502.587	851.27
502.795	240.98
503.004	261.46
503.212	509.26
503.42	709.96
503.628	290.13
503.837	292.18
504.045	757.07
504.253	904.52
504.461	220.5
504.669	30.04
504.877	709.96
505.085	994.63
505.294	126.29
505.502	431.44
505.71	601.42
505.918	740.68
506.126	261.46
506.334	240.98
506.542	572.75
506.75	636.24
506.958	429.39
507.166	281.94
507.374	470.35
507.582	1004.87
507.79	521.55
507.998	240.98
508.206	677.19
508.414	757.07
508.622	292.18
508.83	363.86
509.037	1027.4
509.245	597.32
509.453	245.07
509.661	218.45
509.869	755.02
510.077	505.17
510.285	519.5
510.492	17.75
510.7	1252.67
510.908	499.02
511.116	320.85
511.324	161.11
511.531	603.47
511.739	650.57
511.947	585.04
512.155	673.1
512.362	611.66
512.57	431.44
512.778	269.65
512.985	191.83
513.193	877.9
513.401	1002.82
513.608	394.58
513.816	404.82
514.024	812.36
514.231	931.14
514.439	388.43
514.646	413.01
514.854	904.52
515.061	949.57
515.269	453.97
515.477	441.68
515.684	462.16
515.892	851.27
516.099	261.46
516.307	275.79
516.514	886.09
516.722	1183.04
516.929	474.45
517.136	406.86
517.344	1033.54
517.551	843.08
517.759	408.91
517.966	449.87
518.173	691.53
518.381	744.78
518.588	568.65
518.796	347.47
519.003	904.52
519.21	705.87
519.418	408.91
519.625	718.15
519.832	775.5
520.039	871.75
520.247	230.74
520.454	503.12
520.661	959.81
520.868	781.64
521.076	576.84
521.283	560.46
521.49	1355.07
521.697	879.94
521.904	539.98
522.112	550.22
522.319	1002.82
522.526	947.53
522.733	542.03
522.94	537.93
523.147	804.17
523.354	982.34
523.561	392.53
523.768	691.53
523.975	1090.88
524.183	955.72
524.39	623.95
524.597	423.25
524.804	920.9
525.011	652.62
525.218	539.98
525.425	626
525.632	1242.43
525.838	826.7
526.045	554.32
526.252	593.23
526.459	1920.31
526.666	1735.99
526.873	556.36
527.08	646.48
527.287	1353.02
527.494	1197.38
527.701	560.46
527.907	589.13
528.114	1082.69
528.321	884.04
528.528	658.76
528.735	752.97
528.941	904.52
529.148	855.37
529.355	861.51
529.562	707.91
529.768	1310.02
529.975	947.53
530.182	773.45
530.388	802.12
530.595	1258.82
530.802	722.25
531.008	830.79
531.215	744.78
531.422	1414.46
531.628	1660.22
531.835	830.79
532.042	812.36
532.248	931.14
532.455	1189.19
532.661	855.37
532.868	707.91
533.074	1129.8
533.281	1357.12
533.487	830.79
533.694	832.84
533.9	888.14
534.107	1277.25
534.313	671.05
534.52	732.49
534.726	1285.44
534.933	1529.15
535.139	791.88
535.345	662.86
535.552	1297.73
535.758	1146.18
535.965	857.42
536.171	795.98
536.377	1244.48
536.584	1494.33
536.79	781.64
536.996	970.05
537.203	1230.15
537.409	1293.63
537.615	871.75
537.821	1031.49
538.028	1398.08
538.234	1357.12
538.44	943.43
538.646	922.95
538.853	1416.51
539.059	1236.29
539.265	1353.02
539.471	685.39
539.677	1506.62
539.883	1264.96
540.09	943.43
540.296	1432.9
540.502	1285.44
540.708	1140.04
540.914	1142.08
541.12	1004.87
541.326	1506.62
541.532	1287.49
541.738	1195.33
541.944	1105.22
542.15	1512.77
542.356	1189.19
542.562	931.14
542.768	1084.74
542.974	1920.31
543.18	1862.97
543.386	1101.12
543.592	1006.92
543.798	1791.29
544.004	1695.04
544.21	1111.36
544.415	1232.19
544.621	1439.04
544.827	1664.32
545.033	970.05
545.239	1359.17
545.445	1162.56
545.651	1523.01
545.856	1125.7
546.062	1086.79
546.268	1260.87
546.474	1398.08
546.679	1189.19
546.885	1183.04
547.091	1490.24
547.297	1965.37
547.502	1281.35
547.708	1078.6
547.914	1338.69
548.119	1617.21
548.325	1060.17
548.531	1080.64
548.736	2026.81
548.942	1234.24
549.147	1137.99
549.353	1473.85
549.559	1731.9
549.764	1549.63
549.97	1172.8
550.175	1224
550.381	1701.18
550.586	1330.5
550.792	1344.83
550.997	1226.05
551.203	1752.38
551.408	1666.36
551.614	1207.62
551.819	1336.64
552.025	1989.94
552.23	1983.8
552.435	1125.7
552.641	1484.09
552.846	1420.61
553.052	1957.18
553.257	1533.25
553.462	1365.31
553.668	1488.19
553.873	1770.81
554.078	1297.73
554.283	1391.94
554.489	1873.21
554.694	1699.13
554.899	1307.97
555.105	1654.08
555.31	1854.78
555.515	1928.5
555.72	1545.53
555.925	1324.35
556.131	1879.35
556.336	1684.8
556.541	1441.09
556.746	1494.33
556.951	2051.38
557.156	2100.53
557.361	1574.21
557.567	1670.46
557.772	2080.05
557.977	1932.6
558.182	1277.25
558.387	1576.25
558.592	1674.56
558.797	2086.2
559.002	1514.81
559.207	1695.04
559.412	1856.82
559.617	2303.28
559.822	1568.06
560.027	1453.38
560.232	1971.51
560.437	2045.24
560.642	1482.05
560.847	1473.85
561.051	1832.25
561.256	1940.79
561.461	1621.31
561.666	1492.29
561.871	1920.31
562.076	2094.39
562.281	1627.45
562.485	1539.39
562.69	2116.92
562.895	2067.77
563.1	1641.79
563.305	1676.6
563.509	2280.75
563.714	2493.74
563.919	1547.58
564.123	1678.65
564.328	1858.87
564.533	2223.41
564.737	1688.89
564.942	1692.99
565.147	2403.63
565.351	2569.52
565.556	1844.54
565.761	1768.76
565.965	2112.82
566.17	1897.78
566.374	1834.3
566.579	1699.13
566.784	1996.09
566.988	2008.37
567.193	1654.08
567.397	1766.71
567.602	1760.57
567.806	2078.01
568.011	1860.92
568.215	1887.54
568.42	2153.78
568.624	2039.09
568.828	1832.25
569.033	1891.64
569.237	2278.71
569.442	2313.52
569.646	1631.55
569.85	1817.91
570.055	2131.25
570.259	2174.26
570.463	2174.26
570.668	1895.74
570.872	2164.02
571.076	2221.36
571.281	2082.1
571.485	2145.59
571.689	2192.69
571.893	2428.21
572.098	2118.96
572.302	1996.09
572.506	2323.76
572.71	2184.5
572.914	1969.46
573.119	1996.09
573.323	2551.09
573.527	2542.89
573.731	2071.86
573.935	1873.21
574.139	2303.28
574.343	2157.88
574.547	2055.48
574.751	2116.92
574.955	2786.6
575.159	2655.53
575.364	2032.95
575.568	1817.91
575.772	2256.18
575.976	2659.63
576.18	2035
576.383	1975.61
576.587	2630.96
576.791	2618.67
576.995	1920.31
577.199	1875.26
577.403	2637.1
577.607	2651.44
577.811	1989.94
578.015	2180.4
578.219	2653.48
578.422	2655.53
578.626	2178.36
578.83	2370.87
579.034	2741.55
579.238	2555.18
579.442	2125.11
579.645	2575.66
579.849	2430.26
580.053	2497.84
580.257	2217.27
580.46	2395.44
580.664	2768.17
580.868	2553.13
581.071	2379.06
581.275	2430.26
581.479	2362.67
581.682	2733.36
581.886	2336.05
582.09	2479.41
582.293	2837.8
582.497	2764.08
582.7	2518.32
582.904	2266.42
583.107	2618.67
583.311	2616.62
583.515	2415.92
583.718	2350.39
583.922	2901.29
584.125	3167.52
584.329	2290.99
584.532	2473.26
584.735	3067.17
584.939	2796.84
585.142	2346.29
585.346	2473.26
585.549	2972.97
585.753	2731.31
585.956	2387.25
586.159	2678.06
586.363	3153.19
586.566	2848.04
586.769	2381.1
586.973	2370.87
587.176	2936.1
587.379	3079.46
587.582	2856.23
587.786	2729.26
587.989	2946.34
588.192	3349.79
588.395	2684.2
588.599	2909.48
588.802	3022.12
589.005	3087.65
589.208	2772.27
589.411	2559.28
589.615	3130.66
589.818	3394.85
590.021	2878.76
590.224	2759.98
590.427	3192.1
590.63	3380.51
590.833	2643.24
591.036	2710.83
591.239	3005.74
591.442	2932.01
591.645	2983.21
591.848	2690.35
592.051	3147.05
592.254	3337.51
592.457	2934.06
592.66	2913.58
592.863	2999.59
593.066	3357.99
593.269	2850.09
593.472	3030.31
593.675	3052.84
593.878	3280.16
594.081	3155.24
594.284	2886.95
594.486	3503.39
594.689	3288.36
594.892	2981.16
595.095	2938.15
595.298	3304.74
595.5	3175.72
595.703	3003.69
595.906	3128.61
596.109	3501.34
596.311	3511.58
596.514	2637.1
596.717	2946.34
596.92	3646.75
597.122	3386.66
597.325	2960.68
597.528	2919.72
597.73	3519.78
597.933	3286.31
598.136	3085.61
598.338	2813.23
598.541	3489.06
598.743	3681.57
598.946	3190.05
599.148	3050.79
599.351	3597.6
599.554	3708.19
599.756	3231.01
599.959	3247.4
600.161	3558.69
600.363	3984.66
600.566	3370.27
600.768	3145
600.971	3757.34
601.173	3681.57
601.376	3054.89
601.578	3261.73
601.78	3648.8
601.983	4093.21
602.185	3206.44
602.388	3429.66
602.59	3722.52
602.792	3484.96
602.995	3530.02
603.197	3263.78
603.399	3865.88
603.601	3700
603.804	3509.54
604.006	3339.55
604.208	3536.16
604.41	3214.63
604.613	3419.43
604.815	3353.89
605.017	4257.04
605.219	3392.8
605.421	3613.98
605.623	3448.1
605.826	4007.19
606.028	3929.37
606.23	3435.81
606.432	3400.99
606.634	4244.76
606.836	3919.13
607.038	3452.19
607.24	3517.73
607.442	3898.65
607.644	3806.49
607.846	3597.6
608.048	3489.06
608.25	4150.55
608.452	3747.1
608.654	3620.13
608.856	3304.74
609.058	3812.64
609.26	4054.3
609.462	3704.09
609.664	3683.61
609.866	4314.39
610.067	4115.73
610.269	3816.73
610.471	3652.89
610.673	3767.58
610.875	3915.03
611.077	3626.27
611.278	3702.04
611.48	4099.35
611.682	4470.03
611.884	3759.39
612.085	3736.86
612.287	3714.33
612.489	3976.47
612.69	3507.49
612.892	3740.96
613.094	4252.95
613.295	4123.93
613.497	3659.04
613.699	3691.8
613.9	4527.38
614.102	4218.13
614.304	3773.72
614.505	3646.75
614.707	4134.17
614.908	4156.69
615.11	3595.55
615.311	3927.32
615.513	4361.49
615.714	4318.48
615.916	3718.43
616.117	3724.57
616.319	4029.72
616.52	4279.57
616.722	3941.66
616.923	3931.42
617.124	4541.71
617.326	4166.93
617.527	3966.23
617.729	4220.18
617.93	4287.76
618.131	4298
618.333	4046.1
618.534	3865.88
618.735	3990.81
618.937	4535.57
619.138	3837.21
619.339	3804.44
619.54	4410.64
619.742	4306.2
619.943	4011.29
620.144	3992.86
620.345	4363.54
620.546	4406.55
620.748	3980.57
620.949	3988.76
621.15	4369.68
621.351	4396.31
621.552	3988.76
621.753	3872.03
621.954	3951.9
622.155	4621.58
622.356	4050.2
622.558	4250.9
622.759	4373.78
622.96	4867.34
623.161	4263.19
623.362	4148.5
623.563	4306.2
623.764	4572.43
623.965	4218.13
624.166	4412.69
624.366	4418.83
624.567	4533.52
624.768	4017.43
624.969	4175.13
625.17	4461.84
625.371	4613.39
625.572	4291.86
625.773	4142.36
625.973	4867.34
626.174	4799.76
626.375	4271.38
626.576	4314.39
626.777	4642.06
626.977	5111.05
627.178	4351.25
627.379	4406.55
627.58	4371.73
627.78	4754.7
627.981	4336.92
628.182	4498.7
628.382	4879.63
628.583	4136.21
628.784	4257.04
628.984	4570.38
629.185	4758.8
629.386	5027.08
629.586	4488.46
629.787	4259.09
629.987	4924.68
630.188	4701.45
630.388	4513.04
630.589	4472.08
630.79	5311.75
630.99	4787.47
631.191	4500.75
631.391	4633.87
631.591	4879.63
631.792	5098.76
631.992	4654.35
632.193	4508.94
632.393	5156.1
632.594	4990.22
632.794	4447.51
632.994	4582.67
633.195	4840.72
633.395	4910.35
633.595	4670.73
633.796	4920.59
633.996	4803.85
634.196	5084.42
634.397	4619.53
634.597	4754.7
634.797	4715.79
634.997	5135.62
635.198	5012.74
635.398	4637.97
635.598	5070.09
635.798	5385.48
635.998	5004.55
636.199	4654.35
636.399	4859.15
636.599	4801.8
636.799	4640.01
636.999	5004.55
637.199	5186.82
637.399	5342.47
637.599	4853
637.799	4867.34
637.999	4861.2
638.199	5569.79
638.399	4660.49
638.599	4828.43
638.799	5311.75
638.999	5598.46
639.199	4967.69
639.399	4975.88
639.599	5483.78
639.799	4881.67
639.999	4625.68
640.199	4820.24
640.399	5287.17
640.599	5268.74
640.799	5084.42
640.998	5227.78
641.198	5498.11
641.398	5391.62
641.598	5285.12
641.798	5109
641.997	6157.56
642.197	5377.28
642.397	5018.89
642.597	4930.83
642.796	5510.4
642.996	5737.73
643.196	5311.75
643.395	5031.18
643.595	5545.22
643.795	5061.9
643.994	5022.98
644.194	5285.12
644.394	5604.61
644.593	5676.29
644.793	4846.86
644.992	5256.45
645.192	5498.11
645.392	5025.03
645.591	5258.5
645.791	5254.41
645.99	5733.63
646.19	5344.52
646.389	5434.63
646.589	5350.66
646.788	5561.6
646.987	5741.82
647.187	5594.37
647.386	5504.26
647.586	5520.64
647.785	5756.16
647.984	5346.56
648.184	5336.32
648.383	5555.46
648.582	5532.93
648.782	5434.63
648.981	5516.55
649.18	5287.17
649.38	5559.55
649.579	5430.53
649.778	5340.42
649.977	5840.12
650.177	5725.44
650.376	5412.1
650.575	5383.43
650.774	6171.9
650.973	5537.02
651.173	5258.5
651.372	5459.2
651.571	5735.68
651.77	6036.73
651.969	5393.67
652.168	5561.6
652.367	5571.84
652.566	6034.68
652.765	5410.05
652.964	5625.09
653.163	6245.62
653.362	5752.06
653.561	5475.59
653.76	5754.11
653.959	5864.7
654.158	6163.7
654.357	5754.11
654.556	5635.33
654.755	6175.99
654.954	5901.56
655.153	5600.51
655.352	5811.45
655.551	6245.62
655.749	5750.01
655.948	5948.67
656.147	5766.4
656.346	6128.89
656.545	5991.67
656.743	5969.15
656.942	5852.41
657.141	6231.29
657.34	5799.16
657.538	5821.69
657.737	5909.76
657.936	5963
658.135	6161.66
658.333	5747.97
658.532	5838.08
658.731	6669.55
658.929	6247.67
659.128	6044.92
659.326	5739.77
659.525	6470.9
659.724	6173.94
659.922	5750.01
660.121	5770.49
660.319	6178.04
660.518	5977.34
660.716	5729.53
660.915	5827.84
661.113	6528.24
661.312	6073.59
661.51	6145.27
661.709	5952.76
661.907	6401.27
662.105	6593.78
662.304	6114.55
662.502	6063.35
662.701	6425.84
662.899	6014.2
663.097	6345.97
663.296	5778.69
663.494	6659.31
663.692	6567.15
663.891	6120.7
664.089	5717.25
664.287	6438.13
664.485	6632.69
664.684	6122.74
664.882	6171.9
665.08	6202.61
665.278	6368.5
665.476	6178.04
665.675	6368.5
665.873	6833.39
666.071	6630.64
666.269	6165.75
666.467	6214.9
666.665	6583.54
666.863	6401.27
667.061	6491.38
667.259	6298.87
667.457	6436.08
667.655	6733.04
667.853	6053.11
668.051	6411.51
668.249	6268.15
668.447	6626.54
668.645	6229.24
668.843	6413.56
669.041	6745.33
669.239	6446.32
669.437	6386.93
669.635	6587.63
669.833	6292.73
670.031	6632.69
670.229	6302.97
670.426	6425.84
670.624	6479.09
670.822	6321.4
671.02	6188.28
671.218	6401.27
671.415	6434.04
671.613	6714.61
671.811	6417.65
672.009	6266.1
672.206	6835.44
672.404	6683.89
672.602	6716.65
672.799	6456.56
672.997	6790.38
673.195	6708.46
673.392	6569.2
673.59	6507.76
673.788	6763.76
673.985	6190.33
674.183	6413.56
674.38	6450.42
674.578	6905.07
674.775	6538.48
674.973	6296.82
675.17	6585.58
675.368	6995.18
675.565	6798.57
675.763	6581.49
675.96	6335.73
676.158	7005.42
676.355	6638.83
676.553	6466.8
676.75	6544.63
676.947	6796.53
677.145	6655.22
677.342	6638.83
677.539	6573.3
677.737	6745.33
677.934	7277.8
678.131	6687.98
678.329	6503.67
678.526	7103.72
678.723	6946.03
678.92	6581.49
679.118	6583.54
679.315	6460.66
679.512	7259.37
679.709	6696.18
679.906	6591.73
680.104	6952.17
680.301	6792.43
680.498	6601.97
680.695	6526.19
680.892	6780.14
681.089	6769.9
681.286	6698.22
681.483	6548.72
681.68	6860.01
681.877	7023.85
682.075	6599.92
682.272	6872.3
682.469	6956.27
682.665	6753.52
682.862	6573.3
683.059	6726.89
683.256	6952.17
683.453	6876.4
683.65	6790.38
683.847	6634.74
684.044	6958.32
684.241	6706.41
684.438	6917.36
684.635	6814.96
684.831	7570.66
685.028	7404.77
685.225	6788.33
685.422	6831.34
685.619	6954.22
685.815	6968.55
686.012	6745.33
686.209	6671.6
686.405	6980.84
686.602	7109.86
686.799	6651.12
686.996	6761.71
687.192	6628.59
687.389	7419.11
687.586	6620.4
687.782	6960.36
687.979	7204.07
688.175	7242.98
688.372	6851.82
688.568	6843.63
688.765	6984.94
688.962	7380.2
689.158	6919.4
689.355	6753.52
689.551	7273.7
689.748	6821.1
689.944	6900.97
690.14	6601.97
690.337	7281.89
690.533	7087.34
690.73	6989.03
690.926	6786.29
691.123	7189.74
691.319	7019.75
691.515	6747.37
691.712	7093.48
691.908	7193.83
692.104	7210.22
692.301	7007.47
692.497	6782.19
692.693	7333.09
692.889	7415.01
693.086	7077.1
693.282	6827.25
693.478	7181.54
693.674	7613.67
693.87	7050.47
694.067	6638.83
694.263	7277.8
694.459	7179.5
694.655	7107.82
694.851	6984.94
695.047	7228.65
695.243	7240.93
695.439	7140.58
695.635	6974.7
695.831	7437.54
696.027	7331.05
696.224	6821.1
696.42	7329
696.615	7568.61
696.811	7335.14
697.007	6952.17
697.203	6946.03
697.399	7447.78
697.595	7394.53
697.791	6927.6
697.987	7083.24
698.183	7089.39
698.379	6925.55
698.575	7083.24
698.77	7005.42
698.966	7458.02
699.162	7558.37
699.358	7038.19
699.554	7070.95
699.749	7341.29
699.945	7527.65
700.141	7245.03
700.337	7161.06
700.532	7382.24
700.728	6999.27
700.924	7077.1
701.119	6978.79
701.315	7492.83
701.511	7388.39
701.706	7363.81
701.902	6892.78
702.097	7277.8
702.293	7501.03
702.489	7105.77
702.684	7019.75
702.88	7382.24
703.075	7183.59
703.271	7111.91
703.466	7122.15
703.662	7300.33
703.857	7474.4
704.053	7068.91
704.248	7281.89
704.443	7535.84
704.639	7707.87
704.834	6974.7
705.03	6972.65
705.225	7621.86
705.42	7773.41
705.616	7296.23
705.811	7169.26
706.006	7175.4
706.202	7148.78
706.397	7451.88
706.592	7179.5
706.787	7445.73
706.983	7331.05
707.178	7531.75
707.373	7150.82
707.568	7832.8
707.763	7632.1
707.959	7285.99
708.154	7255.27
708.349	7519.46
708.544	7683.3
708.739	7347.43
708.934	7152.87
709.129	7564.51
709.324	7646.43
709.519	7163.11
709.714	7134.44
709.909	7793.89
710.104	7564.51
710.299	7204.07
710.494	7353.57
710.689	7738.59
710.884	7593.19
711.079	7318.76
711.274	7470.31
711.469	7728.35
711.664	7695.58
711.859	7173.35
712.054	7482.6
712.249	7429.35
712.443	7580.9
712.638	7372
712.833	7150.82
713.028	7492.83
713.223	7445.73
713.417	7447.78
713.612	7345.38
713.807	7709.92
714.002	8080.6
714.196	7640.29
714.391	7220.46
714.586	7861.47
714.78	7769.31
714.975	7417.06
715.17	7337.19
715.364	7671.01
715.559	7820.51
715.754	6905.07
715.948	7261.41
716.143	8049.88
716.337	7711.97
716.532	7556.32
716.726	7288.04
716.921	7703.78
717.115	8002.78
717.31	7130.34
717.504	7896.28
717.699	7609.57
717.893	7576.8
718.088	7240.93
718.282	7197.93
718.476	7632.1
718.671	7832.8
718.865	7398.63
719.059	7124.2
719.254	7603.43
719.448	7924.96
719.642	8744.14
719.837	6991.08
720.031	7777.5
720.225	7720.16
720.419	7539.94
720.614	7283.94
720.808	7720.16
721.002	7480.55
721.196	7253.22
721.39	7240.93
721.585	7986.4
721.779	7671.01
721.973	7556.32
722.167	7126.25
722.361	7671.01
722.555	7754.97
722.749	7253.22
722.943	7310.57
723.137	7361.76
723.331	7654.62
723.525	7402.72
723.719	7445.73
723.913	7679.2
724.107	7894.24
724.301	7253.22
724.495	7466.21
724.689	8066.27
724.883	7947.48
725.077	7285.99
725.271	7347.43
725.465	7851.23
725.659	7675.1
725.853	7460.07
726.046	7173.35
726.24	7388.39
726.434	7904.48
726.628	7187.69
726.822	7408.87
727.015	7931.1
727.209	7939.29
727.403	7517.41
727.596	7296.23
727.79	8021.21
727.984	7832.8
728.177	7611.62
728.371	7718.11
728.565	7908.57
728.758	7433.44
728.952	7251.17
729.146	7388.39
729.339	7998.68
729.533	7527.65
729.726	7382.24
729.92	7324.9
730.113	8164.57
730.307	7875.81
730.5	7632.1
730.694	7597.28
730.887	7720.16
731.081	8228.06
731.274	7513.31
731.468	7470.31
731.661	7879.9
731.854	7701.73
732.048	7568.61
732.241	7355.62
732.435	7820.51
732.628	8039.64
732.821	7646.43
733.014	7441.64
733.208	7648.48
733.401	7933.15
733.594	7666.91
733.788	7486.69
733.981	8260.82
734.174	7886.04
734.367	7648.48
734.56	7892.19
734.754	8236.25
734.947	7943.39
735.14	7554.27
735.333	7640.29
735.526	8027.35
735.719	7716.06
735.912	7587.04
736.105	7392.48
736.298	7947.48
736.491	7681.25
736.684	7486.69
736.877	7597.28
737.07	8150.23
737.263	8254.68
737.456	7646.43
737.649	7574.75
737.842	7820.51
738.035	7941.34
738.228	7814.37
738.421	7978.2
738.614	8234.2
738.807	8350.93
739	7400.68
739.192	7582.95
739.385	8250.58
739.578	8068.31
739.771	8086.75
739.964	7752.93
740.156	8072.41
740.349	7916.76
740.542	8017.11
740.735	7671.01
740.927	7957.72
741.12	7707.87
741.313	7453.92
741.505	7830.75
741.698	8137.95
741.891	8037.59
742.083	7935.2
742.276	7777.5
742.468	7838.94
742.661	8072.41
742.854	7754.97
743.046	7771.36
743.239	8301.78
743.431	8056.03
743.624	7875.81
743.816	7541.99
744.009	8072.41
744.201	8105.18
744.393	7955.68
744.586	7623.9
744.778	8178.9
744.971	8170.71
745.163	7908.57
745.355	7894.24
745.548	7744.74
745.74	7832.8
745.932	7843.04
746.125	7843.04
746.317	8488.15
746.509	8029.4
746.702	7740.64
746.894	7759.07
747.086	8017.11
747.278	8244.44
747.471	8031.45
747.663	7791.84
747.855	8103.13
748.047	8418.52
748.239	7746.78
748.431	7791.84
748.623	8469.72
748.815	8602.83
749.008	7666.91
749.2	7974.11
749.392	8371.41
749.584	7892.19
749.776	8017.11
749.968	8021.21
750.16	8600.79
750.352	7959.77
750.544	7757.02
750.736	7824.61
750.928	8420.56
751.12	8090.84
751.311	7724.26
751.503	7869.66
751.695	8340.69
751.887	7984.35
752.079	7556.32
752.271	7836.89
752.463	8817.87
752.654	8328.41
752.846	8135.9
753.038	7935.2
753.23	7965.92
753.421	8348.89
753.613	7992.54
753.805	8203.48
753.997	8283.35
754.188	8383.7
754.38	7818.46
754.572	7888.09
754.763	8119.51
754.955	8219.86
755.146	7982.3
755.338	7765.21
755.53	8103.13
755.721	8080.6
755.913	7711.97
756.104	7781.6
756.296	7976.16
756.487	8363.22
756.679	7771.36
756.87	7695.58
757.062	7972.06
757.253	8156.38
757.445	7685.34
757.636	7941.34
757.827	8215.77
758.019	8514.77
758.21	7574.75
758.401	7824.61
758.593	8514.77
758.784	8557.78
758.975	7697.63
759.167	7570.66
759.358	8238.3
759.549	8275.16
759.74	7898.33
759.932	8002.78
760.123	8146.14
760.314	7847.13
760.505	7765.21
760.696	7695.58
760.888	8488.15
761.079	7879.9
761.27	7630.05
761.461	7617.76
761.652	8387.8
761.843	7853.28
762.034	7765.21
762.225	8119.51
762.416	7972.06
762.607	8119.51
762.798	7662.82
762.989	7662.82
763.18	8848.59
763.371	7769.31
763.562	7828.7
763.753	7728.35
763.944	8162.52
764.135	8326.36
764.326	7949.53
764.517	7773.41
764.708	7963.87
764.899	8037.59
765.089	7656.67
765.28	7654.62
765.471	8010.97
765.662	8154.33
765.853	7718.11
766.043	7490.79
766.234	8367.32
766.425	8219.86
766.615	7716.06
766.806	7580.9
766.997	8498.39
767.187	8041.69
767.378	7724.26
767.569	7521.51
767.759	7949.53
767.95	8051.93
768.141	7802.08
768.331	7685.34
768.522	7814.37
768.712	8148.18
768.903	7576.8
769.093	7646.43
769.284	8258.78
769.474	7941.34
769.665	7478.5
769.855	7396.58
770.046	8133.85
770.236	7806.17
770.426	7816.41
770.617	7539.94
770.807	8060.12
770.998	7814.37
771.188	7855.33
771.378	7425.25
771.569	8129.75
771.759	7967.96
771.949	7441.64
772.139	7380.2
772.33	7787.74
772.52	8168.66
772.71	7556.32
772.9	7548.13
773.09	8350.93
773.281	8207.58
773.471	7582.95
773.661	7412.96
773.851	8086.75
774.041	7730.4
774.231	7539.94
774.421	7687.39
774.611	8174.81
774.802	7822.56
774.992	7494.88
775.182	7564.51
775.372	7845.09
775.562	8092.89
775.752	7679.2
775.942	7556.32
776.131	8105.18
776.321	7996.64
776.511	7587.04
776.701	7310.57
776.891	7998.68
777.081	7466.21
777.271	7480.55
777.461	7431.4
777.651	7924.96
777.84	7836.89
778.03	7548.13
778.22	7285.99
778.41	8064.22
778.599	7541.99
778.789	7449.83
778.979	7501.03
779.169	7769.31
779.358	7761.12
779.548	7720.16
779.738	7374.05
779.927	7734.5
780.117	7460.07
780.307	7582.95
780.496	7015.66
780.686	7847.13
780.875	8137.95
781.065	7570.66
781.254	7415.01
781.444	7650.53
781.633	7785.69
781.823	7202.02
782.012	7523.55
782.202	7591.14
782.391	7580.9
782.581	7335.14
782.77	7544.03
782.96	7795.93
783.149	7597.28
783.338	7314.66
783.528	7333.09
783.717	7754.97
783.906	7951.58
784.096	7306.47
784.285	7404.77
784.474	7507.17
784.663	7437.54
784.853	7347.43
785.042	7544.03
785.231	7644.38
785.42	7906.52
785.61	7458.02
785.799	7171.3
785.988	7638.24
786.177	7632.1
786.366	7271.65
786.555	7558.37
786.744	7566.56
786.933	7460.07
787.122	7187.69
787.312	7083.24
787.501	7675.1
787.69	7804.13
787.879	7294.18
788.068	7249.13
788.257	7234.79
788.445	7501.03
788.634	7294.18
788.823	7064.81
789.012	8150.23
789.201	7943.39
789.39	7277.8
789.579	7036.14
789.768	7535.84
789.957	7564.51
790.145	7288.04
790.334	7001.32
790.523	7329
790.712	7453.92
790.9	7382.24
791.089	7097.58
791.278	7802.08
791.467	7533.79
791.655	7494.88
791.844	7603.43
792.033	7294.18
792.221	7341.29
792.41	7421.16
792.599	6999.27
792.787	7681.25
792.976	7714.02
793.164	7118.06
793.353	7261.41
793.541	7675.1
793.73	7740.64
793.918	7310.57
794.107	7073
794.295	7544.03
794.484	7498.98
794.672	7077.1
794.861	7267.56
795.049	7425.25
795.238	7965.92
795.426	6970.6
795.614	7308.52
795.803	7363.81
795.991	7765.21
796.179	7064.81
796.368	7193.83
796.556	7922.91
796.744	7148.78
796.932	7130.34
797.121	7056.62
797.309	7445.73
797.497	7685.34
797.685	7234.79
797.874	7206.12
798.062	7513.31
798.25	7941.34
798.438	7097.58
798.626	7214.31
798.814	7746.78
799.002	8084.7
799.19	7353.57
799.378	7240.93
799.566	7886.04
799.755	7924.96
799.943	7464.16
800.131	7171.3
800.318	7515.36
800.506	7501.03
800.694	7130.34
800.882	7355.62
801.07	7611.62
801.258	7460.07
801.446	7056.62
801.634	7216.36
801.822	7668.96
802.01	7746.78
802.197	7089.39
802.385	7460.07
802.573	7562.47
802.761	7372
802.949	7449.83
803.136	7107.82
803.324	7906.52
803.512	7468.26
803.699	7433.44
803.887	7142.63
804.075	8084.7
804.262	7308.52
804.45	7343.33
804.638	7427.3
804.825	7443.68
805.013	7556.32
805.201	7447.78
805.388	7290.09
805.576	7691.49
805.763	8146.14
805.951	7427.3
806.138	7660.77
806.326	8035.55
806.513	7832.8
806.701	7595.23
806.888	7517.41
807.075	7886.04
807.263	8297.69
807.45	7347.43
807.638	7761.12
807.825	8111.32
808.012	8039.64
808.2	7423.2
808.387	7789.79
808.574	7892.19
808.761	8078.55
808.949	7427.3
809.136	7607.52
809.323	7628
809.51	7933.15
809.698	7933.15
809.885	7845.09
810.072	7900.38
810.259	8084.7
810.446	7564.51
810.633	7498.98
810.82	8115.42
811.008	8531.16
811.195	7761.12
811.382	7654.62
811.569	7806.17
811.756	7642.34
811.943	7804.13
812.13	7867.61
812.317	7847.13
812.504	7902.43
812.691	7779.55
812.878	7703.78
813.064	8258.78
813.251	8084.7
813.438	7890.14
813.625	7875.81
813.812	7957.72
813.999	8096.99
814.186	7607.52
814.372	7992.54
814.559	8010.97
814.746	8289.49
814.933	7722.21
815.12	8103.13
815.306	7847.13
815.493	7906.52
815.68	7859.42
815.866	7611.62
816.053	8367.32
816.24	8484.05
816.426	7900.38
816.613	7630.05
816.799	8142.04
816.986	8336.6
817.173	7748.83
817.359	7501.03
817.546	8178.9
817.732	7728.35
817.919	7441.64
818.105	7877.85
818.292	7980.25
818.478	8180.95
818.665	7945.44
818.851	7711.97
819.037	8525.01
819.224	8090.84
819.41	7554.27
819.597	7744.74
819.783	8475.86
819.969	8187.1
820.156	7697.63
820.342	7617.76
820.528	8801.49
820.714	7929.05
820.901	8193.24
821.087	7892.19
821.273	8623.31
821.459	7888.09
821.646	7765.21
821.832	7638.24
822.018	8099.03
822.204	8109.27
822.39	7916.76
822.576	7611.62
822.762	8121.56
822.948	7967.96
823.134	7949.53
823.32	7884
823.507	7718.11
823.693	7888.09
823.879	8121.56
824.065	7654.62
824.25	8191.19
824.436	7789.79
824.622	7765.21
824.808	7568.61
824.994	7843.04
825.18	7869.66
825.366	7470.31
825.552	7621.86
825.738	7906.52
825.923	8105.18
826.109	7924.96
826.295	7761.12
826.481	7865.57
826.667	7836.89
826.852	7716.06
827.038	7679.2
827.224	8142.04
827.409	8293.59
827.595	7511.27
827.781	7763.17
827.966	8043.74
828.152	8037.59
828.338	7724.26
828.523	7419.11
828.709	7912.67
828.894	8121.56
829.08	7822.56
829.266	7498.98
829.451	7777.5
829.637	8031.45
829.822	7843.04
830.008	7539.94
830.193	8189.14
830.378	8064.22
830.564	7650.53
830.749	7544.03
830.935	8015.07
831.12	8006.88
831.305	7324.9
831.491	7562.47
831.676	7630.05
831.861	7924.96
832.047	7666.91
832.232	7408.87
832.417	8019.16
832.602	7802.08
832.788	7443.68
832.973	7509.22
833.158	7658.72
833.343	7746.78
833.528	7781.6
833.714	7597.28
833.899	8039.64
834.084	8090.84
834.269	7711.97
834.454	7492.83
834.639	7965.92
834.824	7759.07
835.009	7531.75
835.194	7558.37
835.379	8043.74
835.564	8115.42
835.749	7589.09
835.934	7228.65
836.119	8008.92
836.304	7828.7
836.489	7539.94
836.674	7802.08
836.859	7433.44
837.044	8078.55
837.228	7361.76
837.413	7376.1
837.598	7775.45
837.783	7988.44
837.968	7441.64
838.152	7308.52
838.337	7392.48
838.522	7922.91
838.707	7722.21
838.891	7523.55
839.076	7847.13
839.261	7740.64
839.445	7458.02
839.63	7292.13
839.815	8096.99
839.999	7462.12
840.184	7363.81
840.368	7474.4
840.553	7720.16
840.737	7732.45
840.922	7191.78
841.106	7060.71
841.291	7159.02
841.475	7558.37
841.66	7261.41
841.844	7179.5
842.029	8223.96
842.213	7458.02
842.397	7275.75
842.582	7044.33
842.766	7845.09
842.951	7869.66
843.135	7445.73
843.319	7343.33
843.504	7449.83
843.688	7738.59
843.872	7111.91
844.056	7324.9
844.241	7453.92
844.425	7404.77
844.609	7412.96
844.793	7204.07
844.977	7683.3
845.161	7445.73
845.346	7097.58
845.53	7279.85
845.714	7367.91
845.898	7728.35
846.082	7134.44
846.266	7269.61
846.45	7392.48
846.634	7507.17
846.818	7083.24
847.002	7322.85
847.186	7482.6
847.37	7099.62
847.554	7109.86
847.738	7146.73
847.922	7486.69
848.106	7357.67
848.29	6915.31
848.473	7019.75
848.657	7353.57
848.841	7318.76
849.025	7048.43
849.209	6841.58
849.392	7482.6
849.576	7113.96
849.76	6831.34
849.944	7050.47
850.127	7613.67
850.311	7064.81
850.495	6958.32
850.678	6714.61
850.862	7681.25
851.046	7550.18
851.229	7128.3
851.413	6763.76
851.596	7277.8
851.78	7255.27
851.964	6986.99
852.147	6984.94
852.331	7906.52
852.514	7415.01
852.698	7070.95
852.881	6778.09
853.065	7382.24
853.248	7148.78
853.431	6896.88
853.615	7013.61
853.798	7679.2
853.982	7285.99
854.165	7073
854.348	6835.44
854.532	6870.25
854.715	6933.74
854.898	7040.23
855.081	6755.57
855.265	7554.27
855.448	7527.65
855.631	6892.78
855.814	6909.16
855.997	7486.69
856.181	7156.97
856.364	6814.96
856.547	6702.32
856.73	6968.55
856.913	7111.91
857.096	6655.22
857.279	6837.48
857.462	6993.13
857.645	7451.88
857.828	7048.43
858.011	7007.47
858.194	7009.51
858.377	7099.62
858.56	6776.05
858.743	6878.44
858.926	6771.95
859.109	7169.26
859.292	6739.18
859.475	6556.91
859.658	7333.09
859.841	7023.85
860.023	6626.54
860.206	6739.18
860.389	7113.96
860.572	7273.7
860.755	6665.46
860.937	6692.08
861.12	6954.22
861.303	6935.79
861.486	6776.05
861.668	6630.64
861.851	7062.76
862.034	7034.09
862.216	7019.75
862.399	6438.13
862.581	7005.42
862.764	7281.89
862.947	6624.5
863.129	6556.91
863.312	6661.36
863.494	7052.52
863.677	6841.58
863.859	6358.26
864.042	6864.11
864.224	7046.38
864.406	6638.83
864.589	6337.78
864.771	6937.84
864.954	6419.7
865.136	6286.58
865.318	6335.73
865.501	6931.69
865.683	6270.2
865.865	6468.85
866.048	6411.51
866.23	6685.94
866.412	6597.87
866.594	6397.17
866.777	6612.21
866.959	6776.05
867.141	6544.63
867.323	6647.02
867.505	6558.96
867.687	6765.81
867.869	6804.72
868.052	6331.64
868.234	6221.05
868.416	6669.55
868.598	6941.93
868.78	6446.32
868.962	6538.48
869.144	6935.79
869.326	6786.29
869.508	6323.44
869.69	6391.03
869.872	6673.65
870.054	7249.13
870.236	6247.67
870.417	6495.47
870.599	6589.68
870.781	7089.39
870.963	6427.89
871.145	6180.09
871.327	6409.46
871.508	6771.95
871.69	6307.06
871.872	6487.28
872.054	6665.46
872.235	6874.35
872.417	6440.18
872.599	6333.68
872.78	6999.27
872.962	6470.9
873.144	6219
873.325	6468.85
873.507	6962.41
873.689	6679.79
873.87	6257.91
874.052	6546.67
874.233	6698.22
874.415	6931.69
874.596	6536.43
874.778	6339.83
874.959	6634.74
875.141	6882.54
875.322	6272.25
875.503	6270.2
875.685	6804.72
875.866	6278.39
876.048	6241.53
876.229	6294.77
876.41	6716.65
876.592	6864.11
876.773	6466.8
876.954	6262.01
877.136	7130.34
877.317	6556.91
877.498	6204.66
877.679	6509.81
877.86	6776.05
878.042	6753.52
878.223	6458.61
878.404	6788.33
878.585	6921.45
878.766	7222.5
878.947	6817.01
879.128	6550.77
879.309	6907.12
879.49	7130.34
879.672	6601.97
879.853	6589.68
880.034	6655.22
880.215	6864.11
880.396	6640.88
880.576	6583.54
880.757	6638.83
880.938	7310.57
881.119	6448.37
881.3	6466.8
881.481	6847.72
881.662	7673.06
881.843	6593.78
882.023	6573.3
882.204	7003.37
882.385	6890.73
882.566	6614.26
882.747	6759.66
882.927	6935.79
883.108	6884.59
883.289	6761.71
883.469	7003.37
883.65	7083.24
883.831	7023.85
884.011	6841.58
884.192	6864.11
884.373	7251.17
884.553	7132.39
884.734	6933.74
884.914	7070.95
885.095	7668.96
885.275	7429.35
885.456	7099.62
885.636	6575.34
885.817	7175.4
885.997	7177.45
886.178	6800.62
886.358	6911.21
886.538	7206.12
886.719	8344.79
886.899	6835.44
887.08	7017.71
887.26	7494.88
887.44	6786.29
887.621	7003.37
887.801	7150.82
887.981	7843.04
888.161	7398.63
888.342	6999.27
888.522	7095.53
888.702	7533.79
888.882	7515.36
889.062	7165.16
889.242	6716.65
889.423	7851.23
889.603	7582.95
889.783	7120.1
889.963	7171.3
890.143	7482.6
890.323	7564.51
890.503	7034.09
890.683	7236.84
890.863	7365.86
891.043	7392.48
891.223	7222.5
891.403	7359.72
891.583	7335.14
891.763	7249.13
891.943	7214.31
892.122	7202.02
892.302	7498.98
892.482	7335.14
892.662	7183.59
892.842	7212.26
893.022	7671.01
893.201	7159.02
893.381	7253.22
893.561	7171.3
893.741	7668.96
893.92	7658.72
894.1	7214.31
894.28	7357.67
894.459	7615.71
894.639	7486.69
894.819	7097.58
894.998	7255.27
895.178	7517.41
895.357	7531.75
895.537	7171.3
895.716	7187.69
895.896	7486.69
896.075	7763.17
896.255	7226.6
896.434	6995.18
896.614	7673.06
896.793	7867.61
896.973	7455.97
897.152	7265.51
897.331	7541.99
897.511	7638.24
897.69	6911.21
897.87	7312.61
898.049	7468.26
898.228	7326.95
898.407	7165.16
898.587	7271.65
898.766	7257.32
898.945	7427.3
899.124	7322.85
899.304	7341.29
899.483	7408.87
899.662	7965.92
899.841	7353.57
900.02	7224.55
900.199	7693.54
900.378	7496.93
900.557	7337.19
900.737	6950.12
900.916	7630.05
901.095	7589.09
901.274	7449.83
901.453	7027.95
901.632	7118.06
901.811	7226.6
901.989	7019.75
902.168	7109.86
902.347	7546.08
902.526	7253.22
902.705	7265.51
902.884	7273.7
903.063	7675.1
903.242	7556.32
903.42	6937.84
903.599	7240.93
903.778	7503.07
903.957	7640.29
904.135	7290.09
904.314	7052.52
904.493	7400.68
904.672	7419.11
904.85	7040.23
905.029	6972.65
905.207	7240.93
905.386	7935.2
905.565	6849.77
905.743	6892.78
905.922	7048.43
906.1	7335.14
906.279	6825.2
906.457	6878.44
906.636	7113.96
906.814	7060.71
906.993	6837.48
907.171	6786.29
907.35	7374.05
907.528	7359.72
907.707	7040.23
907.885	6819.05
908.063	7384.29
908.242	6886.64
908.42	6716.65
908.598	6501.62
908.777	7177.45
908.955	6847.72
909.133	6925.55
909.311	6667.5
909.49	6935.79
909.668	6847.72
909.846	6649.07
910.024	6728.94
910.202	6972.65
910.38	7097.58
910.559	6356.21
910.737	6651.12
910.915	6948.08
911.093	6915.31
911.271	6761.71
911.449	6804.72
911.627	7015.66
911.805	7447.78
911.983	6837.48
912.161	6614.26
912.339	7058.67
912.517	7105.77
912.695	6712.56
912.872	6655.22
913.05	6546.67
913.228	6792.43
913.406	6386.93
913.584	6388.98
913.762	6855.92
913.939	6505.71
914.117	6345.97
914.295	6288.63
914.473	6843.63
914.65	6581.49
914.828	6219
915.006	6188.28
915.184	6343.92
915.361	6597.87
915.539	6470.9
915.716	6380.79
915.894	6636.78
916.072	6796.53
916.249	6427.89
916.427	6376.69
916.604	6290.68
916.782	6753.52
916.959	6073.59
917.137	6180.09
917.314	6520.05
917.492	6499.57
917.669	6337.78
917.847	6198.52
918.024	6440.18
918.201	6276.34
918.379	6280.44
918.556	6155.51
918.733	6501.62
918.911	6259.96
919.088	6305.01
919.265	6182.13
919.442	6325.49
919.62	6130.94
919.797	5874.94
919.974	5758.21
920.151	6216.95
920.328	6132.98
920.506	5774.59
920.683	6196.47
920.86	5952.76
921.037	6073.59
921.214	5942.52
921.391	5782.78
921.568	6276.34
921.745	5844.22
921.922	5788.92
922.099	5778.69
922.276	6249.72
922.453	6020.35
922.63	5696.77
922.807	6010.11
922.984	5934.33
923.161	5788.92
923.338	5743.87
923.514	5682.43
923.691	5971.19
923.868	5932.28
924.045	5502.21
924.222	5526.78
924.399	5844.22
924.575	6036.73
924.752	5610.75
924.929	5606.66
925.105	5752.06
925.282	5463.3
925.459	5377.28
925.635	5522.69
925.812	5850.36
925.989	5448.96
926.165	5602.56
926.342	5221.64
926.518	5285.12
926.695	5643.52
926.871	5371.14
927.048	5270.79
927.224	5803.26
927.401	5393.67
927.577	5383.43
927.754	5115.14
927.93	5790.97
928.107	5754.11
928.283	5225.73
928.459	5315.84
928.636	5616.9
928.812	5350.66
928.988	5123.34
929.165	5037.32
929.341	5207.3
929.517	5315.84
929.693	5383.43
929.87	4783.37
930.046	5354.76
930.222	5156.1
930.398	4889.87
930.574	5041.42
930.751	5174.53
930.927	5008.65
931.103	4934.92
931.279	4996.36
931.455	4861.2
931.631	5219.59
931.807	4631.82
931.983	4719.89
932.159	4625.68
932.335	5063.94
932.511	4680.97
932.687	4635.92
932.863	5010.7
933.039	4920.59
933.215	4517.14
933.391	4298
933.566	4713.74
933.742	4805.9
933.918	4386.07
934.094	4193.56
934.27	4672.78
934.445	4779.28
934.621	4363.54
934.797	4265.24
934.973	4758.8
935.148	4486.42
935.324	3919.13
935.5	3915.03
935.675	4513.04
935.851	4377.87
936.027	3882.27
936.202	4082.97
936.378	4322.58
936.553	4054.3
936.729	4316.44
936.904	3697.95
937.08	3558.69
937.255	3743
937.431	3497.25
937.606	3460.38
937.782	3579.17
937.957	3661.09
938.133	3448.1
938.308	3251.49
938.483	3388.71
938.659	3263.78
938.834	3245.35
939.009	3042.6
939.185	3341.6
939.36	3063.08
939.535	2653.48
939.71	3104.04
939.886	3329.31
940.061	3194.15
940.236	3122.47
940.411	2776.36
940.586	3159.33
940.761	3263.78
940.937	2813.23
941.112	2866.47
941.287	2925.86
941.462	2897.19
941.637	2522.41
941.812	2706.73
941.987	2895.15
942.162	2919.72
942.337	2665.77
942.512	2510.13
942.687	2938.15
942.862	2977.06
943.037	2325.81
943.212	2229.56
943.386	2489.65
943.561	2825.51
943.736	2731.31
943.911	2784.55
944.086	2645.29
944.26	2624.81
944.435	2420.02
944.61	2510.13
944.785	2743.6
944.959	3130.66
945.134	2364.72
945.309	2256.18
945.483	2387.25
945.658	2860.33
945.833	2192.69
946.007	2116.92
946.182	3038.5
946.357	2250.03
946.531	2352.43
946.706	2381.1
946.88	2207.03
947.055	2641.2
947.229	2356.53
947.404	2213.17
947.578	2792.75
947.752	2477.36
947.927	2231.6
948.101	2084.15
948.276	2565.42
948.45	2678.06
948.624	2512.17
948.799	2213.17
948.973	2676.01
949.147	2370.87
949.321	2352.43
949.496	2372.91
949.67	2829.61
949.844	2497.84
950.018	2270.51
950.193	2297.14
950.367	3134.76
950.541	2649.39
950.715	2501.94
950.889	2405.68
951.063	2477.36
951.237	2669.87
951.411	2092.34
951.585	2137.4
951.759	2739.5
951.933	2499.89
952.107	2284.85
952.281	2477.36
952.455	2901.29
952.629	2882.86
952.803	2286.9
952.977	2235.7
953.151	2733.36
953.325	2579.76
953.499	2495.79
953.672	2186.55
953.846	2293.04
954.02	2508.08
954.194	2295.09
954.368	2198.84
954.541	2759.98
954.715	2594.09
954.889	2354.48
955.062	2170.16
955.236	2422.06
955.41	2360.63
955.583	2491.7
955.757	2204.98
955.93	2465.07
956.104	2321.71
956.278	2377.01
956.451	2260.27
956.625	2665.77
956.798	2975.02
956.972	2637.1
957.145	2268.47
957.319	2542.89
957.492	2430.26
957.665	2401.58
957.839	2303.28
958.012	2637.1
958.185	2370.87
958.359	2336.05
958.532	2403.63
958.705	2743.6
958.879	2546.99
959.052	2346.29
959.225	2084.15
959.398	2499.89
959.572	2493.74
959.745	2141.49
959.918	2354.48
960.091	2309.43
960.264	2559.28
960.438	2233.65
960.611	2200.88
960.784	2714.92
960.957	2307.38
961.13	2604.33
961.303	2164.02
961.476	2346.29
961.649	2645.29
961.822	2055.48
961.995	2219.32
962.168	2723.12
962.341	2499.89
962.514	2108.73
962.686	2182.45
962.859	2497.84
963.032	2608.43
963.205	2110.77
963.378	2022.71
963.551	2649.39
963.723	2436.4
963.896	2305.33
964.069	2323.76
964.242	2501.94
964.414	2811.18
964.587	2200.88
964.76	2303.28
964.932	2428.21
965.105	2356.53
965.278	2231.6
965.45	2166.07
965.623	2358.58
965.795	2567.47
965.968	2112.82
966.14	2176.31
966.313	2346.29
966.485	2348.34
966.658	2135.35
966.83	2061.62
967.003	2714.92
967.175	2567.47
967.348	2233.65
967.52	2110.77
967.692	2733.36
967.865	2540.85
968.037	2186.55
968.209	2338.1
968.382	2280.75
968.554	2501.94
968.726	2137.4
968.898	2000.18
969.071	2426.16
969.243	2489.65
969.415	2043.19
969.587	2147.64
969.759	2833.71
969.932	2387.25
970.104	2223.41
970.276	1850.68
970.448	2282.8
970.62	2223.41
970.792	2239.8
970.964	2235.7
971.136	2780.46
971.308	2417.97
971.48	2043.19
971.652	2121.01
971.824	2577.71
971.996	2166.07
972.168	2026.81
972.339	2116.92
972.511	2409.78
972.683	2168.12
972.855	2364.72
973.027	1965.37
973.199	2325.81
973.37	2381.1
973.542	2217.27
973.714	2129.2
973.886	2211.12
974.057	2463.02
974.229	2012.47
974.401	1981.75
974.572	1973.56
974.744	1793.34
974.915	1924.41
975.087	1848.63
975.259	2450.74
975.43	2030.9
975.602	1948.98
975.773	1932.6
975.945	1953.08
976.116	2463.02
976.288	1994.04
976.459	2155.83
976.63	2063.67
976.802	2211.12
976.973	1932.6
977.145	2270.51
977.316	2583.85
977.487	2465.07
977.659	2069.81
977.83	1817.91
978.001	2624.81
978.172	2131.25
978.344	1856.82
978.515	1912.12
978.686	2051.38
978.857	2422.06
979.028	1961.27
979.2	1793.34
979.371	2284.85
979.542	2139.44
979.713	2100.53
979.884	1350.98
980.055	1920.31
980.226	1961.27
980.397	1836.35
980.568	1856.82
980.739	2397.49
980.91	1928.5
981.081	1969.46
981.252	1731.9
981.423	2174.26
981.594	2356.53
981.765	1713.47
981.936	1936.7
982.106	2026.81
982.277	2280.75
982.448	1916.22
982.619	1916.22
982.79	2022.71
982.96	2223.41
983.131	1920.31
983.302	1629.5
983.472	1932.6
983.643	2073.91
983.814	1838.39
983.984	1701.18
984.155	1846.59
984.326	2223.41
984.496	1856.82
984.667	1744.19
984.837	1908.02
985.008	2131.25
985.178	1905.98
985.349	1705.28
985.519	1940.79
985.69	1713.47
985.86	1750.33
986.031	1652.03
986.201	2045.24
986.371	2057.53
986.542	1645.88
986.712	1494.33
986.882	2020.66
987.053	2190.64
987.223	1662.27
987.393	1793.34
987.563	1826.11
987.734	2037.05
987.904	2071.86
988.074	1727.8
988.244	2026.81
988.414	1709.37
988.585	1647.93
988.755	1785.15
988.925	1922.36
989.095	2305.33
989.265	1719.61
989.435	1682.75
989.605	1957.18
989.775	1977.66
989.945	1826.11
990.115	1420.61
990.285	1875.26
990.455	1973.56
990.625	1717.56
990.795	1592.64
990.965	2078.01
991.134	1617.21
991.304	1559.87
991.474	1416.51
991.644	1807.67
991.814	2286.9
991.984	1373.5
992.153	1561.92
992.323	1670.46
992.493	1889.59
992.662	1207.62
992.832	1701.18
993.002	1846.59
993.171	1840.44
993.341	1400.13
993.511	1549.63
993.68	1578.3
993.85	2002.23
994.019	1267.01
994.189	1406.27
994.358	1824.06
994.528	1674.56
994.697	1101.12
994.867	1447.23
995.036	1991.99
995.206	1701.18
995.375	1342.78
995.544	1525.05
995.714	1875.26
995.883	1633.6
996.052	1690.94
996.222	1228.1
996.391	2256.18
996.56	1762.62
996.73	1342.78
996.899	1269.06
997.068	2014.52
997.237	1666.36
997.406	1361.22
997.576	1238.34
997.745	1770.81
997.914	1719.61
998.083	1248.58
998.252	1375.55
998.421	1649.98
998.59	1516.86
998.759	1283.39
998.928	1142.08
999.097	1932.6
999.266	1735.99
999.435	1406.27
999.604	1166.66
999.773	2102.58
999.942	1756.47
1000.111	1121.6
1000.28	1226.05
1000.448	1379.65
1000.617	1383.74
1000.786	1461.57
1000.955	1152.32
1001.124	1568.06
1001.292	2086.2
1001.461	1228.1
1001.63	1232.19
1001.798	1967.42
1001.967	1768.76
1002.136	1170.76
1002.304	1080.64
1002.473	1735.99
1002.642	1549.63
1002.81	1166.66
1002.979	1109.32
1003.147	1719.61
1003.316	1983.8
1003.484	1166.66
1003.653	1142.08
1003.821	1735.99
1003.99	1398.08
1004.158	1185.09
1004.327	1236.29
1004.495	1590.59
1004.663	1324.35
1004.832	1291.59
1005	1107.27
1005.168	1649.98
1005.337	1588.54
1005.505	1049.93
1005.673	1367.36
1005.842	1561.92
1006.01	1553.73
1006.178	1002.82
1006.346	1062.21
1006.514	1609.02
1006.683	1727.8
1006.851	1072.45
1007.019	961.86
1007.187	1168.71
1007.355	982.34
1007.523	769.35
1007.691	886.09
1007.859	1166.66
1008.027	1776.95
1008.195	1080.64
1008.363	910.66
1008.531	1572.16
1008.699	1217.86
1008.867	888.14
1009.035	965.96
1009.203	1676.6
1009.37	1385.79
1009.538	1060.17
1009.706	1416.51
1009.874	1408.32
1010.042	1393.98
1010.209	937.29
1010.377	1004.87
1010.545	1393.98
1010.713	1271.11
1010.88	906.57
1011.048	988.49
1011.216	1256.77
1011.383	1639.74
1011.551	953.67
1011.718	943.43
1011.886	1477.95
1012.054	1224
1012.221	898.38
1012.389	1045.83
1012.556	1262.91
1012.724	1715.52
1012.891	1133.89
1013.058	730.44
1013.226	1408.32
1013.393	1359.17
1013.561	740.68
1013.728	767.31
1013.895	1510.72
1014.063	1363.26
1014.23	705.87
1014.397	859.46
1014.565	1369.41
1014.732	1191.24
1014.899	742.73
1015.066	773.45
1015.233	1264.96
1015.401	1428.8
1015.568	892.23
1015.735	843.08
1015.902	1318.21
1016.069	1322.31
1016.236	775.5
1016.403	765.26
1016.57	1039.69
1016.737	1432.9
1016.904	922.95
1017.071	767.31
1017.238	1013.06
1017.405	1271.11
1017.572	871.75
1017.739	1144.13
1017.906	1332.54
1018.073	1402.18
1018.24	724.3
1018.407	789.83
1018.573	1477.95
1018.74	990.53
1018.907	912.71
1019.074	552.27
1019.241	1412.42
1019.407	1105.22
1019.574	654.67
1019.741	580.94
1019.907	1340.74
1020.074	1232.19
1020.241	619.85
1020.407	736.59
1020.574	1201.47
1020.74	1267.01
1020.907	705.87
1021.073	669
1021.24	1568.06
1021.406	1340.74
1021.573	628.04
1021.739	662.86
1021.906	1314.11
1022.072	974.15
1022.239	677.19
1022.405	716.11
1022.571	1025.35
1022.738	843.08
1022.904	693.58
1023.07	777.55
1023.237	988.49
1023.403	1326.4
1023.569	666.96
1023.735	589.13
1023.902	1097.03
1024.068	1111.36
1024.234	566.6
1024.4	611.66
1024.566	1107.27
1024.732	1121.6
1024.898	658.76
1025.065	445.77
1025.231	1252.67
1025.397	904.52
1025.563	679.24
1025.729	513.36
1025.895	533.84
1026.061	843.08
1026.227	443.73
1026.392	626
1026.558	1246.53
1026.724	1025.35
1026.89	613.71
1027.056	744.78
1027.222	1027.4
1027.388	787.79
1027.553	568.65
1027.719	466.25
1027.885	1346.88
1028.051	1006.92
1028.216	384.34
1028.382	603.47
1028.548	1013.06
1028.713	767.31
1028.879	439.63
1029.045	744.78
1029.21	1244.48
1029.376	1248.58
1029.541	705.87
1029.707	623.95
1029.873	1109.32
1030.038	1092.93
1030.204	560.46
1030.369	619.85
1030.534	1103.17
1030.7	906.57
1030.865	525.65
1031.031	451.92
1031.196	1011.01
1031.361	912.71
1031.527	535.89
1031.692	472.4
1031.857	462.16
1032.023	1002.82
1032.188	462.16
1032.353	572.75
1032.518	1156.42
1032.684	879.94
1032.849	367.95
1033.014	496.97
1033.179	1008.97
1033.344	949.57
1033.509	486.73
1033.674	456.01
1033.839	970.05
1034.004	1072.45
1034.17	345.42
1034.335	335.18
1034.5	691.53
1034.664	638.28
1034.829	458.06
1034.994	523.6
1035.159	898.38
1035.324	836.94
1035.489	427.34
1035.654	447.82
1035.819	1080.64
1035.984	836.94
1036.148	513.36
1036.313	458.06
1036.478	1072.45
1036.643	791.88
1036.807	386.38
1036.972	396.62
1037.137	1111.36
1037.301	767.31
1037.466	187.73
1037.631	460.11
1037.795	1105.22
1037.96	683.34
1038.124	445.77
1038.289	333.14
1038.454	935.24
1038.618	824.65
1038.783	402.77
1038.947	527.69
1039.111	734.54
1039.276	691.53
1039.44	310.61
1039.605	910.66
1039.769	613.71
1039.933	761.16
1040.098	378.19
1040.262	482.64
1040.426	992.58
1040.591	945.48
1040.755	245.07
1040.919	290.13
1041.083	871.75
1041.248	699.72
1041.412	234.83
1041.576	236.88
1041.74	630.09
1041.904	859.46
1042.068	306.51
1042.232	386.38
1042.397	949.57
1042.561	691.53
1042.725	120.15
1042.889	507.21
1043.053	804.17
1043.217	820.55
1043.381	408.91
1043.544	71
1043.708	961.86
1043.872	484.69
1044.036	111.96
1044.2	169.3
1044.364	970.05
1044.528	1025.35
1044.691	5045.51
1044.855	154.96
1045.019	881.99
1045.183	814.41
1045.346	376.14
1045.51	216.4
1045.674	798.03
1045.837	820.55
1046.001	261.46
1046.165	310.61
1046.328	1142.08
1046.492	759.11
1046.655	470.35
1046.819	277.84
1046.983	499.02
1047.146	734.54
1047.31	290.13
1047.473	52.56
1047.636	595.28
1047.8	517.45
1047.963	279.89
1048.127	210.26
1048.29	382.29
