Data from Ink_Intensity_USB4F045381__28__00028.txt Node

Date: Mon Jul 17 09:46:25 EDT 2023
User: mmckonesweet
Spectrometer: USB4F04538
Trigger mode: 4
Integration Time (sec): 9.000000E-1
Scans to average: 1
Electric dark correction enabled: true
Nonlinearity correction enabled: false
Boxcar width: 0
XAxis mode: Wavelengths
Number of Pixels in Spectrum: 3648
>>>>>Begin Spectral Data<<<<<
345.52	-947.36
345.736	-947.36
345.952	-947.36
346.168	-879.77
346.384	-996.51
346.6	-113.83
346.816	-222.38
347.032	-205.99
347.248	207.7
347.464	-253.09
347.68	-44.2
347.896	148.31
348.112	410.45
348.328	-31.91
348.544	-146.6
348.76	17.24
348.975	234.32
349.191	-224.42
349.407	-109.74
349.623	-60.59
349.839	-126.12
350.055	-48.3
350.27	74.58
350.486	217.94
350.702	293.71
350.918	291.66
351.133	-177.32
351.349	109.4
351.565	324.43
351.781	-173.22
351.996	-117.93
352.212	295.76
352.428	-130.22
352.644	-205.99
352.859	-216.23
353.075	318.29
353.291	-19.63
353.506	-62.63
353.722	-232.62
353.938	-99.5
354.153	424.78
354.369	115.54
354.584	-201.9
354.8	252.75
355.016	-283.81
355.231	-279.72
355.447	-58.54
355.662	76.63
355.878	906.06
356.093	-400.55
356.309	-15.53
356.524	-246.95
356.74	205.65
356.955	-150.7
357.171	7
357.386	154.45
357.602	-183.46
357.817	-93.35
358.033	-136.36
358.248	332.62
358.464	201.55
358.679	-74.92
358.895	-332.97
359.11	-19.63
359.325	342.86
359.541	246.61
359.756	-58.54
359.972	-257.19
360.187	103.25
360.402	-158.89
360.618	-148.65
360.833	871.24
361.048	78.68
361.264	-156.84
361.479	-54.44
361.694	33.62
361.909	168.79
362.125	-238.76
362.34	-132.26
362.555	238.42
362.77	80.72
362.986	-214.18
363.201	-144.55
363.416	174.93
363.631	2.9
363.847	-101.55
364.062	-175.27
364.277	154.45
364.492	54.1
364.707	-126.12
364.922	-337.06
365.138	236.37
365.353	332.62
365.568	-203.94
365.783	-36.01
365.998	127.83
366.213	531.28
366.428	-124.07
366.643	72.53
366.858	283.47
367.073	222.03
367.288	-146.6
367.503	-205.99
367.718	109.4
367.933	260.95
368.148	-353.45
368.363	-72.87
368.578	-72.87
368.793	478.03
369.008	-119.98
369.223	-236.71
369.438	187.22
369.653	447.31
369.868	-271.53
370.083	-228.52
370.298	121.68
370.513	418.64
370.728	11.09
370.943	-58.54
371.157	-218.28
371.372	473.93
371.587	-285.86
371.802	-261.29
372.017	66.39
372.232	281.43
372.446	-42.15
372.661	-179.37
372.876	260.95
373.091	201.55
373.306	-81.07
373.52	-193.7
373.735	-197.8
373.95	353.1
374.165	-85.16
374.379	-130.22
374.594	-132.26
374.809	0.85
375.023	-33.96
375.238	-191.66
375.453	252.75
375.667	-249
375.882	-117.93
376.097	-158.89
376.311	-1.19
376.526	-23.72
376.741	-175.27
376.955	201.55
377.17	514.89
377.384	510.8
377.599	-64.68
377.813	-222.38
378.028	602.96
378.242	205.65
378.457	-27.82
378.672	-355.49
378.886	105.3
379.101	-72.87
379.315	-265.38
379.53	-150.7
379.744	187.22
379.958	136.02
380.173	-64.68
380.387	-156.84
380.602	170.83
380.816	-83.11
381.031	-165.03
381.245	-83.11
381.459	172.88
381.674	2450.22
381.888	-195.75
382.103	43.86
382.317	-212.14
382.531	465.74
382.746	-25.77
382.96	-89.26
383.174	-64.68
383.388	324.43
383.603	29.52
383.817	-249
384.031	103.25
384.246	445.26
384.46	19.29
384.674	314.19
384.888	39.76
385.103	68.44
385.317	-269.48
385.531	-31.91
385.745	375.63
385.959	303.95
386.174	-126.12
386.388	-240.81
386.602	-46.25
386.816	-103.59
387.03	-128.17
387.244	-81.07
387.458	31.57
387.672	416.59
387.887	-261.29
388.101	-316.58
388.315	394.06
388.529	144.21
388.743	-122.02
388.957	-232.62
389.171	279.38
389.385	-117.93
389.599	-87.21
389.813	74.58
390.027	142.16
390.241	643.92
390.455	-68.78
390.669	-181.42
390.883	-148.65
391.097	312.14
391.311	11.09
391.525	-244.9
391.738	101.2
391.952	123.73
392.166	-15.53
392.38	-246.95
392.594	246.61
392.808	269.14
393.022	-42.15
393.236	-134.31
393.449	246.61
393.663	136.02
393.877	-279.72
394.091	-93.35
394.305	-162.98
394.518	-165.03
394.732	-246.95
394.946	-148.65
395.16	404.3
395.373	41.81
395.587	-193.7
395.801	-197.8
396.015	275.28
396.228	193.36
396.442	-249
396.656	-318.63
396.869	385.87
397.083	392.02
397.297	-31.91
397.51	-115.88
397.724	420.69
397.938	168.79
398.151	-203.94
398.365	-224.42
398.578	207.7
398.792	353.1
399.005	-33.96
399.219	-83.11
399.433	140.12
399.646	199.51
399.86	-15.53
400.073	13.14
400.287	185.17
400.5	-91.31
400.714	39.76
400.927	-113.83
401.141	146.26
401.354	1026.89
401.567	289.62
401.781	-160.94
401.994	334.67
402.208	557.9
402.421	-150.7
402.635	-72.87
402.848	-15.53
403.061	299.86
403.275	-38.06
403.488	-109.74
403.701	482.13
403.915	287.57
404.128	45.91
404.341	-126.12
404.555	168.79
404.768	-38.06
404.981	-3.24
405.195	-89.26
405.408	551.76
405.621	197.46
405.834	2.9
406.048	-79.02
406.261	392.02
406.474	463.69
406.687	-154.79
406.9	76.63
407.114	0.85
407.327	78.68
407.54	-228.52
407.753	-257.19
407.966	-95.4
408.179	324.43
408.392	-185.51
408.605	-212.14
408.819	183.12
409.032	101.2
409.245	-210.09
409.458	62.29
409.671	183.12
409.884	297.81
410.097	-183.46
410.31	27.48
410.523	133.97
410.736	-36.01
410.949	-105.64
411.162	-68.78
411.375	432.97
411.588	246.61
411.801	90.96
412.014	-154.79
412.227	50
412.44	-11.43
412.653	-195.75
412.865	-56.49
413.078	275.28
413.291	119.64
413.504	-138.41
413.717	-83.11
413.93	201.55
414.143	-117.93
414.356	-81.07
414.568	-347.3
414.781	170.83
414.994	209.75
415.207	-107.69
415.42	-111.78
415.632	213.84
415.845	373.58
416.058	-230.57
416.271	-226.47
416.483	35.67
416.696	467.79
416.909	-146.6
417.121	-171.18
417.334	103.25
417.547	547.66
417.759	-140.46
417.972	-183.46
418.185	-93.35
418.397	234.32
418.61	-208.04
418.823	-91.31
419.035	408.4
419.248	7
419.46	-91.31
419.673	-46.25
419.885	181.07
420.098	-21.67
420.311	-136.36
420.523	-302.25
420.736	158.55
420.948	70.48
421.161	-105.64
421.373	-310.44
421.586	123.73
421.798	-85.16
422.01	-244.9
422.223	-42.15
422.435	-99.5
422.648	215.89
422.86	-156.84
423.073	-152.74
423.285	357.2
423.497	-255.14
423.71	-156.84
423.922	-158.89
424.134	148.31
424.347	402.26
424.559	58.2
424.771	125.78
424.984	35.67
425.196	109.4
425.408	-285.86
425.621	-156.84
425.833	265.04
426.045	324.43
426.257	-246.95
426.47	-199.85
426.682	152.4
426.894	285.52
427.106	-154.79
427.318	-79.02
427.531	-54.44
427.743	176.98
427.955	-70.83
428.167	279.38
428.379	170.83
428.591	-23.72
428.804	13.14
429.016	-236.71
429.228	15.19
429.44	129.88
429.652	101.2
429.864	-230.57
430.076	-23.72
430.288	17.24
430.5	-93.35
430.712	-58.54
430.924	355.15
431.136	52.05
431.348	-341.16
431.56	-87.21
431.772	127.83
431.984	-31.91
432.196	-132.26
432.408	-85.16
432.62	13.14
432.832	199.51
433.044	144.21
433.256	29.52
433.468	170.83
433.679	-242.85
433.891	-199.85
434.103	90.96
434.315	371.54
434.527	146.26
434.739	-117.93
434.95	-105.64
435.162	351.06
435.374	-101.55
435.586	-85.16
435.798	-146.6
436.009	-191.66
436.221	9.05
436.433	-152.74
436.645	-173.22
436.856	-44.2
437.068	275.28
437.28	-158.89
437.491	90.96
437.703	185.17
437.915	172.88
438.126	-50.35
438.338	97.11
438.55	21.33
438.761	195.41
438.973	-150.7
439.184	-48.3
439.396	52.05
439.608	244.56
439.819	-199.85
440.031	35.67
440.242	248.66
440.454	185.17
440.665	-109.74
440.877	-48.3
441.088	183.12
441.3	-7.34
441.511	-322.73
441.723	-148.65
441.934	211.79
442.146	131.92
442.357	-17.58
442.569	107.35
442.78	-27.82
442.991	471.89
443.203	224.08
443.414	-218.28
443.626	355.15
443.837	-138.41
444.048	-105.64
444.26	-255.14
444.471	111.44
444.682	265.04
444.894	-197.8
445.105	-263.33
445.316	291.66
445.528	133.97
445.739	-48.3
445.95	-9.39
446.161	146.26
446.373	398.16
446.584	-81.07
446.795	-54.44
447.006	144.21
447.217	430.93
447.429	-302.25
447.64	-122.02
447.851	279.38
448.062	13.14
448.273	-316.58
448.484	-109.74
448.695	191.31
448.907	39.76
449.118	2.9
449.329	70.48
449.54	-76.97
449.751	-134.31
449.962	-70.83
450.173	-87.21
450.384	277.33
450.595	379.73
450.806	-154.79
451.017	-83.11
451.228	435.02
451.439	277.33
451.65	-107.69
451.861	-367.78
452.072	-136.36
452.283	68.44
452.494	35.67
452.705	-115.88
452.915	387.92
453.126	176.98
453.337	-62.63
453.548	-208.04
453.759	287.57
453.97	504.65
454.181	62.29
454.391	-36.01
454.602	111.44
454.813	250.71
455.024	-64.68
455.235	-64.68
455.445	152.4
455.656	172.88
455.867	52.05
456.078	-99.5
456.288	7
456.499	158.55
456.71	-142.5
456.921	150.36
457.131	136.02
457.342	99.16
457.553	-3.24
457.763	-124.07
457.974	191.31
458.184	308.05
458.395	-70.83
458.606	-216.23
458.816	418.64
459.027	553.8
459.237	27.48
459.448	-273.57
459.659	400.21
459.869	586.57
460.08	-289.96
460.29	58.2
460.501	584.52
460.711	-33.96
460.922	-224.42
461.132	-85.16
461.343	742.22
461.553	-162.98
461.764	-87.21
461.974	-56.49
462.184	330.58
462.395	232.27
462.605	7
462.816	-162.98
463.026	64.34
463.236	449.36
463.447	-152.74
463.657	-158.89
463.867	275.28
464.078	109.4
464.288	-40.11
464.498	-89.26
464.709	172.88
464.919	86.87
465.129	-15.53
465.339	-171.18
465.55	267.09
465.76	303.95
465.97	-107.69
466.18	-83.11
466.391	250.71
466.601	236.37
466.811	13.14
467.021	-152.74
467.231	242.51
467.441	414.54
467.651	27.48
467.862	-314.53
468.072	111.44
468.282	449.36
468.492	-68.78
468.702	-3.24
468.912	131.92
469.122	648.01
469.332	142.16
469.542	-132.26
469.752	344.91
469.962	144.21
470.172	-146.6
470.382	-25.77
470.592	326.48
470.802	422.73
471.012	101.2
471.222	-27.82
471.432	365.39
471.642	332.62
471.852	9.05
472.062	-142.5
472.272	74.58
472.482	-107.69
472.691	-52.39
472.901	-160.94
473.111	236.37
473.321	625.48
473.531	-179.37
473.741	54.1
473.95	328.53
474.16	338.77
474.37	68.44
474.58	-38.06
474.79	590.67
474.999	375.63
475.209	-62.63
475.419	-17.58
475.628	113.49
475.838	488.27
476.048	13.14
476.258	-111.78
476.467	430.93
476.677	25.43
476.886	181.07
477.096	50
477.306	78.68
477.515	455.5
477.725	105.3
477.935	179.03
478.144	543.57
478.354	84.82
478.563	35.67
478.773	-93.35
478.982	349.01
479.192	510.8
479.401	78.68
479.611	-72.87
479.82	148.31
480.03	381.78
480.239	-19.63
480.449	-76.97
480.658	617.29
480.868	119.64
481.077	140.12
481.287	99.16
481.496	344.91
481.705	668.49
481.915	248.66
482.124	322.38
482.333	312.14
482.543	562
482.752	140.12
482.961	54.1
483.171	420.69
483.38	226.13
483.589	107.35
483.799	11.09
484.008	193.36
484.217	523.09
484.426	68.44
484.636	-3.24
484.845	258.9
485.054	17.24
485.263	404.3
485.472	111.44
485.682	723.79
485.891	260.95
486.1	-23.72
486.309	93.01
486.518	437.07
486.727	592.72
486.936	72.53
487.146	281.43
487.355	625.48
487.564	97.11
487.773	179.03
487.982	133.97
488.191	279.38
488.4	383.82
488.609	90.96
488.818	179.03
489.027	858.95
489.236	568.14
489.445	142.16
489.654	107.35
489.863	562
490.072	459.6
490.281	502.61
490.49	123.73
490.698	697.16
490.907	781.13
491.116	160.59
491.325	27.48
491.534	715.59
491.743	367.44
491.952	287.57
492.16	236.37
492.369	480.08
492.578	510.8
492.787	262.99
492.996	238.42
493.204	250.71
493.413	799.56
493.622	29.52
493.831	-7.34
494.039	631.63
494.248	234.32
494.457	193.36
494.665	41.81
494.874	643.92
495.083	881.48
495.291	246.61
495.5	207.7
495.709	656.2
495.917	494.41
496.126	287.57
496.335	142.16
496.543	402.26
496.752	508.75
496.96	480.08
497.169	33.62
497.377	377.68
497.586	697.16
497.794	373.58
498.003	-29.87
498.211	441.17
498.42	832.33
498.628	310.1
498.837	150.36
499.045	527.18
499.254	580.43
499.462	203.6
499.671	260.95
499.879	828.23
500.087	695.11
500.296	262.99
500.504	301.9
500.713	521.04
500.921	1012.55
501.129	303.95
501.338	310.1
501.546	547.66
501.754	504.65
501.962	285.52
502.171	252.75
502.379	588.62
502.587	938.82
502.795	342.86
503.004	316.24
503.212	535.37
503.42	758.6
503.628	308.05
503.837	379.73
504.045	625.48
504.253	922.44
504.461	275.28
504.669	158.55
504.877	600.91
505.085	871.24
505.294	166.74
505.502	543.57
505.71	609.1
505.918	711.5
506.126	308.05
506.334	258.9
506.542	504.65
506.75	594.76
506.958	510.8
507.166	359.25
507.374	445.26
507.582	1078.08
507.79	471.89
507.998	289.62
508.206	648.01
508.414	766.79
508.622	379.73
508.83	369.49
509.037	998.21
509.245	533.33
509.453	303.95
509.661	346.96
509.869	770.89
510.077	521.04
510.285	441.17
510.492	70.48
510.7	1313.6
510.908	471.89
511.116	404.3
511.324	324.43
511.531	518.99
511.739	742.22
511.947	580.43
512.155	734.03
512.362	611.15
512.57	340.82
512.778	308.05
512.985	336.72
513.193	766.79
513.401	926.54
513.608	480.08
513.816	385.87
514.024	785.23
514.231	936.78
514.439	385.87
514.646	451.41
514.854	906.06
515.061	906.06
515.269	486.22
515.477	408.4
515.684	459.6
515.892	820.04
516.099	312.14
516.307	314.19
516.514	856.9
516.722	934.73
516.929	435.02
517.136	406.35
517.344	1010.5
517.551	756.55
517.759	414.54
517.966	437.07
518.173	643.92
518.381	658.25
518.588	643.92
518.796	373.58
519.003	785.23
519.21	570.19
519.418	488.27
519.625	746.31
519.832	703.31
520.039	793.42
520.247	353.1
520.454	506.7
520.661	1010.5
520.868	752.46
521.076	510.8
521.283	500.56
521.49	1301.31
521.697	893.77
521.904	521.04
522.112	480.08
522.319	820.04
522.526	861
522.733	398.16
522.94	437.07
523.147	680.78
523.354	981.83
523.561	410.45
523.768	621.39
523.975	949.06
524.183	723.79
524.39	590.67
524.597	355.15
524.804	801.61
525.011	602.96
525.218	492.37
525.425	602.96
525.632	953.16
525.838	703.31
526.045	523.09
526.252	557.9
526.459	1823.55
526.666	1606.46
526.873	484.17
527.08	602.96
527.287	1217.35
527.494	922.44
527.701	469.84
527.907	564.04
528.114	922.44
528.321	850.76
528.528	660.3
528.735	656.2
528.941	697.16
529.148	701.26
529.355	684.87
529.562	625.48
529.768	1194.82
529.975	914.25
530.182	668.49
530.388	545.61
530.595	1125.19
530.802	617.29
531.008	799.56
531.215	645.96
531.422	1610.56
531.628	1594.17
531.835	686.92
532.042	801.61
532.248	668.49
532.455	963.4
532.661	682.83
532.868	645.96
533.074	977.73
533.281	1182.53
533.487	699.21
533.694	590.67
533.9	803.66
534.107	1098.56
534.313	557.9
534.52	525.13
534.726	1184.58
534.933	1346.37
535.139	547.66
535.345	645.96
535.552	975.69
535.758	998.21
535.965	697.16
536.171	748.36
536.377	1223.49
536.584	1233.73
536.79	727.88
536.996	805.71
537.203	1000.26
537.409	1071.94
537.615	777.03
537.821	871.24
538.028	1196.87
538.234	1069.89
538.44	807.75
538.646	856.9
538.853	1147.72
539.059	846.66
539.265	1049.41
539.471	551.76
539.677	1186.63
539.883	987.97
540.09	742.22
540.296	1215.3
540.502	1057.61
540.708	897.86
540.914	938.82
541.12	750.41
541.326	1274.69
541.532	1016.65
541.738	834.38
541.944	852.81
542.15	1397.57
542.356	977.73
542.562	774.99
542.768	811.85
542.974	1755.96
543.18	1571.65
543.386	867.14
543.592	695.11
543.798	1389.38
544.004	1368.9
544.21	871.24
544.415	990.02
544.621	1155.91
544.827	1270.59
545.033	848.71
545.239	1076.04
545.445	861
545.651	1209.15
545.856	861
546.062	887.62
546.268	985.93
546.474	1053.51
546.679	922.44
546.885	944.97
547.091	1022.79
547.297	1639.23
547.502	955.21
547.708	838.47
547.914	895.82
548.119	1190.72
548.325	875.34
548.531	848.71
548.736	1483.58
548.942	983.88
549.147	914.25
549.353	1166.15
549.559	1502.01
549.764	1239.87
549.97	932.68
550.175	897.86
550.381	1422.14
550.586	1065.8
550.792	973.64
550.997	1006.41
551.203	1342.27
551.408	1360.7
551.614	912.2
551.819	990.02
552.025	1571.65
552.23	1616.7
552.435	879.43
552.641	1092.42
552.846	961.35
553.052	1608.51
553.257	1110.85
553.462	906.06
553.668	1100.61
553.873	1491.77
554.078	1041.22
554.283	1047.37
554.489	1248.07
554.694	1268.55
554.899	885.58
555.105	1246.02
555.31	1362.75
555.515	1495.87
555.72	1217.35
555.925	940.87
556.131	1391.42
556.336	1153.86
556.541	961.35
556.746	1016.65
556.951	1700.67
557.156	1725.24
557.361	1278.79
557.567	1217.35
557.772	1805.11
557.977	1495.87
558.182	1057.61
558.387	1170.24
558.592	1184.58
558.797	1680.19
559.002	1221.44
559.207	1231.68
559.412	1332.03
559.617	1715
559.822	1114.95
560.027	951.11
560.232	1368.9
560.437	1532.73
560.642	1033.03
560.847	1121.09
561.051	1364.8
561.256	1442.62
561.461	1336.13
561.666	996.17
561.871	1508.16
562.076	1532.73
562.281	1121.09
562.485	1071.94
562.69	1549.12
562.895	1614.65
563.1	1176.39
563.305	1127.24
563.509	1749.82
563.714	1927.99
563.919	1229.63
564.123	1233.73
564.328	1370.94
564.533	1655.61
564.737	1348.42
564.942	1139.52
565.147	1659.71
565.351	1950.52
565.556	1229.63
565.761	1256.26
565.965	1467.2
566.17	1350.46
566.374	1358.66
566.579	1028.93
566.784	1538.88
566.988	1291.07
567.193	1053.51
567.397	1233.73
567.602	1139.52
567.806	1469.25
568.011	1200.96
568.215	1246.02
568.42	1420.1
568.624	1416
568.828	1266.5
569.033	1432.38
569.237	1731.39
569.442	1520.45
569.646	1217.35
569.85	1274.69
570.055	1463.1
570.259	1516.35
570.463	1547.07
570.668	1352.51
570.872	1585.98
571.076	1516.35
571.281	1416
571.485	1327.94
571.689	1526.59
571.893	1725.24
572.098	1430.34
572.302	1350.46
572.506	1567.55
572.71	1518.4
572.914	1356.61
573.119	1327.94
573.323	2009.91
573.527	1831.74
573.731	1289.03
573.935	1241.92
574.139	1639.23
574.343	1446.72
574.547	1389.38
574.751	1356.61
574.955	1923.9
575.159	1958.71
575.364	1200.96
575.568	1284.93
575.772	1463.1
575.976	1940.28
576.18	1348.42
576.383	1180.48
576.587	1960.76
576.791	1907.51
576.995	1180.48
577.199	1198.92
577.403	1839.93
577.607	1841.98
577.811	1372.99
578.015	1522.49
578.219	1784.63
578.422	1817.4
578.626	1504.06
578.83	1583.93
579.034	2079.54
579.238	1766.2
579.442	1467.2
579.645	1798.97
579.849	1622.84
580.053	1704.76
580.257	1401.66
580.46	1420.1
580.664	1770.3
580.868	1860.41
581.071	1616.7
581.275	1559.36
581.479	1411.9
581.682	1897.27
581.886	1387.33
582.09	1633.08
582.293	1971
582.497	1905.46
582.7	1694.52
582.904	1450.82
583.107	1669.95
583.311	1585.98
583.515	1579.84
583.718	1635.13
583.922	1817.4
584.125	2085.69
584.329	1475.39
584.532	1645.37
584.735	2032.44
584.939	1825.59
585.142	1473.34
585.346	1497.92
585.549	1829.69
585.753	1682.24
585.956	1530.69
586.159	1620.8
586.363	2138.93
586.566	1858.36
586.769	1452.86
586.973	1520.45
587.176	1919.8
587.379	2087.73
587.582	1956.66
587.786	1747.77
587.989	1829.69
588.192	2423.6
588.395	1659.71
588.599	1778.49
588.802	1977.14
589.005	2022.2
589.208	1499.97
589.411	1715
589.615	2028.34
589.818	2155.32
590.021	1796.92
590.224	1729.34
590.427	2054.97
590.63	2097.97
590.833	1459.01
591.036	1555.26
591.239	1835.83
591.442	1835.83
591.645	1899.32
591.848	1774.39
592.051	2095.93
592.254	2026.29
592.457	1780.54
592.66	1768.25
592.863	1962.81
593.066	2046.77
593.269	1784.63
593.472	1712.96
593.675	1622.84
593.878	2153.27
594.081	1919.8
594.284	1602.36
594.486	2106.17
594.689	1964.86
594.892	1854.27
595.095	1782.59
595.298	2005.81
595.5	1860.41
595.703	1940.28
595.906	1848.12
596.109	2423.6
596.311	2212.66
596.514	1626.94
596.717	1971
596.92	2347.83
597.122	1995.57
597.325	1483.58
597.528	1770.3
597.73	2337.59
597.933	1944.38
598.136	1776.44
598.338	1520.45
598.541	2169.65
598.743	2315.06
598.946	1811.26
599.148	1811.26
599.351	2409.26
599.554	2149.17
599.756	2003.77
599.959	1956.66
600.161	2288.43
600.363	2646.83
600.566	2136.88
600.768	1884.98
600.971	2489.14
601.173	2388.78
601.376	1798.97
601.578	1968.95
601.78	2327.35
601.983	2728.75
602.185	1807.16
602.388	1950.52
602.59	2306.87
602.792	1919.8
602.995	2175.8
603.197	1958.71
603.399	2343.73
603.601	2167.6
603.804	1921.85
604.006	1981.24
604.208	2130.74
604.41	1884.98
604.613	2222.9
604.815	1893.18
605.017	2689.84
605.219	2020.15
605.421	2257.71
605.623	2085.69
605.826	2523.95
606.028	2448.18
606.23	1936.18
606.432	1934.14
606.634	2521.9
606.836	2552.62
607.038	1807.16
607.24	2089.78
607.442	2380.59
607.644	2216.76
607.846	2063.16
608.048	1977.14
608.25	2571.05
608.452	2085.69
608.654	2005.81
608.856	1659.71
609.058	2153.27
609.26	2427.7
609.462	2014.01
609.664	2196.28
609.866	2700.08
610.067	2542.38
610.269	2163.51
610.471	2110.26
610.673	2065.21
610.875	2435.89
611.077	1905.46
611.278	2278.19
611.48	2286.39
611.682	2622.25
611.884	2288.43
612.085	2177.84
612.287	2188.08
612.489	2356.02
612.69	1934.14
612.892	2202.42
613.094	2554.67
613.295	2333.49
613.497	1983.29
613.699	2085.69
613.9	2751.28
614.102	2489.14
614.304	2032.44
614.505	1866.55
614.707	2290.48
614.908	2329.39
615.11	1975.1
615.311	2186.04
615.513	2517.81
615.714	2636.59
615.916	2007.86
616.117	2257.71
616.319	2421.55
616.52	2415.41
616.722	2030.39
616.923	2145.08
617.124	2620.21
617.326	2456.37
617.527	2188.08
617.729	2442.03
617.93	2571.05
618.131	2595.63
618.333	2089.78
618.534	2265.91
618.735	2286.39
618.937	2771.76
619.138	2014.01
619.339	2317.11
619.54	2499.38
619.742	2251.57
619.943	2493.23
620.144	2155.32
620.345	2560.81
620.546	2667.31
620.748	2132.79
620.949	2124.6
621.15	2462.51
621.351	2482.99
621.552	2118.45
621.753	2085.69
621.954	2165.56
622.155	2870.06
622.356	2186.04
622.558	2345.78
622.759	2495.28
622.96	2790.19
623.161	2216.76
623.362	2224.95
623.563	2394.93
623.764	2573.1
623.965	2274.1
624.166	2519.85
624.366	2528.05
624.567	2556.72
624.768	1985.34
624.969	2392.88
625.17	2448.18
625.371	2677.55
625.572	2335.54
625.773	2259.76
625.973	2700.08
626.174	2687.79
626.375	2364.21
626.576	2384.69
626.777	2550.57
626.977	2853.67
627.178	2315.06
627.379	2325.3
627.58	2380.59
627.78	2566.96
627.981	2382.64
628.182	2482.99
628.382	2757.42
628.583	2173.75
628.784	2210.61
628.984	2513.71
629.185	2714.41
629.386	2753.32
629.586	2597.68
629.787	2288.43
629.987	2655.02
630.188	2468.66
630.388	2384.69
630.589	2325.3
630.79	3042.09
630.99	2581.29
631.191	2495.28
631.391	2421.55
631.591	2673.45
631.792	2997.03
631.992	2495.28
632.193	2407.22
632.393	3001.13
632.594	2638.64
632.794	2255.67
632.994	2495.28
633.195	2571.05
633.395	2687.79
633.595	2396.98
633.796	2591.53
633.996	2396.98
634.196	2935.59
634.397	2356.02
634.597	2499.38
634.797	2583.34
634.997	3035.94
635.198	2618.16
635.398	2321.2
635.598	2790.19
635.798	2990.89
635.998	2808.62
636.199	2429.74
636.399	2579.25
636.599	2386.74
636.799	2454.32
636.999	2624.3
637.199	2822.95
637.399	2880.3
637.599	2419.5
637.799	2650.92
637.999	2593.58
638.199	3029.8
638.399	2384.69
638.599	2566.96
638.799	2765.61
638.999	3285.8
639.199	2710.32
639.399	2548.53
639.599	3138.34
639.799	2532.14
639.999	2550.57
640.199	2536.24
640.399	2896.68
640.599	2857.77
640.799	2599.73
640.998	2716.46
641.198	3091.24
641.398	2992.94
641.598	2614.06
641.798	2573.1
641.997	3670.81
642.197	2779.95
642.397	2689.84
642.597	2515.76
642.796	2843.43
642.996	3093.29
643.196	2736.94
643.395	2470.7
643.595	2992.94
643.795	2513.71
643.994	2693.93
644.194	2665.26
644.394	3046.18
644.593	2896.68
644.793	2538.29
644.992	2632.49
645.192	2841.39
645.392	2562.86
645.591	2777.9
645.791	2667.31
645.99	2978.6
646.19	2667.31
646.389	2628.4
646.589	2755.37
646.788	2988.84
646.987	2949.93
647.187	2835.24
647.386	2802.47
647.586	2956.07
647.785	3124.01
647.984	2718.51
648.184	2792.23
648.383	2556.72
648.582	2906.92
648.782	2792.23
648.981	2902.83
649.18	2741.04
649.38	2956.07
649.579	2663.21
649.778	2612.01
649.977	2982.7
650.177	2882.35
650.376	2550.57
650.575	2622.25
650.774	3289.89
650.973	2724.65
651.173	2595.63
651.372	2843.43
651.571	3164.97
651.77	3339.04
651.969	2650.92
652.168	2745.13
652.367	2677.55
652.566	3175.2
652.765	2781.99
652.964	2968.36
653.163	3431.2
653.362	3074.85
653.561	2683.69
653.76	2757.42
653.959	2868.01
654.158	3164.97
654.357	3015.46
654.556	2831.15
654.755	3124.01
654.954	3124.01
655.153	2726.7
655.352	2865.96
655.551	3175.2
655.749	2859.82
655.948	2884.39
656.147	2863.91
656.346	3076.9
656.545	2962.22
656.743	2816.81
656.942	2798.38
657.141	3005.22
657.34	2779.95
657.538	2798.38
657.737	2671.4
657.936	3060.52
658.135	3091.24
658.333	2865.96
658.532	3015.46
658.731	3535.65
658.929	3095.33
659.128	3103.53
659.326	2786.09
659.525	3216.16
659.724	2937.64
659.922	2589.49
660.121	2675.5
660.319	3052.33
660.518	2792.23
660.716	2849.58
660.915	2802.47
661.113	3343.14
661.312	2820.91
661.51	3003.18
661.709	2800.43
661.907	3322.66
662.105	3435.3
662.304	2954.02
662.502	2923.3
662.701	3402.53
662.899	3023.66
663.097	3230.5
663.296	2736.94
663.494	3398.43
663.692	3660.57
663.891	2831.15
664.089	2825
664.287	3232.55
664.485	3463.97
664.684	2847.53
664.882	3003.18
665.08	3148.58
665.278	3187.49
665.476	2851.63
665.675	3263.27
665.873	3650.33
666.071	3410.72
666.269	2908.97
666.467	3152.68
666.665	3273.51
666.863	3093.29
667.061	3144.49
667.259	2925.35
667.457	3189.54
667.655	3214.12
667.853	2843.43
668.051	2902.83
668.249	2970.41
668.447	3306.27
668.645	2915.11
668.843	3226.4
669.041	3377.95
669.239	3101.48
669.437	3093.29
669.635	3255.08
669.833	3179.3
670.031	3322.66
670.229	3093.29
670.426	3099.43
670.624	3062.57
670.822	3054.37
671.02	2884.39
671.218	2964.26
671.415	2968.36
671.613	3304.23
671.811	3162.92
672.009	3124.01
672.206	3359.52
672.404	3207.97
672.602	3236.64
672.799	3146.53
672.997	3306.27
673.195	3527.46
673.392	3119.91
673.59	3048.23
673.788	3398.43
673.985	2698.03
674.183	3064.61
674.38	3126.05
674.578	3312.42
674.775	3044.13
674.973	2863.91
675.17	2913.06
675.368	3521.31
675.565	3265.32
675.763	2902.83
675.96	2837.29
676.158	3519.26
676.355	3103.53
676.553	2829.1
676.75	3042.09
676.947	3248.93
677.145	2990.89
677.342	3164.97
677.539	3277.6
677.737	3418.91
677.934	3674.91
678.131	3314.47
678.329	3003.18
678.526	3715.87
678.723	3351.33
678.92	3130.15
679.118	2904.87
679.315	2908.97
679.512	3566.37
679.709	3081
679.906	3089.19
680.104	3482.4
680.301	3349.28
680.498	2970.41
680.695	2868.01
680.892	3064.61
681.089	3283.75
681.286	3126.05
681.483	2917.16
681.68	3531.55
681.877	3410.72
682.075	3060.52
682.272	3230.5
682.469	3306.27
682.665	3124.01
682.862	3031.85
683.059	2919.21
683.256	3322.66
683.453	3232.55
683.65	3115.81
683.847	3091.24
684.044	3083.05
684.241	2997.03
684.438	3140.39
684.635	2964.26
684.831	3689.25
685.028	3762.97
685.225	2945.83
685.422	3126.05
685.619	3150.63
685.815	3236.64
686.012	3271.46
686.209	3136.29
686.405	2868.01
686.602	3439.39
686.799	3007.27
686.996	3001.13
687.192	3013.42
687.389	3683.1
687.586	3005.22
687.782	2945.83
687.979	3611.42
688.175	3527.46
688.372	3253.03
688.568	3113.77
688.765	3083.05
688.962	3746.59
689.158	3189.54
689.355	3033.9
689.551	3537.7
689.748	3099.43
689.944	3257.12
690.14	2958.12
690.337	3453.73
690.533	3279.65
690.73	3289.89
690.926	3152.68
691.123	3269.41
691.319	3158.82
691.515	2890.54
691.712	3255.08
691.908	3353.38
692.104	3328.8
692.301	3193.64
692.497	3044.13
692.693	3529.5
692.889	3535.65
693.086	3150.63
693.282	2843.43
693.478	3332.9
693.674	3711.77
693.87	3089.19
694.067	3011.37
694.263	3388.19
694.459	3234.6
694.655	3238.69
694.851	3099.43
695.047	3519.26
695.243	3515.17
695.439	3195.68
695.635	3042.09
695.831	3369.76
696.027	3334.95
696.224	2933.54
696.42	3486.5
696.615	3717.92
696.811	3425.06
697.007	3023.66
697.203	3253.03
697.399	3445.54
697.595	3582.75
697.791	3068.71
697.987	3351.33
698.183	3048.23
698.379	3040.04
698.575	2976.55
698.77	3089.19
698.966	3429.15
699.162	3560.22
699.358	3109.67
699.554	3095.33
699.749	3494.69
699.945	3396.39
700.141	3263.27
700.337	3228.45
700.532	3269.41
700.728	3046.18
700.924	3027.75
701.119	2999.08
701.315	3371.81
701.511	3142.44
701.706	3148.58
701.902	2894.63
702.097	3330.85
702.293	3316.51
702.489	3212.07
702.684	3130.15
702.88	3224.36
703.075	3179.3
703.271	3205.92
703.466	3091.24
703.662	3298.08
703.857	3572.51
704.053	3177.25
704.248	3224.36
704.443	3533.6
704.639	3449.63
704.834	3097.38
705.03	3101.48
705.225	3486.5
705.42	3568.41
705.616	3150.63
705.811	2843.43
706.006	3093.29
706.202	3244.84
706.397	3160.87
706.592	3005.22
706.787	3183.4
706.983	3339.04
707.178	3404.58
707.373	3152.68
707.568	3517.22
707.763	3582.75
707.959	3068.71
708.154	3179.3
708.349	3398.43
708.544	3373.86
708.739	3461.92
708.934	3027.75
709.129	3500.83
709.324	3486.5
709.519	3048.23
709.714	3089.19
709.909	3736.35
710.104	3339.04
710.299	3064.61
710.494	3296.04
710.689	3515.17
710.884	3377.95
711.079	3244.84
711.274	3369.76
711.469	3396.39
711.664	3336.99
711.859	3037.99
712.054	3316.51
712.249	3293.99
712.443	3728.16
712.638	3003.18
712.833	3126.05
713.028	3285.8
713.223	3244.84
713.417	3373.86
713.612	3154.73
713.807	3506.98
714.002	3908.38
714.196	3312.42
714.391	3269.41
714.586	3642.14
714.78	3228.45
714.975	3072.81
715.17	3126.05
715.364	3283.75
715.559	3558.18
715.754	2747.18
715.948	3052.33
716.143	3769.12
716.337	3463.97
716.532	3435.3
716.726	2958.12
716.921	3568.41
717.115	3609.37
717.31	2976.55
717.504	3502.88
717.699	3183.4
717.893	3511.07
718.088	2974.5
718.282	3072.81
718.476	3220.26
718.671	3377.95
718.865	3056.42
719.059	3019.56
719.254	3242.79
719.448	3568.41
719.642	4303.64
719.837	2874.15
720.031	3523.36
720.225	3488.54
720.419	3259.17
720.614	2937.64
720.808	3433.25
721.002	3154.73
721.196	3011.37
721.39	3062.57
721.585	3601.18
721.779	3361.57
721.973	3169.06
722.167	2843.43
722.361	3261.22
722.555	3642.14
722.749	3033.9
722.943	3044.13
723.137	3076.9
723.331	3361.57
723.525	3076.9
723.719	3115.81
723.913	3429.15
724.107	3599.13
724.301	3023.66
724.495	3062.57
724.689	3638.05
724.883	3496.74
725.077	2994.98
725.271	3132.2
725.465	3603.23
725.659	3275.56
725.853	3115.81
726.046	3113.77
726.24	3164.97
726.434	3566.37
726.628	3173.16
726.822	3099.43
727.015	3601.18
727.209	3539.74
727.403	3154.73
727.596	3064.61
727.79	3601.18
727.984	3472.16
728.177	3126.05
728.371	3214.12
728.565	3625.76
728.758	3199.78
728.952	3144.49
729.146	3150.63
729.339	3539.74
729.533	3261.22
729.726	3203.88
729.92	3107.62
730.113	3638.05
730.307	3439.39
730.5	3210.02
730.694	3167.01
730.887	3216.16
731.081	3558.18
731.274	3107.62
731.468	3255.08
731.661	3277.6
731.854	3207.97
732.048	3218.21
732.241	2915.11
732.435	3203.88
732.628	3343.14
732.821	3244.84
733.014	3040.04
733.208	3148.58
733.401	3726.11
733.594	3156.77
733.788	3042.09
733.981	3609.37
734.174	3302.18
734.367	3140.39
734.56	3222.31
734.754	3461.92
734.947	3277.6
735.14	3107.62
735.333	3189.54
735.526	3437.34
735.719	3134.25
735.912	3128.1
736.105	3083.05
736.298	3304.23
736.491	3027.75
736.684	3111.72
736.877	3097.38
737.07	3306.27
737.263	3631.9
737.456	3085.09
737.649	3019.56
737.842	3152.68
738.035	3433.25
738.228	3126.05
738.421	3191.59
738.614	3584.8
738.807	3529.5
739	2988.84
739.192	3099.43
739.385	3332.9
739.578	3447.58
739.771	3322.66
739.964	3167.01
740.156	3357.47
740.349	3367.71
740.542	3234.6
740.735	2933.54
740.927	3242.79
741.12	3058.47
741.313	2970.41
741.505	3197.73
741.698	3380
741.891	3326.75
742.083	3328.8
742.276	3191.59
742.468	3293.99
742.661	3414.82
742.854	3179.3
743.046	3068.71
743.239	3730.2
743.431	3142.44
743.624	3171.11
743.816	2962.22
744.009	3382.05
744.201	3396.39
744.393	3275.56
744.586	3001.13
744.778	3527.46
744.971	3318.56
745.163	3246.88
745.355	3259.17
745.548	3347.23
745.74	3113.77
745.932	3240.74
746.125	3265.32
746.317	3939.1
746.509	3445.54
746.702	3124.01
746.894	3220.26
747.086	3453.73
747.278	3488.54
747.471	3281.7
747.663	3128.1
747.855	3283.75
748.047	3648.29
748.239	3257.12
748.431	3197.73
748.623	3681.05
748.815	3717.92
749.008	3001.13
749.2	3050.28
749.392	3463.97
749.584	3394.34
749.776	3240.74
749.968	3177.25
750.16	3717.92
750.352	3324.71
750.544	3146.53
750.736	3183.4
750.928	3406.63
751.12	3320.61
751.311	3064.61
751.503	3197.73
751.695	3519.26
751.887	3298.08
752.079	2915.11
752.271	3017.51
752.463	4117.27
752.654	3574.56
752.846	3232.55
753.038	3070.76
753.23	3207.97
753.421	3511.07
753.613	3240.74
753.805	3322.66
753.997	3529.5
754.188	3431.2
754.38	3040.04
754.572	3023.66
754.763	3126.05
754.955	3392.29
755.146	3138.34
755.338	3253.03
755.53	3322.66
755.721	3220.26
755.913	3040.04
756.104	2949.93
756.296	3072.81
756.487	3429.15
756.679	3056.42
756.87	2994.98
757.062	3136.29
757.253	3486.5
757.445	3103.53
757.636	3232.55
757.827	3277.6
758.019	3820.32
758.21	3031.85
758.401	3099.43
758.593	3732.25
758.784	3658.53
758.975	2970.41
759.167	2964.26
759.358	3250.98
759.549	3545.89
759.74	2904.87
759.932	3101.48
760.123	3681.05
760.314	3218.21
760.505	3336.99
760.696	3205.92
760.888	3672.86
761.079	3171.11
761.27	3097.38
761.461	2839.34
761.652	3613.47
761.843	3146.53
762.034	3011.37
762.225	3205.92
762.416	3083.05
762.607	3191.59
762.798	3158.82
762.989	2978.6
763.18	4066.07
763.371	3132.2
763.562	2974.5
763.753	3105.57
763.944	3533.6
764.135	3453.73
764.326	3117.86
764.517	2827.05
764.708	3212.07
764.899	3296.04
765.089	2931.5
765.28	2908.97
765.471	3257.12
765.662	3306.27
765.853	3042.09
766.043	2853.67
766.234	3375.91
766.425	3453.73
766.615	3054.37
766.806	2835.24
766.997	3336.99
767.187	3302.18
767.378	2878.25
767.569	2738.99
767.759	3355.43
767.95	3265.32
768.141	3109.67
768.331	3027.75
768.522	3310.37
768.712	3373.86
768.903	2978.6
769.093	2818.86
769.284	3564.32
769.474	3277.6
769.665	2892.59
769.855	2702.12
770.046	3158.82
770.236	3150.63
770.426	3115.81
770.617	2861.87
770.807	3212.07
770.998	2992.94
771.188	3105.57
771.378	2861.87
771.569	3298.08
771.759	3253.03
771.949	2837.29
772.139	2679.6
772.33	3273.51
772.52	3529.5
772.71	2771.76
772.9	2720.56
773.09	3513.12
773.281	3466.02
773.471	2849.58
773.661	2843.43
773.851	3402.53
774.041	3070.76
774.231	2831.15
774.421	3062.57
774.611	3414.82
774.802	3128.1
774.992	2863.91
775.182	2796.33
775.372	3029.8
775.562	3414.82
775.752	2798.38
775.942	2765.61
776.131	3472.16
776.321	3291.94
776.511	2878.25
776.701	2749.23
776.891	3234.6
777.081	2847.53
777.271	2861.87
777.461	2755.37
777.651	3336.99
777.84	3328.8
778.03	2988.84
778.22	2859.82
778.41	3373.86
778.599	2808.62
778.789	2964.26
778.979	2765.61
779.169	3152.68
779.358	3074.85
779.548	3121.96
779.738	2655.02
779.927	3001.13
780.117	2730.8
780.307	2890.54
780.496	2548.53
780.686	3101.48
780.875	3349.28
781.065	2765.61
781.254	2759.47
781.444	3054.37
781.633	3015.46
781.823	2741.04
782.012	2671.4
782.202	2921.26
782.391	2929.45
782.581	2526
782.77	2937.64
782.96	3093.29
783.149	3056.42
783.338	2648.88
783.528	2581.29
783.717	3095.33
783.906	3293.99
784.096	2841.39
784.285	2745.13
784.474	3035.94
784.663	2773.8
784.853	2818.86
785.042	2798.38
785.231	2831.15
785.42	3103.53
785.61	2796.33
785.799	2738.99
785.988	2794.28
786.177	3062.57
786.366	2728.75
786.555	2743.08
786.744	3064.61
786.933	2851.63
787.122	2573.1
787.312	2659.12
787.501	2827.05
787.69	3124.01
787.879	2724.65
788.068	2634.54
788.257	2730.8
788.445	2808.62
788.634	2700.08
788.823	2579.25
789.012	3525.41
789.201	3242.79
789.39	2839.34
789.579	2646.83
789.768	2931.5
789.957	2892.59
790.145	2775.85
790.334	2380.59
790.523	2745.13
790.712	2849.58
790.9	2771.76
791.089	2605.87
791.278	2966.31
791.467	2882.35
791.655	2984.74
791.844	3199.78
792.033	2706.22
792.221	2931.5
792.41	2755.37
792.599	2489.14
792.787	3058.47
792.976	3089.19
793.164	2548.53
793.353	2638.64
793.541	3183.4
793.73	3052.33
793.918	2687.79
794.107	2562.86
794.295	2786.09
794.484	2927.4
794.672	2659.12
794.861	2605.87
795.049	2972.46
795.238	3361.57
795.426	2655.02
795.614	2839.34
795.803	2988.84
795.991	3273.51
796.179	2575.15
796.368	2650.92
796.556	3089.19
796.744	2687.79
796.932	2618.16
797.121	2546.48
797.309	2853.67
797.497	3066.66
797.685	2728.75
797.874	2626.35
798.062	2728.75
798.25	2986.79
798.438	2544.43
798.626	2685.74
798.814	2868.01
799.002	3484.45
799.19	2837.29
799.378	2708.27
799.566	3128.1
799.755	3216.16
799.943	2804.52
800.131	2560.81
800.318	2892.59
800.506	3023.66
800.694	2667.31
800.882	2829.1
801.07	3191.59
801.258	2749.23
801.446	2763.56
801.634	2599.73
801.822	2851.63
802.01	2863.91
802.197	2685.74
802.385	2749.23
802.573	2913.06
802.761	2773.8
802.949	2745.13
803.136	2468.66
803.324	3121.96
803.512	2777.9
803.699	2673.45
803.887	2507.57
804.075	3164.97
804.262	2775.85
804.45	2620.21
804.638	2622.25
804.825	2773.8
805.013	2943.78
805.201	2702.12
805.388	2519.85
805.576	2962.22
805.763	3296.04
805.951	2712.36
806.138	2892.59
806.326	3380
806.513	3109.67
806.701	2706.22
806.888	2636.59
807.075	2919.21
807.263	3437.34
807.45	2472.75
807.638	2712.36
807.825	3318.56
808.012	3154.73
808.2	2849.58
808.387	2931.5
808.574	3189.54
808.761	3253.03
808.949	2681.64
809.136	2804.52
809.323	2956.07
809.51	2798.38
809.698	3015.46
809.885	2855.72
810.072	2935.59
810.259	3130.15
810.446	2822.95
810.633	2767.66
810.82	3371.81
811.008	3314.47
811.195	2960.17
811.382	2876.2
811.569	3009.32
811.756	2679.6
811.943	2769.71
812.13	2767.66
812.317	2888.49
812.504	2798.38
812.691	2904.87
812.878	2859.82
813.064	3250.98
813.251	3160.87
813.438	2685.74
813.625	2919.21
813.812	2933.54
813.999	2888.49
814.186	2708.27
814.372	2921.26
814.559	2954.02
814.746	3304.23
814.933	2798.38
815.12	2988.84
815.306	2978.6
815.493	2806.57
815.68	2726.7
815.866	2929.45
816.053	3246.88
816.24	3564.32
816.426	2904.87
816.613	2726.7
816.799	3169.06
816.986	3255.08
817.173	2759.47
817.359	2794.28
817.546	3076.9
817.732	2618.16
817.919	2655.02
818.105	2902.83
818.292	2872.11
818.478	3101.48
818.665	2937.64
818.851	2720.56
819.037	3486.5
819.224	3033.9
819.41	2640.69
819.597	2599.73
819.783	3420.96
819.969	3042.09
820.156	2859.82
820.342	2708.27
820.528	3689.25
820.714	2956.07
820.901	3097.38
821.087	2771.76
821.273	3302.18
821.459	3031.85
821.646	2620.21
821.832	2712.36
822.018	2943.78
822.204	3179.3
822.39	2743.08
822.576	2745.13
822.762	2992.94
822.948	2917.16
823.134	2921.26
823.32	2757.42
823.507	2558.77
823.693	2921.26
823.879	3248.93
824.065	2757.42
824.25	3134.25
824.436	2695.98
824.622	2829.1
824.808	2507.57
824.994	2833.19
825.18	2747.18
825.366	2712.36
825.552	2720.56
825.738	2980.65
825.923	3181.35
826.109	2966.31
826.295	2757.42
826.481	2908.97
826.667	2886.44
826.852	2941.74
827.038	2691.88
827.224	3121.96
827.409	3377.95
827.595	2569.01
827.781	2865.96
827.966	3027.75
828.152	3107.62
828.338	2812.71
828.523	2601.77
828.709	2741.04
828.894	3228.45
829.08	2648.88
829.266	2528.05
829.451	2681.64
829.637	3044.13
829.822	2698.03
830.008	2675.5
830.193	2943.78
830.378	3195.68
830.564	2698.03
830.749	2575.15
830.935	3017.51
831.12	2986.79
831.305	2612.01
831.491	2736.94
831.676	2595.63
831.861	3040.04
832.047	2695.98
832.232	2675.5
832.417	3070.76
832.602	2777.9
832.788	2609.97
832.973	2478.9
833.158	2896.68
833.343	2857.77
833.528	2673.45
833.714	2933.54
833.899	2945.83
834.084	3269.41
834.269	2741.04
834.454	2712.36
834.639	3011.37
834.824	2773.8
835.009	2806.57
835.194	2673.45
835.379	2943.78
835.564	3083.05
835.749	2618.16
835.934	2603.82
836.119	3015.46
836.304	2882.35
836.489	2661.16
836.674	2730.8
836.859	2526
837.044	3134.25
837.228	2677.55
837.413	2425.65
837.598	2816.81
837.783	3064.61
837.968	2556.72
838.152	2468.66
838.337	2321.2
838.522	3023.66
838.707	2962.22
838.891	2769.71
839.076	2792.23
839.261	3072.81
839.445	2564.91
839.63	2546.48
839.815	3216.16
839.999	2743.08
840.184	2493.23
840.368	2517.81
840.553	3068.71
840.737	3046.18
840.922	2585.39
841.106	2417.46
841.291	2564.91
841.475	2769.71
841.66	2474.8
841.844	2569.01
842.029	3511.07
842.213	2523.95
842.397	2540.33
842.582	2321.2
842.766	3052.33
842.951	3052.33
843.135	2591.53
843.319	2544.43
843.504	2775.85
843.688	3171.11
843.872	2347.83
844.056	2487.09
844.241	2839.34
844.425	2601.77
844.609	2607.92
844.793	2210.61
844.977	3091.24
845.161	2843.43
845.346	2421.55
845.53	2558.77
845.714	2800.43
845.898	3064.61
846.082	2284.34
846.266	2579.25
846.45	2894.63
846.634	2847.53
846.818	2501.42
847.002	2544.43
847.186	2970.41
847.37	2487.09
847.554	2366.26
847.738	2599.73
847.922	2761.52
848.106	2630.45
848.29	2306.87
848.473	2439.98
848.657	2769.71
848.841	2614.06
849.025	2552.62
849.209	2261.81
849.392	2945.83
849.576	2530.09
849.76	2257.71
849.944	2646.83
850.127	2898.73
850.311	2347.83
850.495	2313.01
850.678	2257.71
850.862	2876.2
851.046	2964.26
851.229	2614.06
851.413	2378.55
851.596	2663.21
851.78	2626.35
851.964	2523.95
852.147	2419.5
852.331	3332.9
852.514	2988.84
852.698	2577.2
852.881	2259.76
853.065	2814.76
853.248	2544.43
853.431	2507.57
853.615	2474.8
853.798	3156.77
853.982	2665.26
854.165	2509.62
854.348	2462.51
854.532	2425.65
854.715	2372.4
854.898	2489.14
855.081	2274.1
855.265	2857.77
855.448	3052.33
855.631	2327.35
855.814	2407.22
855.997	2788.14
856.181	2528.05
856.364	2259.76
856.547	2241.33
856.73	2573.1
856.913	2691.88
857.096	2243.38
857.279	2376.5
857.462	2300.72
857.645	2622.25
857.828	2435.89
858.011	2470.7
858.194	2464.56
858.377	2814.76
858.56	2134.84
858.743	2435.89
858.926	2267.95
859.109	2743.08
859.292	2347.83
859.475	2241.33
859.658	2876.2
859.841	2624.3
860.023	2272.05
860.206	2167.6
860.389	2501.42
860.572	2839.34
860.755	2349.87
860.937	2290.48
861.12	2429.74
861.303	2581.29
861.486	2337.59
861.668	2349.87
861.851	2714.41
862.034	2618.16
862.216	2521.9
862.399	2161.46
862.581	2474.8
862.764	2808.62
862.947	2200.37
863.129	2304.82
863.312	2218.8
863.494	2730.8
863.677	2452.27
863.859	1971
864.042	2646.83
864.224	2712.36
864.406	2290.48
864.589	2079.54
864.771	2579.25
864.954	2224.95
865.136	2188.08
865.318	2073.4
865.501	2601.77
865.683	2003.77
865.865	2138.93
866.048	2110.26
866.23	2548.53
866.412	2407.22
866.594	2169.65
866.777	2171.7
866.959	2413.36
867.141	2302.77
867.323	2507.57
867.505	2233.14
867.687	2456.37
867.869	2360.11
868.052	2153.27
868.234	2054.97
868.416	2351.92
868.598	2560.81
868.78	2181.94
868.962	2091.83
869.144	2630.45
869.326	2581.29
869.508	2091.83
869.69	2128.69
869.872	2267.95
870.054	2581.29
870.236	2009.91
870.417	2177.84
870.599	2208.56
870.781	2673.45
870.963	2349.87
871.145	2206.52
871.327	2253.62
871.508	2569.01
871.69	2122.55
871.872	2161.46
872.054	2327.35
872.235	2497.33
872.417	2247.48
872.599	2145.08
872.78	2689.84
872.962	2411.31
873.144	1979.19
873.325	2114.36
873.507	2665.26
873.689	2388.78
873.87	1981.24
874.052	2274.1
874.233	2403.12
874.415	2571.05
874.596	2147.12
874.778	2007.86
874.959	2286.39
875.141	2644.78
875.322	2222.9
875.503	2151.22
875.685	2472.75
875.866	2026.29
876.048	1995.57
876.229	2081.59
876.41	2341.68
876.592	2458.42
876.773	2061.11
876.954	2014.01
877.136	2712.36
877.317	2308.91
877.498	2093.88
877.679	2202.42
877.86	2499.38
878.042	2372.4
878.223	2063.16
878.404	2405.17
878.585	2495.28
878.766	2861.87
878.947	2435.89
879.128	2272.05
879.309	2579.25
879.49	2650.92
879.672	2298.67
879.853	2198.32
880.034	2233.14
880.215	2413.36
880.396	2282.29
880.576	2259.76
880.757	2237.24
880.938	2700.08
881.119	2155.32
881.3	2114.36
881.481	2265.91
881.662	3093.29
881.843	2108.21
882.023	2063.16
882.204	2560.81
882.385	2509.62
882.566	2222.9
882.747	2145.08
882.927	2448.18
883.108	2558.77
883.289	2196.28
883.469	2417.46
883.65	2351.92
883.831	2534.19
884.011	2554.67
884.192	2319.15
884.373	2741.04
884.553	2550.57
884.734	2446.13
884.914	2470.7
885.095	3105.57
885.275	3003.18
885.456	2640.69
885.636	2237.24
885.817	2489.14
885.997	2472.75
886.178	2210.61
886.358	2304.82
886.538	2491.18
886.719	3273.51
886.899	2308.91
887.08	2321.2
887.26	2822.95
887.44	2310.96
887.621	2177.84
887.801	2399.02
887.981	3107.62
888.161	2648.88
888.342	2362.16
888.522	2286.39
888.702	2773.8
888.882	2794.28
889.062	2437.94
889.242	1975.1
889.423	2980.65
889.603	2732.84
889.783	2532.14
889.963	2368.31
890.143	2802.47
890.323	2761.52
890.503	2399.02
890.683	2419.5
890.863	2521.9
891.043	2585.39
891.223	2394.93
891.403	2583.34
891.583	2585.39
891.763	2622.25
891.943	2403.12
892.122	2327.35
892.302	2616.11
892.482	2575.15
892.662	2478.9
892.842	2474.8
893.022	2575.15
893.201	2499.38
893.381	2681.64
893.561	2245.43
893.741	2716.46
893.92	2753.32
894.1	2405.17
894.28	2501.42
894.459	2761.52
894.639	2728.75
894.819	2419.5
894.998	2507.57
895.178	2695.98
895.357	2677.55
895.537	2337.59
895.716	2245.43
895.896	2560.81
896.075	2898.73
896.255	2507.57
896.434	2188.08
896.614	2765.61
896.793	2847.53
896.973	2509.62
897.152	2546.48
897.331	2775.85
897.511	2769.71
897.69	2233.14
897.87	2489.14
898.049	2839.34
898.228	2530.09
898.407	2515.76
898.587	2636.59
898.766	2566.96
898.945	2745.13
899.124	2603.82
899.304	2540.33
899.483	2747.18
899.662	2923.3
899.841	2380.59
900.02	2423.6
900.199	2870.06
900.378	2632.49
900.557	2345.78
900.737	2325.3
900.916	2673.45
901.095	2876.2
901.274	2560.81
901.453	2341.68
901.632	2319.15
901.811	2333.49
901.989	2329.39
902.168	2044.73
902.347	2749.23
902.526	2415.41
902.705	2417.46
902.884	2462.51
903.063	2794.28
903.242	2837.29
903.42	2229.04
903.599	2437.94
903.778	2784.04
903.957	2988.84
904.135	2421.55
904.314	2343.73
904.493	2536.24
904.672	2728.75
904.85	2300.72
905.029	2413.36
905.207	2745.13
905.386	3470.11
905.565	2321.2
905.743	2356.02
905.922	2513.71
906.1	2747.18
906.279	2317.11
906.457	2292.53
906.636	2382.64
906.814	2319.15
906.993	2272.05
907.171	2278.19
907.35	2698.03
907.528	2714.41
907.707	2569.01
907.885	2231.09
908.063	2939.69
908.242	2378.55
908.42	2227
908.598	2069.3
908.777	2566.96
908.955	2329.39
909.133	2349.87
909.311	2069.3
909.49	2376.5
909.668	2394.93
909.846	2212.66
910.024	1944.38
910.202	2495.28
910.38	2589.49
910.559	2097.97
910.737	2132.79
910.915	2423.6
911.093	2552.62
911.271	2288.43
911.449	2415.41
911.627	2581.29
911.805	2820.91
911.983	2063.16
912.161	2196.28
912.339	2487.09
912.517	2769.71
912.695	2259.76
912.872	2071.35
913.05	2214.71
913.228	2493.23
913.406	2169.65
913.584	2067.25
913.762	2554.67
913.939	2220.85
914.117	2114.36
914.295	2036.53
914.473	2487.09
914.65	2517.81
914.828	2186.04
915.006	2042.68
915.184	2085.69
915.361	2392.88
915.539	2128.69
915.716	2442.03
915.894	2356.02
916.072	2579.25
916.249	2298.67
916.427	2198.32
916.604	2022.2
916.782	2399.02
916.959	1905.46
917.137	2122.55
917.314	2276.15
917.492	2353.97
917.669	2243.38
917.847	2183.99
918.024	2378.55
918.201	2126.64
918.379	2145.08
918.556	2118.45
918.733	2474.8
918.911	2114.36
919.088	2280.24
919.265	1934.14
919.442	2214.71
919.62	2132.79
919.797	1899.32
919.974	1897.27
920.151	2253.62
920.328	2151.22
920.506	2007.86
920.683	2204.47
920.86	1860.41
921.037	2087.73
921.214	2046.77
921.391	1805.11
921.568	2435.89
921.745	1932.09
921.922	1884.98
922.099	1903.42
922.276	2368.31
922.453	2192.18
922.63	1825.59
922.807	2218.8
922.984	2177.84
923.161	1907.51
923.338	1889.08
923.514	1846.07
923.691	1954.62
923.868	2169.65
924.045	1827.64
924.222	1657.66
924.399	2065.21
924.575	2399.02
924.752	1981.24
924.929	1981.24
925.105	2321.2
925.282	1874.74
925.459	1768.25
925.635	1778.49
925.812	2044.73
925.989	1930.04
926.165	1911.61
926.342	1655.61
926.518	1737.53
926.695	2147.12
926.871	1784.63
927.048	1602.36
927.224	2128.69
927.401	1878.84
927.577	1884.98
927.754	1645.37
927.93	2208.56
928.107	2138.93
928.283	1655.61
928.459	1833.79
928.636	2040.63
928.812	1872.7
928.988	1592.13
929.165	1579.84
929.341	1936.18
929.517	1948.47
929.693	1989.43
929.87	1432.38
930.046	1899.32
930.222	1592.13
930.398	1612.6
930.574	1766.2
930.751	1874.74
930.927	1575.74
931.103	1706.81
931.279	1598.27
931.455	1753.91
931.631	1831.74
931.807	1422.14
931.983	1456.96
932.159	1428.29
932.335	1770.3
932.511	1596.22
932.687	1424.19
932.863	1829.69
933.039	1669.95
933.215	1407.81
933.391	1340.22
933.566	1682.24
933.742	1749.82
933.918	1416
934.094	1258.31
934.27	1753.91
934.445	1680.19
934.621	1606.46
934.797	1317.7
934.973	1921.85
935.148	1692.48
935.324	1303.36
935.5	1106.76
935.675	1774.39
935.851	1575.74
936.027	1356.61
936.202	1493.82
936.378	1628.99
936.553	1487.68
936.729	1690.43
936.904	1133.38
937.08	1160
937.255	1110.85
937.431	1145.67
937.606	985.93
937.782	1180.48
937.957	1243.97
938.133	1082.18
938.308	1063.75
938.483	1297.22
938.659	942.92
938.834	1104.71
939.009	926.54
939.185	1069.89
939.36	973.64
939.535	660.3
939.71	1184.58
939.886	1323.84
940.061	1295.17
940.236	953.16
940.411	938.82
940.586	1145.67
940.761	1336.13
940.937	1012.55
941.112	820.04
941.287	987.97
941.462	1055.56
941.637	793.42
941.812	785.23
941.987	1114.95
942.162	998.21
942.337	1012.55
942.512	879.43
942.687	1237.83
942.862	1217.35
943.037	660.3
943.212	447.31
943.386	885.58
943.561	1110.85
943.736	916.3
943.911	1092.42
944.086	1047.37
944.26	1080.13
944.435	731.98
944.61	856.9
944.785	1260.35
944.959	1446.72
945.134	834.38
945.309	748.36
945.483	758.6
945.658	1286.98
945.833	545.61
946.007	586.57
946.182	1432.38
946.357	672.59
946.531	707.4
946.706	674.64
946.88	695.11
947.055	977.73
947.229	660.3
947.404	688.97
947.578	1137.48
947.752	842.57
947.927	652.11
948.101	629.58
948.276	934.73
948.45	908.1
948.624	901.96
948.799	676.68
948.973	1055.56
949.147	637.77
949.321	711.5
949.496	752.46
949.67	1221.44
949.844	873.29
950.018	705.35
950.193	750.41
950.367	1370.94
950.541	930.63
950.715	838.47
950.889	924.49
951.063	797.51
951.237	1022.79
951.411	559.95
951.585	508.75
951.759	977.73
951.933	885.58
952.107	648.01
952.281	869.19
952.455	1278.79
952.629	1000.26
952.803	598.86
952.977	654.16
953.151	971.59
953.325	953.16
953.499	779.08
953.672	643.92
953.846	734.03
954.02	748.36
954.194	621.39
954.368	648.01
954.541	992.07
954.715	781.13
954.889	744.27
955.062	631.63
955.236	916.3
955.41	844.62
955.583	858.95
955.757	482.13
955.93	750.41
956.104	562
956.278	559.95
956.451	703.31
956.625	942.92
956.798	1344.32
956.972	836.42
957.145	641.87
957.319	854.86
957.492	885.58
957.665	768.84
957.839	656.2
958.012	994.12
958.185	842.57
958.359	664.4
958.532	893.77
958.705	1061.7
958.879	963.4
959.052	672.59
959.225	457.55
959.398	848.71
959.572	969.54
959.745	623.44
959.918	736.07
960.091	805.71
960.264	901.96
960.438	570.19
960.611	580.43
960.784	1024.84
960.957	742.22
961.13	994.12
961.303	633.68
961.476	813.9
961.649	1014.6
961.822	506.7
961.995	762.7
962.168	910.15
962.341	873.29
962.514	627.53
962.686	627.53
962.859	881.48
963.032	1012.55
963.205	670.54
963.378	508.75
963.551	959.3
963.723	975.69
963.896	783.18
964.069	758.6
964.242	879.43
964.414	996.17
964.587	668.49
964.76	691.02
964.932	856.9
965.105	744.27
965.278	629.58
965.45	625.48
965.623	760.65
965.795	893.77
965.968	693.07
966.14	574.28
966.313	850.76
966.485	914.25
966.658	514.89
966.83	504.65
967.003	1114.95
967.175	1125.19
967.348	631.63
967.52	684.87
967.692	1119.04
967.865	889.67
968.037	639.82
968.209	940.87
968.382	811.85
968.554	1059.65
968.726	680.78
968.898	609.1
969.071	824.14
969.243	885.58
969.415	629.58
969.587	598.86
969.759	1217.35
969.932	1108.8
970.104	594.76
970.276	389.97
970.448	770.89
970.62	711.5
970.792	709.45
970.964	676.68
971.136	1243.97
971.308	947.01
971.48	535.37
971.652	625.48
971.824	1135.43
971.996	746.31
972.168	641.87
972.339	680.78
972.511	1073.99
972.683	758.6
972.855	871.24
973.027	682.83
973.199	807.75
973.37	996.17
973.542	740.17
973.714	734.03
973.886	867.14
974.057	1022.79
974.229	557.9
974.401	521.04
974.572	555.85
974.744	432.97
974.915	494.41
975.087	574.28
975.259	1160
975.43	607.05
975.602	592.72
975.773	467.79
975.945	535.37
976.116	858.95
976.288	443.21
976.459	768.84
976.63	742.22
976.802	869.19
976.973	611.15
977.145	711.5
977.316	1121.09
977.487	1059.65
977.659	713.55
977.83	635.72
978.001	1147.72
978.172	875.34
978.344	586.57
978.515	537.42
978.686	568.14
978.857	1033.03
979.028	605
979.2	451.41
979.371	1020.74
979.542	766.79
979.713	738.12
979.884	183.12
980.055	543.57
980.226	572.24
980.397	547.66
980.568	414.54
980.739	926.54
980.91	695.11
981.081	664.4
981.252	482.13
981.423	936.78
981.594	906.06
981.765	365.39
981.936	713.55
982.106	813.9
982.277	934.73
982.448	535.37
982.619	727.88
982.79	746.31
982.96	1055.56
983.131	654.16
983.302	291.66
983.472	617.29
983.643	770.89
983.814	674.64
983.984	523.09
984.155	729.93
984.326	944.97
984.496	551.76
984.667	533.33
984.837	648.01
985.008	994.12
985.178	717.64
985.349	615.24
985.519	672.59
985.69	549.71
985.86	498.51
986.031	441.17
986.201	727.88
986.371	885.58
986.542	334.67
986.712	314.19
986.882	779.08
987.053	828.23
987.223	424.78
987.393	607.05
987.563	660.3
987.734	824.14
987.904	772.94
988.074	488.27
988.244	744.27
988.414	576.33
988.585	342.86
988.755	543.57
988.925	617.29
989.095	975.69
989.265	426.83
989.435	480.08
989.605	813.9
989.775	760.65
989.945	811.85
990.115	359.25
990.285	693.07
990.455	699.21
990.625	533.33
990.795	379.73
990.965	1071.94
991.134	502.61
991.304	435.02
991.474	377.68
991.644	703.31
991.814	912.2
991.984	297.81
992.153	320.34
992.323	609.1
992.493	684.87
992.662	201.55
992.832	592.72
993.002	695.11
993.171	688.97
993.341	215.89
993.511	557.9
993.68	486.22
993.85	791.37
994.019	273.23
994.189	322.38
994.358	699.21
994.528	516.94
994.697	103.25
994.867	330.58
995.036	688.97
995.206	508.75
995.375	402.26
995.544	564.04
995.714	754.51
995.883	521.04
996.052	580.43
996.222	115.54
996.391	1129.28
996.56	662.35
996.73	301.9
996.899	201.55
997.068	901.96
997.237	568.14
997.406	203.6
997.576	297.81
997.745	611.15
997.914	670.54
998.083	164.69
998.252	334.67
998.421	578.38
998.59	424.78
998.759	246.61
998.928	176.98
999.097	754.51
999.266	576.33
999.435	308.05
999.604	199.51
999.773	1076.04
999.942	525.13
1000.111	88.92
1000.28	103.25
1000.448	326.48
1000.617	252.75
1000.786	387.92
1000.955	201.55
1001.124	629.58
1001.292	1162.05
1001.461	283.47
1001.63	267.09
1001.798	920.39
1001.967	832.33
1002.136	148.31
1002.304	230.23
1002.473	578.38
1002.642	537.42
1002.81	320.34
1002.979	269.14
1003.147	652.11
1003.316	1094.47
1003.484	293.71
1003.653	224.08
1003.821	848.71
1003.99	498.51
1004.158	357.2
1004.327	297.81
1004.495	570.19
1004.663	310.1
1004.832	398.16
1005	133.97
1005.168	598.86
1005.337	584.52
1005.505	54.1
1005.673	394.06
1005.842	562
1006.01	619.34
1006.178	170.83
1006.346	183.12
1006.514	639.82
1006.683	723.79
1006.851	193.36
1007.019	74.58
1007.187	342.86
1007.355	52.05
1007.523	13.14
1007.691	74.58
1007.859	262.99
1008.027	770.89
1008.195	258.9
1008.363	41.81
1008.531	684.87
1008.699	389.97
1008.867	127.83
1009.035	158.55
1009.203	815.94
1009.37	449.36
1009.538	226.13
1009.706	541.52
1009.874	527.18
1010.042	369.49
1010.209	74.58
1010.377	47.96
1010.545	654.16
1010.713	506.7
1010.88	111.44
1011.048	228.18
1011.216	392.02
1011.383	729.93
1011.551	131.92
1011.718	74.58
1011.886	742.22
1012.054	437.07
1012.221	172.88
1012.389	127.83
1012.556	381.78
1012.724	891.72
1012.891	349.01
1013.058	4.95
1013.226	484.17
1013.393	631.63
1013.561	-87.21
1013.728	-154.79
1013.895	574.28
1014.063	557.9
1014.23	4.95
1014.397	138.07
1014.565	586.57
1014.732	349.01
1014.899	56.15
1015.066	93.01
1015.233	469.84
1015.401	527.18
1015.568	189.27
1015.735	211.79
1015.902	418.64
1016.069	498.51
1016.236	121.68
1016.403	37.72
1016.57	203.6
1016.737	580.43
1016.904	111.44
1017.071	76.63
1017.238	256.85
1017.405	631.63
1017.572	127.83
1017.739	267.09
1017.906	463.69
1018.073	596.81
1018.24	-48.3
1018.407	234.32
1018.573	656.2
1018.74	306
1018.907	138.07
1019.074	41.81
1019.241	574.28
1019.407	340.82
1019.574	76.63
1019.741	-13.48
1019.907	475.98
1020.074	553.8
1020.241	-179.37
1020.407	-101.55
1020.574	412.5
1020.74	451.41
1020.907	80.72
1021.073	0.85
1021.24	844.62
1021.406	715.59
1021.573	-38.06
1021.739	35.67
1021.906	539.47
1022.072	375.63
1022.239	72.53
1022.405	99.16
1022.571	486.22
1022.738	226.13
1022.904	31.57
1023.07	160.59
1023.237	355.15
1023.403	637.77
1023.569	13.14
1023.735	84.82
1023.902	451.41
1024.068	373.58
1024.234	-56.49
1024.4	19.29
1024.566	449.36
1024.732	574.28
1024.898	86.87
1025.065	-115.88
1025.231	600.91
1025.397	299.86
1025.563	21.33
1025.729	-23.72
1025.895	-17.58
1026.061	142.16
1026.227	-56.49
1026.392	-7.34
1026.558	615.24
1026.724	381.78
1026.89	-87.21
1027.056	45.91
1027.222	461.65
1027.388	238.42
1027.553	-7.34
1027.719	-36.01
1027.885	734.03
1028.051	439.12
1028.216	-193.7
1028.382	25.43
1028.548	627.53
1028.713	269.14
1028.879	-87.21
1029.045	144.21
1029.21	637.77
1029.376	510.8
1029.541	84.82
1029.707	95.06
1029.873	588.62
1030.038	502.61
1030.204	11.09
1030.369	-15.53
1030.534	523.09
1030.7	185.17
1030.865	47.96
1031.031	-58.54
1031.196	359.25
1031.361	432.97
1031.527	-21.67
1031.692	-3.24
1031.857	-25.77
1032.023	506.7
1032.188	-72.87
1032.353	52.05
1032.518	711.5
1032.684	381.78
1032.849	-122.02
1033.014	33.62
1033.179	531.28
1033.344	435.02
1033.509	133.97
1033.674	-72.87
1033.839	559.95
1034.004	514.89
1034.17	-89.26
1034.335	-109.74
1034.5	285.52
1034.664	117.59
1034.829	-58.54
1034.994	13.14
1035.159	467.79
1035.324	416.59
1035.489	52.05
1035.654	-101.55
1035.819	615.24
1035.984	392.02
1036.148	0.85
1036.313	117.59
1036.478	535.37
1036.643	291.66
1036.807	-81.07
1036.972	-99.5
1037.137	717.64
1037.301	316.24
1037.466	-208.04
1037.631	-31.91
1037.795	641.87
1037.96	332.62
1038.124	138.07
1038.289	-87.21
1038.454	469.84
1038.618	410.45
1038.783	21.33
1038.947	41.81
1039.111	342.86
1039.276	217.94
1039.44	-119.98
1039.605	422.73
1039.769	217.94
1039.933	252.75
1040.098	82.77
1040.262	213.84
1040.426	432.97
1040.591	445.26
1040.755	-27.82
1040.919	68.44
1041.083	363.34
1041.248	185.17
1041.412	-126.12
1041.576	-83.11
1041.74	306
1041.904	418.64
1042.068	-23.72
1042.232	-21.67
1042.397	404.3
1042.561	416.59
1042.725	-234.66
1042.889	125.78
1043.053	480.08
1043.217	451.41
1043.381	88.92
1043.544	-197.8
1043.708	557.9
1043.872	107.35
1044.036	-298.15
1044.2	-148.65
1044.364	650.06
1044.528	686.92
1044.691	4393.75
1044.855	-171.18
1045.019	504.65
1045.183	459.6
1045.346	93.01
1045.51	-91.31
1045.674	355.15
1045.837	469.84
1046.001	-60.59
1046.165	-130.22
1046.328	906.06
1046.492	324.43
1046.655	146.26
1046.819	-33.96
1046.983	152.4
1047.146	420.69
1047.31	66.39
1047.473	-162.98
1047.636	275.28
1047.8	97.11
1047.963	60.24
1048.127	-83.11
1048.29	144.21
