Data from Ink_Intensity_USB4F045381__1__00001.txt Node

Date: Mon Jul 17 09:21:09 EDT 2023
User: mmckonesweet
Spectrometer: USB4F04538
Trigger mode: 4
Integration Time (sec): 9.000000E-1
Scans to average: 1
Electric dark correction enabled: true
Nonlinearity correction enabled: false
Boxcar width: 0
XAxis mode: Wavelengths
Number of Pixels in Spectrum: 3648
>>>>>Begin Spectral Data<<<<<
345.52	-829.43
345.736	-829.43
345.952	-829.43
346.168	-868.34
346.384	-839.67
346.6	-141.31
346.816	-159.74
347.032	-135.17
347.248	180.22
347.464	-151.55
347.68	-69.63
347.896	75.77
348.112	346.11
348.328	-112.64
348.544	-100.35
348.76	12.29
348.975	256
349.191	-208.89
349.407	-18.43
349.623	10.24
349.839	24.58
350.055	57.34
350.27	231.42
350.486	229.37
350.702	509.94
350.918	348.15
351.133	22.53
351.349	139.26
351.565	350.2
351.781	-38.91
351.996	157.69
352.212	307.2
352.428	-79.87
352.644	-6.14
352.859	-81.92
353.075	337.91
353.291	88.06
353.506	122.88
353.722	-112.64
353.938	-10.24
354.153	428.03
354.369	215.04
354.584	-47.1
354.8	262.14
355.016	-223.23
355.231	6.14
355.447	124.93
355.662	204.8
355.878	1089.52
356.093	-104.45
356.309	141.31
356.524	-100.35
356.74	256
356.955	-2.05
357.171	165.89
357.386	172.03
357.602	-169.98
357.817	129.02
358.033	-51.2
358.248	409.59
358.464	88.06
358.679	4.1
358.895	-135.17
359.11	16.38
359.325	450.55
359.541	333.82
359.756	139.26
359.972	-169.98
360.187	81.92
360.402	-63.49
360.618	-83.97
360.833	901.11
361.048	172.03
361.264	-32.77
361.479	20.48
361.694	-28.67
361.909	221.18
362.125	24.58
362.34	108.54
362.555	319.48
362.77	122.88
362.986	-38.91
363.201	55.3
363.416	215.04
363.631	96.25
363.847	49.15
364.062	-26.62
364.277	315.39
364.492	260.09
364.707	124.93
364.922	-194.56
365.138	413.69
365.353	450.55
365.568	10.24
365.783	75.77
365.998	155.65
366.213	645.11
366.428	-122.88
366.643	137.21
366.858	401.4
367.073	323.58
367.288	57.34
367.503	-57.34
367.718	221.18
367.933	362.49
368.148	-94.21
368.363	169.98
368.578	30.72
368.793	509.94
369.008	26.62
369.223	-22.53
369.438	321.53
369.653	487.42
369.868	-10.24
370.083	26.62
370.298	141.31
370.513	550.9
370.728	249.85
370.943	124.93
371.157	2.05
371.372	618.49
371.587	-32.77
371.802	-22.53
372.017	116.73
372.232	552.95
372.446	229.37
372.661	-116.73
372.876	382.97
373.091	225.28
373.306	77.82
373.52	110.59
373.735	40.96
373.95	514.04
374.165	241.66
374.379	114.69
374.594	43.01
374.809	268.28
375.023	227.32
375.238	98.3
375.453	362.49
375.667	10.24
375.882	172.03
376.097	151.55
376.311	212.99
376.526	129.02
376.741	26.62
376.955	311.29
377.17	731.12
377.384	573.43
377.599	212.99
377.813	-8.19
378.028	681.97
378.242	307.2
378.457	120.83
378.672	-77.82
378.886	272.38
379.101	167.93
379.315	-34.82
379.53	81.92
379.744	419.83
379.958	387.07
380.173	141.31
380.387	110.59
380.602	280.57
380.816	51.2
381.031	192.51
381.245	129.02
381.459	448.51
381.674	2273.25
381.888	131.07
382.103	411.64
382.317	100.35
382.531	884.72
382.746	241.66
382.96	139.26
383.174	118.78
383.388	606.2
383.603	329.72
383.817	88.06
384.031	333.82
384.246	655.35
384.46	331.77
384.674	643.06
384.888	317.44
385.103	360.44
385.317	118.78
385.531	286.72
385.745	618.49
385.959	534.52
386.174	198.65
386.388	204.8
386.602	249.85
386.816	104.45
387.03	305.15
387.244	284.67
387.458	327.67
387.672	585.72
387.887	118.78
388.101	129.02
388.315	606.2
388.529	423.93
388.743	339.96
388.957	151.55
389.171	657.4
389.385	147.45
389.599	321.53
389.813	538.62
390.027	448.51
390.241	989.17
390.455	350.2
390.669	360.44
390.883	333.82
391.097	770.04
391.311	559.1
391.525	272.38
391.738	575.48
391.952	466.94
392.166	417.79
392.38	253.95
392.594	591.86
392.808	655.35
393.022	473.08
393.236	403.45
393.449	501.75
393.663	655.35
393.877	282.62
394.091	415.74
394.305	337.91
394.518	317.44
394.732	251.9
394.946	397.31
395.16	845.81
395.373	382.97
395.587	296.96
395.801	391.16
396.015	894.96
396.228	602.1
396.442	256
396.656	217.08
396.869	770.04
397.083	776.18
397.297	507.9
397.51	389.11
397.724	829.43
397.938	714.74
398.151	219.13
398.365	380.92
398.578	632.82
398.792	899.06
399.005	600.05
399.219	444.41
399.433	593.91
399.646	649.21
399.86	573.43
400.073	614.39
400.287	641.01
400.5	546.81
400.714	632.82
400.927	632.82
401.141	688.12
401.354	1466.35
401.567	784.37
401.781	468.98
401.994	923.63
402.208	1038.32
402.421	456.7
402.635	528.38
402.848	641.01
403.061	823.28
403.275	673.78
403.488	473.08
403.701	1064.94
403.915	841.72
404.128	686.07
404.341	575.48
404.555	753.65
404.768	673.78
404.981	696.31
405.195	401.4
405.408	1157.1
405.621	919.54
405.834	753.65
406.048	595.96
406.261	1064.94
406.474	1191.92
406.687	583.67
406.9	755.7
407.114	688.12
407.327	718.84
407.54	491.51
407.753	516.09
407.966	559.1
408.179	948.21
408.392	550.9
408.605	452.6
408.819	839.67
409.032	933.87
409.245	477.18
409.458	892.91
409.671	987.12
409.884	935.92
410.097	589.81
410.31	921.59
410.523	882.67
410.736	792.56
410.949	698.36
411.162	753.65
411.375	1296.36
411.588	1064.94
411.801	915.44
412.014	694.26
412.227	825.33
412.44	800.76
412.653	743.41
412.865	862.19
413.078	1091.57
413.291	1046.51
413.504	839.67
413.717	761.84
413.93	1048.56
414.143	677.88
414.356	819.19
414.568	645.11
414.781	1140.72
414.994	1040.37
415.207	892.91
415.42	950.26
415.632	1153.01
415.845	1445.87
416.058	751.6
416.271	704.5
416.483	948.21
416.696	1361.9
416.909	876.53
417.121	792.56
417.334	1255.4
417.547	1533.93
417.759	966.64
417.972	890.87
418.185	911.35
418.397	1226.73
418.61	851.96
418.823	954.35
419.035	1417.19
419.248	1099.76
419.46	1050.61
419.673	1064.94
419.885	1325.04
420.098	1015.79
420.311	1083.38
420.523	876.53
420.736	1247.21
420.948	1083.38
421.161	985.07
421.373	937.97
421.586	1275.88
421.798	1075.18
422.01	983.02
422.223	1179.63
422.435	999.41
422.648	1351.66
422.86	1157.1
423.073	1036.27
423.285	1488.87
423.497	1161.2
423.71	1181.68
423.922	1124.33
424.134	1339.37
424.347	1476.59
424.559	1310.7
424.771	1503.21
424.984	1193.97
425.196	1284.08
425.408	997.36
425.621	1058.8
425.833	1658.85
426.045	1587.18
426.257	1230.83
426.47	1230.83
426.682	1644.52
426.894	1492.97
427.106	1359.85
427.318	1290.22
427.531	1206.25
427.743	1626.09
427.955	1288.17
428.167	1533.93
428.379	1679.33
428.591	1546.22
428.804	1476.59
429.016	1337.32
429.228	1447.91
429.44	1550.31
429.652	1667.05
429.864	1331.18
430.076	1490.92
430.288	1501.16
430.5	1509.35
430.712	1656.81
430.924	1972.19
431.136	1466.35
431.348	1394.67
431.56	1492.97
431.772	1648.61
431.984	1490.92
432.196	1449.96
432.408	1669.09
432.62	1552.36
432.832	1824.74
433.044	1814.5
433.256	1695.72
433.468	1892.32
433.679	1540.07
433.891	1521.64
434.103	1834.98
434.315	2039.78
434.527	1884.13
434.739	1755.11
434.95	1732.58
435.162	2029.54
435.374	1796.07
435.586	1800.16
435.798	1765.35
436.009	1658.85
436.221	1873.89
436.433	1826.79
436.645	1763.3
436.856	1699.81
437.068	2220
437.28	1705.96
437.491	2148.32
437.703	1978.34
437.915	2000.87
438.126	1882.08
438.338	2033.63
438.55	2072.54
438.761	2181.09
438.973	2088.93
439.184	1943.52
439.396	2121.7
439.608	2260.96
439.819	1849.32
440.031	2099.17
440.242	2181.09
440.454	2238.43
440.665	2131.94
440.877	2285.53
441.088	2283.49
441.3	2105.31
441.511	1898.47
441.723	1994.72
441.934	2308.06
442.146	2260.96
442.357	2367.45
442.569	2402.27
442.78	2222.05
442.991	2674.65
443.203	2482.14
443.414	2119.65
443.626	2641.88
443.837	2351.07
444.048	2220
444.26	2136.03
444.471	2392.03
444.682	2555.86
444.894	2039.78
445.105	2142.18
445.316	2508.76
445.528	2539.48
445.739	2381.79
445.95	2508.76
446.161	2457.56
446.373	2713.56
446.584	2373.6
446.795	2451.42
447.006	2635.74
447.217	2951.12
447.429	2228.19
447.64	2363.36
447.851	2631.64
448.062	2670.55
448.273	2281.44
448.484	2447.32
448.695	2674.65
448.907	2580.44
449.118	2527.19
449.329	2703.32
449.54	2475.99
449.751	2516.95
449.962	2566.1
450.173	2519
450.384	2985.94
450.595	3055.57
450.806	2760.66
451.017	2715.61
451.228	2963.41
451.439	3008.47
451.65	2787.29
451.861	2580.44
452.072	2551.77
452.283	2746.33
452.494	2863.06
452.705	2752.47
452.915	3213.26
453.126	3053.52
453.337	2772.95
453.548	2844.63
453.759	3289.04
453.97	3524.55
454.181	3045.33
454.391	2987.99
454.602	3200.98
454.813	3319.76
455.024	3084.24
455.235	2969.55
455.445	3147.73
455.656	3270.61
455.867	3172.3
456.078	3047.38
456.288	2940.88
456.499	3162.06
456.71	3155.92
456.921	3383.24
457.131	3383.24
457.342	3338.19
457.553	3270.61
457.763	3129.3
457.974	3536.84
458.184	3633.1
458.395	3299.28
458.606	3360.72
458.816	3729.35
459.027	4046.79
459.237	3581.9
459.448	3280.85
459.659	3719.11
459.869	4276.16
460.08	3319.76
460.29	3964.87
460.501	4204.48
460.711	3755.97
460.922	3504.07
461.132	3858.37
461.343	4499.39
461.553	3719.11
461.764	3831.75
461.974	3696.58
462.184	3981.25
462.395	4114.37
462.605	4065.22
462.816	3790.79
463.026	4167.62
463.236	4470.72
463.447	4026.31
463.657	4153.28
463.867	4394.94
464.078	4317.12
464.288	4360.13
464.498	4306.88
464.709	4421.56
464.919	4405.18
465.129	4460.48
465.339	4384.7
465.55	4644.79
465.76	4618.17
465.97	4536.25
466.18	4644.79
466.391	5066.67
466.601	5087.15
466.811	4800.44
467.021	4581.31
467.231	5099.44
467.441	5113.78
467.651	5054.39
467.862	4663.22
468.072	5322.67
468.282	5545.9
468.492	5093.3
468.702	5144.5
468.912	5392.3
469.122	5906.34
469.332	5574.57
469.542	5212.08
469.752	5752.74
469.962	5787.56
470.172	5513.13
470.382	5625.77
470.592	5769.13
470.802	6168.48
471.012	5767.08
471.222	5859.24
471.432	6311.84
471.642	6340.51
471.852	6145.95
472.062	5924.77
472.272	6162.34
472.482	6137.76
472.691	6236.06
472.901	6100.9
473.111	6573.98
473.321	7151.51
473.531	6553.5
473.741	6848.41
473.95	6903.7
474.16	6985.62
474.37	6940.57
474.58	6985.62
474.79	7481.23
474.999	7317.39
475.209	6905.75
475.419	7212.95
475.628	7391.12
475.838	7464.85
476.048	7497.61
476.258	7276.43
476.467	8112
476.677	7769.99
476.886	8054.66
477.096	8167.3
477.306	7796.62
477.515	8210.31
477.725	8161.16
477.935	8195.97
478.144	8527.74
478.354	8236.93
478.563	8646.52
478.773	8630.14
478.982	8808.31
479.192	9095.03
479.401	8759.16
479.611	8640.38
479.82	8720.25
480.03	9013.11
480.239	8935.29
480.449	9027.45
480.658	9930.6
480.868	9422.7
481.077	9578.35
481.287	9404.27
481.496	9717.61
481.705	10159.97
481.915	9754.48
482.124	9795.43
482.333	9930.6
482.543	10311.52
482.752	10033
482.961	10084.2
483.171	10356.58
483.38	10284.9
483.589	10575.71
483.799	10332
484.008	10616.67
484.217	10872.67
484.426	10788.7
484.636	10727.26
484.845	10727.26
485.054	10768.22
485.263	11464.53
485.472	11063.13
485.682	11534.16
485.891	11300.69
486.1	11216.72
486.309	11192.15
486.518	11794.25
486.727	11769.68
486.936	11698
487.146	11665.23
487.355	12091.21
487.564	11788.11
487.773	11984.71
487.982	11999.05
488.191	12062.54
488.4	12302.15
488.609	12083.02
488.818	12332.87
489.027	13043.51
489.236	12912.44
489.445	12738.37
489.654	12541.76
489.863	13131.58
490.072	12928.83
490.281	13268.79
490.49	12900.16
490.698	13465.39
490.907	13326.13
491.116	13453.11
491.325	13082.42
491.534	13528.88
491.743	13684.53
491.952	13387.57
492.16	13631.28
492.369	13815.6
492.578	13940.52
492.787	13942.57
492.996	13739.82
493.204	13913.9
493.413	14526.24
493.622	14053.16
493.831	14001.96
494.039	14706.46
494.248	14159.66
494.457	14352.16
494.665	14102.31
494.874	14579.49
495.083	14851.87
495.291	14780.19
495.5	14794.53
495.709	15017.75
495.917	15189.78
496.126	14976.8
496.335	14933.79
496.543	15120.15
496.752	15167.26
496.96	15513.36
497.169	15001.37
497.377	15449.88
497.586	15941.39
497.794	15818.51
498.003	15421.2
498.211	15744.78
498.42	16035.6
498.628	15736.59
498.837	15793.93
499.045	16264.97
499.254	16115.47
499.462	15943.44
499.671	16111.37
499.879	16563.97
500.087	16715.52
500.296	16430.85
500.504	16324.36
500.713	16434.95
500.921	17096.44
501.129	16101.13
501.338	16547.59
501.546	16699.14
501.754	16508.68
501.962	16779.01
502.171	16588.55
502.379	17241.85
502.587	17321.72
502.795	16979.71
503.004	16840.45
503.212	17233.66
503.42	17526.52
503.628	17039.1
503.837	17241.85
504.045	17716.98
504.253	17934.06
504.461	17280.76
504.669	16981.76
504.877	17950.45
505.085	18151.15
505.294	17714.93
505.502	17655.54
505.71	17878.77
505.918	18024.17
506.126	18005.74
506.334	17770.22
506.542	18036.46
506.75	18063.08
506.958	17874.67
507.166	17889.01
507.374	17948.4
507.582	18747.11
507.79	18149.1
507.998	18482.92
508.206	18337.51
508.414	18476.77
508.622	18601.7
508.83	18390.76
509.037	18925.28
509.245	18417.38
509.453	18306.79
509.661	18761.44
509.869	18906.85
510.077	18919.14
510.285	18933.47
510.492	18540.26
510.7	19621.59
510.908	19095.26
511.116	18937.57
511.324	18951.9
511.531	19494.61
511.739	19367.64
511.947	19492.57
512.155	19488.47
512.362	19302.11
512.57	19349.21
512.778	19424.98
512.985	19277.53
513.193	19691.22
513.401	20057.81
513.608	19947.22
513.816	19924.69
514.024	19850.96
514.231	19992.27
514.439	19525.33
514.646	19748.56
514.854	20006.61
515.061	20072.14
515.269	20240.08
515.477	20180.68
515.684	19816.15
515.892	20778.69
516.099	19846.87
516.307	20162.25
516.514	20717.25
516.722	20686.53
516.929	20764.36
517.136	20274.89
517.344	20950.72
517.551	20563.65
517.759	20815.55
517.966	20764.36
518.173	20702.92
518.381	21028.54
518.588	21130.94
518.796	20876.99
519.003	21135.04
519.21	21155.52
519.418	21010.11
519.625	21128.89
519.832	21122.75
520.039	21493.43
520.247	21153.47
520.454	21380.79
520.661	21851.83
520.868	21382.84
521.076	21692.08
521.283	21442.23
521.49	22161.07
521.697	21755.57
521.904	21757.62
522.112	21497.53
522.319	22077.1
522.526	21757.62
522.733	21939.89
522.94	21958.32
523.147	21814.96
523.354	22267.56
523.561	22030
523.768	22388.39
523.975	22527.66
524.183	22513.32
524.39	22199.98
524.597	21978.8
524.804	22773.41
525.011	22537.9
525.218	22423.21
525.425	22916.77
525.632	23086.75
525.838	22787.75
526.045	22445.74
526.252	22537.9
526.459	23684.76
526.666	23750.29
526.873	22869.67
527.08	22916.77
527.287	23473.82
527.494	23160.48
527.701	23017.12
527.907	22929.06
528.114	23475.87
528.321	23342.75
528.528	23453.34
528.735	23875.22
528.941	23738.01
529.148	23086.75
529.355	23342.75
529.562	22986.4
529.768	24069.78
529.975	23389.85
530.182	23547.54
530.388	23404.19
530.595	24149.65
530.802	23895.7
531.008	24225.42
531.215	24131.22
531.422	25017.99
531.628	24831.62
531.835	24116.88
532.042	24362.64
532.248	24493.71
532.455	24802.95
532.661	24493.71
532.868	24600.2
533.074	24841.86
533.281	24934.02
533.487	24686.22
533.694	24589.96
533.9	25011.84
534.107	24727.17
534.313	24635.02
534.52	24925.83
534.726	25497.21
534.933	25544.31
535.139	25060.99
535.345	24721.03
535.552	25118.34
535.758	25624.18
535.965	25192.06
536.171	25382.52
536.377	25437.82
536.584	25890.42
536.79	25646.71
536.996	25685.62
537.203	25835.13
537.409	25783.93
537.615	25863.8
537.821	25861.75
538.028	26508.91
538.234	25986.68
538.44	25753.21
538.646	26209.9
538.853	26513
539.059	26011.25
539.265	26533.48
539.471	25888.37
539.677	26435.18
539.883	26357.36
540.09	26111.6
540.296	26781.29
540.502	26707.56
540.708	26377.84
540.914	26834.53
541.12	26689.13
541.326	27231.84
541.532	26973.8
541.738	27235.94
541.944	26777.19
542.15	27610.71
542.356	27168.35
542.562	27428.45
542.768	27047.52
542.974	28145.23
543.18	28169.81
543.386	27197.02
543.592	27410.01
543.798	27659.87
544.004	28167.76
544.21	27393.63
544.415	27508.32
544.621	28053.08
544.827	28005.97
545.033	27563.61
545.239	27952.73
545.445	27711.07
545.651	27848.28
545.856	28042.84
546.062	28212.82
546.268	27776.6
546.474	27788.89
546.679	27805.27
546.885	28233.3
547.091	28452.43
547.297	28520.01
547.502	28126.8
547.708	27792.98
547.914	28249.68
548.119	28771.91
548.325	28241.49
548.531	28018.26
548.736	28999.24
548.942	27891.29
549.147	28024.4
549.353	29216.32
549.559	28900.93
549.764	29081.16
549.97	28689.99
550.175	28704.33
550.381	29146.69
550.586	28794.44
550.792	28857.93
550.997	29017.67
551.203	28927.56
551.408	29337.15
551.614	29210.18
551.819	29460.03
552.025	29943.35
552.23	30021.17
552.435	29408.83
552.641	30142
552.846	29339.2
553.052	30090.8
553.257	29812.28
553.462	29926.97
553.668	29703.74
553.873	30039.61
554.078	29812.28
554.283	30125.62
554.489	30395.95
554.694	30330.42
554.899	30131.76
555.105	30256.69
555.31	30518.83
555.515	30891.56
555.72	30531.12
555.925	30330.42
556.131	30291.51
556.336	30567.98
556.541	30572.08
556.746	30266.93
556.951	31059.49
557.156	30938.66
557.361	30678.57
557.567	30778.92
557.772	31274.53
557.977	30729.77
558.182	30819.88
558.387	30864.94
558.592	31114.79
558.797	31458.85
559.002	31034.92
559.207	30899.75
559.412	31262.24
559.617	30926.38
559.822	31086.12
560.027	31190.56
560.232	31526.43
560.437	31188.52
560.642	30881.32
560.847	31512.1
561.051	31354.4
561.256	31354.4
561.461	31510.05
561.666	31155.75
561.871	31534.62
562.076	31421.98
562.281	31667.74
562.485	30879.27
562.69	31669.79
562.895	31815.19
563.1	31467.04
563.305	31260.19
563.509	32136.73
563.714	32415.25
563.919	31618.59
564.123	31534.62
564.328	31847.96
564.533	32110.1
564.737	31692.32
564.942	31860.25
565.147	32497.17
565.351	32970.25
565.556	32079.38
565.761	32400.91
565.965	31835.67
566.17	31868.44
566.374	32085.53
566.579	31936.02
566.784	32216.6
566.988	32345.62
567.193	31868.44
567.397	32269.84
567.602	32136.73
567.806	32159.25
568.011	32337.43
568.215	33091.08
568.42	32353.81
568.624	32574.99
568.828	32409.11
569.033	32433.68
569.237	33050.12
569.442	33009.16
569.646	32351.76
569.85	32767.5
570.055	33580.54
570.259	33207.81
570.463	32964.1
570.668	32998.92
570.872	33117.7
571.076	33121.8
571.281	33105.41
571.485	33238.53
571.689	33385.99
571.893	33611.26
572.098	33363.46
572.302	33529.34
572.506	33883.64
572.71	33355.27
572.914	33506.82
573.119	33474.05
573.323	34070.01
573.527	34070.01
573.731	33545.73
573.935	33527.3
574.139	34209.27
574.343	33515.01
574.547	33883.64
574.751	34008.57
574.955	34209.27
575.159	34336.24
575.364	33660.41
575.568	33852.92
575.772	34528.75
575.976	34708.97
576.18	33822.2
576.383	34196.98
576.587	34586.1
576.791	34647.54
576.995	33928.7
577.199	34311.67
577.403	34514.42
577.607	35190.25
577.811	34317.81
578.015	34438.64
578.219	34901.48
578.422	34758.13
578.626	34418.16
578.83	34967.02
579.034	34909.68
579.238	34917.87
579.442	34973.16
579.645	35450.34
579.849	34774.51
580.053	35003.88
580.257	35110.38
580.46	35302.89
580.664	35212.77
580.868	35151.34
581.071	35229.16
581.275	35139.05
581.479	34854.38
581.682	35032.55
581.886	34991.59
582.09	35104.23
582.293	35804.64
582.497	35702.24
582.7	35474.91
582.904	35524.07
583.107	35831.26
583.311	35710.43
583.515	35778.01
583.718	35247.59
583.922	36117.98
584.125	35993.05
584.329	35653.09
584.532	35784.16
584.735	35769.82
584.939	35816.93
585.142	35710.43
585.346	35800.54
585.549	36365.78
585.753	35950.04
585.956	35927.52
586.159	36384.21
586.363	37139.91
586.566	36525.52
586.769	35909.08
586.973	36103.64
587.176	36447.7
587.379	36703.7
587.582	36709.84
587.786	36351.45
587.989	36546
588.192	36967.88
588.395	36693.46
588.599	36863.44
588.802	37172.68
589.005	36615.63
589.208	36732.37
589.411	36947.4
589.615	37301.7
589.818	37389.77
590.021	37207.5
590.224	37131.72
590.427	37328.33
590.63	37336.52
590.833	37256.65
591.036	37481.92
591.239	37834.17
591.442	37561.79
591.645	37666.24
591.848	37959.1
592.051	37744.06
592.254	37549.51
592.457	37277.13
592.66	37733.82
592.863	37813.69
593.066	38112.7
593.269	38067.64
593.472	38002.11
593.675	38227.38
593.878	38165.95
594.081	38067.64
594.284	37776.83
594.486	38559.16
594.689	38430.13
594.892	38303.16
595.095	38454.71
595.298	38378.93
595.5	38241.72
595.703	38432.18
595.906	38352.31
596.109	38751.66
596.311	39095.72
596.514	38288.82
596.717	38587.83
596.92	39341.48
597.122	38960.56
597.325	38374.84
597.528	38526.39
597.73	39316.9
597.933	38596.02
598.136	38813.1
598.338	38333.88
598.541	39517.6
598.743	39470.5
598.946	38843.82
599.148	39034.28
599.351	39503.27
599.554	39427.49
599.756	39222.7
599.959	39730.59
600.161	39630.24
600.363	40228.25
600.566	39284.14
600.768	39390.63
600.971	39755.17
601.173	39437.73
601.376	39048.62
601.578	39380.39
601.78	39234.99
601.983	40179.1
602.185	39337.38
602.388	39558.56
602.59	39515.56
602.792	39439.78
602.995	39779.74
603.197	39744.93
603.399	39900.58
603.601	39959.97
603.804	39519.65
604.006	39695.78
604.208	39691.68
604.41	39533.99
604.613	39974.3
604.815	39945.63
605.017	40883.6
605.219	39718.31
605.421	39990.69
605.623	39841.18
605.826	40476.05
606.028	40048.03
606.23	40050.08
606.432	40334.74
606.634	40924.56
606.836	40324.5
607.038	39978.4
607.24	40005.02
607.442	40197.53
607.644	40121.76
607.846	40062.36
608.048	40107.42
608.25	40144.28
608.452	39892.38
608.654	39873.95
608.856	39982.49
609.058	40406.42
609.26	40709.52
609.462	40267.16
609.664	40457.62
609.866	40674.71
610.067	41108.88
610.269	40687
610.471	40275.35
610.673	40844.69
610.875	40666.52
611.077	40218.01
611.278	40424.86
611.48	40301.98
611.682	41145.74
611.884	40691.09
612.085	40390.04
612.287	40318.36
612.489	40531.35
612.69	40639.89
612.892	41121.16
613.094	41065.87
613.295	40785.3
613.497	40742.29
613.699	40564.12
613.9	41172.36
614.102	41055.63
614.304	40736.15
614.505	40545.69
614.707	41278.86
614.908	41127.31
615.11	40965.52
615.311	40693.14
615.513	41012.62
615.714	41321.87
615.916	40813.97
616.117	40809.87
616.319	41168.27
616.52	41250.19
616.722	40615.32
616.923	41006.48
617.124	41350.54
617.326	41000.33
617.527	41192.84
617.729	40850.83
617.93	41158.03
618.131	41481.61
618.333	40605.08
618.534	40643.99
618.735	41299.34
618.937	41383.3
619.138	40861.07
619.339	41106.83
619.54	41221.51
619.742	41493.89
619.943	41301.39
620.144	41147.79
620.345	41516.42
620.546	41201.04
620.748	40730
620.949	40955.28
621.15	41405.83
621.351	40865.17
621.552	41094.54
621.753	40607.12
621.954	41192.84
622.155	41106.83
622.356	40914.32
622.558	41135.5
622.759	41602.44
622.96	41422.22
623.161	40834.45
623.362	41262.47
623.563	41325.96
623.764	41348.49
623.965	40953.23
624.166	41672.07
624.366	41168.27
624.567	41512.33
624.768	41225.61
624.969	41430.41
625.17	41325.96
625.371	41729.41
625.572	41055.63
625.773	41258.38
625.973	41885.06
626.174	41784.71
626.375	41735.56
626.576	41276.81
626.777	41821.57
626.977	41760.13
627.178	41479.56
627.379	41524.61
627.58	41209.23
627.78	41883.01
627.981	41516.42
628.182	41971.07
628.382	41868.67
628.583	41508.23
628.784	41495.94
628.984	41581.96
629.185	42061.18
629.386	41784.71
629.586	41678.21
629.787	41500.04
629.987	42063.23
630.188	42007.93
630.388	41753.99
630.589	41610.63
630.79	42726.77
630.99	42110.33
631.191	42044.8
631.391	41954.69
631.591	41938.3
631.792	42362.23
631.992	42167.68
632.193	41979.26
632.393	42073.47
632.594	41735.56
632.794	42091.9
632.994	42534.26
633.195	42339.71
633.395	42712.44
633.595	41778.56
633.796	42276.22
633.996	42405.24
634.196	42333.56
634.397	42341.75
634.597	41962.88
634.797	42208.64
634.997	42605.94
635.198	42734.96
635.398	41934.21
635.598	42421.62
635.798	42519.93
635.998	42241.4
636.199	42028.41
636.399	42444.15
636.599	42225.02
636.799	41946.5
636.999	42397.05
637.199	42782.07
637.399	42665.33
637.599	42509.69
637.799	42073.47
637.999	42728.82
638.199	43068.78
638.399	42491.26
638.599	42235.26
638.799	42157.44
638.999	43134.32
639.199	42675.57
639.399	42904.95
639.599	43390.31
639.799	42294.65
639.999	42513.78
640.199	42481.02
640.399	42939.76
640.599	42233.21
640.799	43492.71
640.998	43097.45
641.198	42925.42
641.398	43158.89
641.598	43234.67
641.798	43300.2
641.997	43779.43
642.197	42972.53
642.397	43359.59
642.597	43113.84
642.796	43111.79
642.996	43396.46
643.196	42706.29
643.395	42980.72
643.595	43095.41
643.795	42634.61
643.994	42720.63
644.194	42841.46
644.394	43396.46
644.593	43138.41
644.793	43173.23
644.992	43287.92
645.192	43576.68
645.392	43167.09
645.591	43412.84
645.791	43355.5
645.99	43515.24
646.19	43283.82
646.389	43384.17
646.589	43674.98
646.788	44029.28
646.987	43793.76
647.187	44094.82
647.386	43687.27
647.586	43644.26
647.785	43826.53
647.984	43689.32
648.184	43619.69
648.383	43988.32
648.582	43912.55
648.782	43988.32
648.981	43410.79
649.18	43384.17
649.38	43912.55
649.579	43707.75
649.778	43023.73
649.977	43969.89
650.177	43670.89
650.376	43404.65
650.575	43478.38
650.774	44068.19
650.973	43722.08
651.173	43472.23
651.372	43576.68
651.571	43486.57
651.77	43750.76
651.969	43844.96
652.168	43416.94
652.367	43427.18
652.566	43955.55
652.765	43509.1
652.964	43959.65
653.163	44193.12
653.362	44094.82
653.561	43208.04
653.76	43539.82
653.959	43375.98
654.158	45061.46
654.357	44127.58
654.556	43650.41
654.755	43746.66
654.954	43967.84
655.153	43750.76
655.352	43984.22
655.551	44281.18
655.749	44252.51
655.948	44031.33
656.147	44039.52
656.346	43945.31
656.545	43756.9
656.743	43619.69
656.942	43855.2
657.141	44371.29
657.34	43855.2
657.538	44043.62
657.737	43939.17
657.936	43928.93
658.135	44172.64
658.333	44105.05
658.532	44158.3
658.731	44768.6
658.929	44232.03
659.128	44023.14
659.326	43548.01
659.525	44182.88
659.724	44176.73
659.922	44049.76
660.121	43656.55
660.319	44275.04
660.518	44311.9
660.716	44385.63
660.915	44279.13
661.113	44481.88
661.312	43957.6
661.51	44555.61
661.709	44440.92
661.907	44647.77
662.105	45165.9
662.304	44148.06
662.502	44680.53
662.701	45262.16
662.899	44592.47
663.097	44645.72
663.296	43793.76
663.494	44696.92
663.692	44954.96
663.891	43937.12
664.089	44092.77
664.287	44506.46
664.485	44592.47
664.684	44283.23
664.882	44027.23
665.08	43961.7
665.278	44553.56
665.476	44293.47
665.675	44494.17
665.873	44733.78
666.071	44348.76
666.269	44014.94
666.467	44653.91
666.665	44461.4
666.863	44217.69
667.061	44393.82
667.259	44752.21
667.457	44782.93
667.655	44807.51
667.853	44856.66
668.051	44287.32
668.249	44412.25
668.447	44463.45
668.645	44143.97
668.843	44596.57
669.041	44903.76
669.239	44217.69
669.437	44264.8
669.635	44633.43
669.833	44473.69
670.031	44658.01
670.229	44125.53
670.426	44176.73
670.624	43785.57
670.822	43994.46
671.02	44289.37
671.218	43996.51
671.415	43756.9
671.613	44139.87
671.811	44109.15
672.009	44215.65
672.206	44819.8
672.404	44092.77
672.602	43564.39
672.799	43890.02
672.997	44350.81
673.195	44445.02
673.392	44461.4
673.59	43693.41
673.788	43861.35
673.985	43681.13
674.183	44227.93
674.38	43869.54
674.578	44578.14
674.775	44037.47
674.973	43664.74
675.17	43824.48
675.368	43832.68
675.565	44012.9
675.763	44107.1
675.96	43709.8
676.158	44176.73
676.355	43756.9
676.553	44506.46
676.75	43853.15
676.947	44571.99
677.145	43930.98
677.342	44293.47
677.539	43988.32
677.737	43773.28
677.934	43920.74
678.131	43564.39
678.329	43748.71
678.526	43668.84
678.723	43670.89
678.92	44268.89
679.118	43658.6
679.315	43461.99
679.512	44246.36
679.709	43617.64
679.906	43556.2
680.104	43844.96
680.301	43699.56
680.498	43634.02
680.695	43265.39
680.892	43687.27
681.089	43416.94
681.286	43810.15
681.483	42419.58
681.68	43715.94
681.877	43519.34
682.075	43588.97
682.272	43543.91
682.469	43707.75
682.665	43093.36
682.862	43011.44
683.059	43158.89
683.256	43203.95
683.453	43353.45
683.65	43087.21
683.847	43421.03
684.044	43165.04
684.241	42851.7
684.438	43621.73
684.635	42687.86
684.831	43461.99
685.028	43470.18
685.225	42759.54
685.422	42798.45
685.619	42741.11
685.815	42929.52
686.012	42921.33
686.209	42808.69
686.405	42775.92
686.602	43228.52
686.799	42659.19
686.996	42847.6
687.192	42925.42
687.389	43298.16
687.586	42651
687.782	42810.74
687.979	43062.64
688.175	43390.31
688.372	42882.42
688.568	43062.64
688.765	42552.69
688.962	43402.6
689.158	42843.51
689.355	42431.86
689.551	42792.31
689.748	42270.07
689.944	42290.55
690.14	41973.12
690.337	42552.69
690.533	42677.62
690.73	41627.01
690.926	42732.92
691.123	42132.86
691.319	42446.2
691.515	42278.27
691.712	42333.56
691.908	42331.51
692.104	42356.09
692.301	41928.06
692.497	41954.69
692.693	42315.13
692.889	42351.99
693.086	42003.84
693.282	41557.38
693.478	42130.81
693.674	42098.05
693.87	42061.18
694.067	41741.7
694.263	41872.77
694.459	41758.08
694.655	41532.81
694.851	42022.27
695.047	42184.06
695.243	42175.87
695.439	41915.78
695.635	41848.19
695.831	42261.88
696.027	41796.99
696.224	41733.51
696.42	41971.07
696.615	42679.67
696.811	42407.29
697.007	41610.63
697.203	41735.56
697.399	41749.89
697.595	41700.74
697.791	41225.61
697.987	41547.14
698.183	41557.38
698.379	41045.39
698.575	41573.77
698.77	41080.21
698.966	41584.01
699.162	41803.14
699.358	41352.58
699.554	41325.96
699.749	42102.14
699.945	41637.25
700.141	41426.31
700.337	41424.26
700.532	41119.12
700.728	41190.8
700.924	40828.3
701.119	41045.39
701.315	41119.12
701.511	40713.62
701.706	41094.54
701.902	40691.09
702.097	40938.9
702.293	41209.23
702.489	40652.18
702.684	41031.05
702.88	41090.44
703.075	40975.76
703.271	41176.46
703.466	40807.83
703.662	40859.02
703.857	41213.32
704.053	40887.7
704.248	40906.13
704.443	41303.43
704.639	41422.22
704.834	41321.87
705.03	40611.22
705.225	41135.5
705.42	41317.77
705.616	41233.8
705.811	40662.42
706.006	40752.53
706.202	40807.83
706.397	40441.24
706.592	40459.67
706.787	40218.01
706.983	40525.21
707.178	40850.83
707.373	40471.96
707.568	40482.2
707.763	40512.92
707.959	40727.95
708.154	40576.4
708.349	40525.21
708.544	41186.7
708.739	40199.58
708.934	40177.05
709.129	40232.35
709.324	40150.43
709.519	40439.19
709.714	40635.8
709.909	40816.02
710.104	40025.5
710.299	40371.61
710.494	40359.32
710.689	40193.43
710.884	40244.63
711.079	40351.13
711.274	39947.68
711.469	40385.94
711.664	40332.7
711.859	40287.64
712.054	40402.33
712.249	40244.63
712.443	40236.44
712.638	40045.98
712.833	39804.32
713.028	40365.46
713.223	39966.11
713.417	39990.69
713.612	40338.84
713.807	40752.53
714.002	40486.29
714.196	40490.39
714.391	40543.64
714.586	40586.64
714.78	40256.92
714.975	40154.52
715.17	39691.68
715.364	40449.43
715.559	40627.6
715.754	39366.06
715.948	39718.31
716.143	40385.94
716.337	39806.37
716.532	40236.44
716.726	39816.61
716.921	39450.02
717.115	39767.46
717.31	39038.38
717.504	40097.18
717.699	39325.1
717.893	39058.86
718.088	39202.22
718.282	39468.45
718.476	39390.63
718.671	39189.93
718.865	38854.06
719.059	39228.84
719.254	39409.06
719.448	39161.26
719.642	39204.27
719.837	38809.01
720.031	38854.06
720.225	38811.06
720.419	38616.5
720.614	38780.34
720.808	39099.82
721.002	38972.85
721.196	38684.08
721.39	38493.62
721.585	38882.73
721.779	38669.75
721.973	38264.25
722.167	38047.16
722.361	38264.25
722.555	39159.21
722.749	38157.75
722.943	38907.31
723.137	38307.26
723.331	38661.55
723.525	38104.51
723.719	38176.19
723.913	38606.26
724.107	38276.54
724.301	38342.07
724.495	38393.27
724.689	38852.02
724.883	38464.95
725.077	38772.14
725.271	38270.39
725.465	39054.76
725.659	38397.37
725.853	38030.78
726.046	38284.73
726.24	37690.82
726.434	37846.46
726.628	38266.3
726.822	38368.69
727.015	38946.22
727.209	38366.65
727.403	38264.25
727.596	38235.58
727.79	38389.17
727.984	38636.98
728.177	38120.89
728.371	38596.02
728.565	38530.48
728.758	38489.52
728.952	38311.35
729.146	38184.38
729.339	38825.39
729.533	38297.02
729.726	38309.3
729.92	38303.16
730.113	38858.16
730.307	38309.3
730.5	37916.09
730.694	38309.3
730.887	38079.93
731.081	38456.76
731.274	38317.5
731.468	38200.76
731.661	38385.08
731.854	38268.34
732.048	38151.61
732.241	37963.2
732.435	38526.39
732.628	38213.05
732.821	38079.93
733.014	38124.99
733.208	38270.39
733.401	38620.59
733.594	38016.44
733.788	38366.65
733.981	38090.17
734.174	38178.23
734.367	37625.28
734.56	37782.98
734.754	38155.71
734.947	38575.54
735.14	37942.72
735.333	37993.92
735.526	37942.72
735.719	37739.97
735.912	37821.89
736.105	37633.47
736.298	38258.1
736.491	38202.81
736.684	38116.79
736.877	38000.06
737.07	38331.83
737.263	38219.19
737.456	37600.71
737.649	37821.89
737.842	38149.56
738.035	38059.45
738.228	37731.78
738.421	38192.57
738.614	38409.65
738.807	37891.52
739	37735.87
739.192	38032.83
739.385	38264.25
739.578	38294.97
739.771	38258.1
739.964	37391.81
740.156	38311.35
740.349	38100.41
740.542	38401.46
740.735	37889.47
740.927	37905.85
741.12	38114.75
741.313	37590.47
741.505	38012.35
741.698	37770.69
741.891	37850.56
742.083	37563.84
742.276	37924.29
742.468	37813.69
742.661	37617.09
742.854	37694.91
743.046	37584.32
743.239	37563.84
743.431	37885.37
743.624	37543.36
743.816	37236.17
744.009	37494.21
744.201	37690.82
744.393	37490.12
744.586	37154.25
744.778	37410.25
744.971	37199.3
745.163	37582.27
745.355	37526.98
745.548	36949.45
745.74	36906.44
745.932	36648.4
746.125	37115.34
746.317	37432.77
746.509	37006.8
746.702	36820.43
746.894	36789.71
747.086	36625.87
747.278	37176.78
747.471	36847.05
747.663	37088.71
747.855	37285.32
748.047	37658.05
748.239	37123.53
748.431	37006.8
748.623	37600.71
748.815	36888.01
749.008	36928.97
749.2	37238.22
749.392	37424.58
749.584	37096.91
749.776	37369.29
749.968	37232.07
750.16	37629.38
750.352	36476.37
750.544	36597.2
750.736	36478.42
750.928	36677.07
751.12	36484.56
751.311	36453.84
751.503	36519.38
751.695	36361.69
751.887	36277.72
752.079	36330.97
752.271	36140.5
752.463	37473.73
752.654	36713.94
752.846	36539.86
753.038	36359.64
753.23	36378.07
753.421	36453.84
753.613	36328.92
753.805	36666.83
753.997	36326.87
754.188	36560.34
754.38	36283.86
754.572	36306.39
754.763	36392.4
754.955	35818.97
755.146	35954.14
755.338	35904.99
755.53	35679.71
755.721	35718.62
755.913	35685.86
756.104	35317.22
756.296	35454.43
756.487	35718.62
756.679	35569.12
756.87	35730.91
757.062	35519.97
757.253	35935.71
757.445	35775.97
757.636	35460.58
757.827	35266.02
758.019	35855.84
758.21	34774.51
758.401	35067.37
758.593	35610.08
758.784	35288.55
758.975	34389.49
759.167	34719.21
759.358	35116.52
759.549	35268.07
759.74	34921.96
759.932	34919.92
760.123	35046.89
760.314	34946.54
760.505	34903.53
760.696	34850.28
760.888	35372.52
761.079	34874.86
761.27	34743.79
761.461	34686.45
761.652	34930.15
761.843	34700.78
762.034	34618.86
762.225	34338.29
762.416	34280.95
762.607	34401.78
762.798	33820.16
762.989	34463.22
763.18	35309.03
763.371	34080.25
763.562	34145.78
763.753	33906.17
763.944	34326
764.135	34672.11
764.326	34502.13
764.517	34092.54
764.708	34229.75
764.899	34141.69
765.089	33566.21
765.28	33441.28
765.471	34158.07
765.662	33791.48
765.853	33547.78
766.043	33158.66
766.234	33940.99
766.425	33981.95
766.615	33537.54
766.806	33459.71
766.997	33869.31
767.187	33725.95
767.378	33216.01
767.569	32677.39
767.759	33375.75
767.95	33781.24
768.141	33736.19
768.331	33035.78
768.522	33562.11
768.712	33746.43
768.903	33590.78
769.093	33199.62
769.284	33734.14
769.474	33195.53
769.665	32638.48
769.855	32751.12
770.046	33115.65
770.236	32564.75
770.426	32699.92
770.617	32785.93
770.807	32937.48
770.998	32716.3
771.188	32542.22
771.378	32380.43
771.569	32972.3
771.759	32638.48
771.949	32243.22
772.139	32380.43
772.33	32052.76
772.52	32837.13
772.71	32511.5
772.9	32054.81
773.09	32876.04
773.281	32898.57
773.471	32110.1
773.661	32116.25
773.851	32378.39
774.041	32030.23
774.231	31866.39
774.421	31804.95
774.611	32216.6
774.802	31811.1
774.992	31907.35
775.182	31776.28
775.372	32099.86
775.562	32216.6
775.752	31860.25
775.942	31694.36
776.131	32022.04
776.321	31962.65
776.511	31696.41
776.701	31323.68
776.891	32097.81
777.081	31708.7
777.271	31540.77
777.461	31125.03
777.651	31522.33
777.84	31792.67
778.03	31305.25
778.22	31378.98
778.41	31706.65
778.599	31202.85
778.789	31297.06
778.979	30862.89
779.169	31045.16
779.358	30981.67
779.548	31342.11
779.738	30645.8
779.927	31032.87
780.117	30723.63
780.307	30457.39
780.496	30727.72
780.686	31428.13
780.875	31192.61
781.065	30737.96
781.254	30570.03
781.444	30723.63
781.633	30168.63
781.823	30221.87
782.012	30760.49
782.202	30475.82
782.391	30518.83
782.581	30453.3
782.77	30772.78
782.96	30805.55
783.149	30541.36
783.338	30563.89
783.528	30066.23
783.717	30602.8
783.906	30866.98
784.096	29990.45
784.285	30416.43
784.474	30162.48
784.663	29595.2
784.853	29580.86
785.042	30029.37
785.231	30189.11
785.42	30461.49
785.61	29822.52
785.799	29324.86
785.988	29761.08
786.177	29419.07
786.366	29175.36
786.555	29503.04
786.744	29687.35
786.933	29423.17
787.122	29288
787.312	29646.4
787.501	30002.74
787.69	29814.33
787.879	29433.41
788.068	29136.45
788.257	28720.71
788.445	28933.7
788.634	29525.57
788.823	29193.79
789.012	30260.79
789.201	29632.06
789.39	29337.15
789.579	28882.5
789.768	29314.62
789.957	29191.75
790.145	28814.92
790.334	28937.8
790.523	28995.14
790.712	29570.62
790.9	28958.28
791.089	28687.95
791.278	29052.48
791.467	28823.11
791.655	28896.84
791.844	28870.22
792.033	28550.73
792.221	28606.03
792.41	28851.78
792.599	27987.54
792.787	28980.81
792.976	29107.78
793.164	28210.77
793.353	28665.42
793.541	28929.61
793.73	28995.14
793.918	28608.08
794.107	28331.6
794.295	28419.66
794.484	28560.97
794.672	28161.62
794.861	28233.3
795.049	28456.53
795.238	28546.64
795.426	28431.95
795.614	28014.16
795.803	28124.75
795.991	28579.4
796.179	28008.02
796.368	28157.52
796.556	28464.72
796.744	28018.26
796.932	27602.52
797.121	27661.91
797.309	27903.57
797.497	28505.68
797.685	27919.96
797.874	27954.77
798.062	27825.75
798.25	28165.71
798.438	28091.99
798.626	27721.3
798.814	27833.94
799.002	28487.25
799.19	27706.97
799.378	27801.18
799.566	28051.03
799.755	27686.49
799.943	27491.93
800.131	27225.7
800.318	27596.38
800.506	28034.64
800.694	27465.31
800.882	27922.01
801.07	27870.81
801.258	27661.91
801.446	27967.06
801.634	27231.84
801.822	27844.18
802.01	28075.6
802.197	28128.85
802.385	27932.25
802.573	28216.91
802.761	28192.34
802.949	27895.38
803.136	27674.2
803.324	28116.56
803.512	28022.36
803.699	27737.69
803.887	27774.55
804.075	28329.55
804.262	27688.54
804.45	27866.71
804.638	27842.14
804.825	27739.74
805.013	27602.52
805.201	27729.5
805.388	27340.38
805.576	27960.92
805.763	28001.88
805.951	27575.9
806.138	27879
806.326	28520.01
806.513	27936.34
806.701	27919.96
806.888	27981.4
807.075	28548.68
807.263	28479.05
807.45	27676.25
807.638	28126.8
807.825	28479.05
808.012	28282.45
808.2	27889.24
808.387	28315.22
808.574	28618.32
808.761	28489.29
808.949	27870.81
809.136	28071.51
809.323	28302.93
809.51	27876.95
809.698	27948.63
809.885	27903.57
810.072	27821.66
810.259	28534.35
810.446	27879
810.633	28073.56
810.82	28454.48
811.008	28540.49
811.195	28468.81
811.382	28141.14
811.569	28194.39
811.756	27829.85
811.943	28122.71
812.13	28030.55
812.317	28216.91
812.504	27895.38
812.691	27940.44
812.878	28145.23
813.064	28120.66
813.251	28071.51
813.438	28120.66
813.625	27938.39
813.812	27684.44
813.999	28190.29
814.186	28055.12
814.372	28245.58
814.559	28094.04
814.746	28128.85
814.933	27799.13
815.12	28089.94
815.306	28038.74
815.493	27543.13
815.68	27819.61
815.866	27883.09
816.053	27969.11
816.24	28233.3
816.426	28028.5
816.613	28077.65
816.799	28565.07
816.986	28327.5
817.173	27594.33
817.359	27967.06
817.546	27987.54
817.732	27846.23
817.919	27995.73
818.105	28059.22
818.292	28010.07
818.478	28274.26
818.665	28034.64
818.851	28184.15
819.037	28368.46
819.224	27680.35
819.41	27549.28
819.597	27659.87
819.783	28288.59
819.969	28145.23
820.156	28192.34
820.342	27885.14
820.528	28292.69
820.714	28245.58
820.901	27995.73
821.087	27584.09
821.273	28241.49
821.459	27766.36
821.646	27522.65
821.832	27567.71
822.018	27950.68
822.204	27684.44
822.39	27973.21
822.576	27491.93
822.762	27881.05
822.948	27254.37
823.134	27612.76
823.32	27407.97
823.507	27590.23
823.693	27518.56
823.879	27293.28
824.065	26967.65
824.25	26953.32
824.436	26928.74
824.622	27340.38
824.808	27485.79
824.994	27367.01
825.18	26910.31
825.366	27362.91
825.552	26922.6
825.738	27467.36
825.923	27504.22
826.109	27289.18
826.295	26783.34
826.481	26895.97
826.667	26787.43
826.852	26959.46
827.038	27059.81
827.224	27260.51
827.409	27561.56
827.595	27039.33
827.781	26893.93
827.966	27125.35
828.152	26990.18
828.338	26556.01
828.523	26261.1
828.709	26703.46
828.894	26680.94
829.08	26254.96
829.266	26076.79
829.451	26455.66
829.637	26349.17
829.822	26394.22
830.008	26525.29
830.193	26779.24
830.378	26543.72
830.564	26394.22
830.749	26326.64
830.935	26648.17
831.12	26447.47
831.305	26156.66
831.491	26197.62
831.676	26168.94
831.861	26367.6
832.047	26060.4
832.232	26259.06
832.417	26576.49
832.602	26257.01
832.788	26013.3
832.973	25722.49
833.158	25906.8
833.343	25702.01
833.528	25718.39
833.714	26279.53
833.899	26711.66
834.084	26533.48
834.269	26429.04
834.454	25828.98
834.639	26050.16
834.824	25796.21
835.009	25855.61
835.194	25714.3
835.379	26013.3
835.564	25562.75
835.749	25581.18
835.934	25298.56
836.119	25548.41
836.304	25810.55
836.489	25765.49
836.674	25511.55
836.859	25409.15
837.044	25685.62
837.228	25400.96
837.413	25605.75
837.598	25790.07
837.783	25550.46
837.968	25677.43
838.152	25263.74
838.337	25454.2
838.522	25566.84
838.707	25884.28
838.891	25605.75
839.076	25398.91
839.261	25581.18
839.445	25419.39
839.63	25411.2
839.815	25394.81
839.999	25134.72
840.184	25226.88
840.368	24813.19
840.553	24977.03
840.737	25187.97
840.922	24860.29
841.106	24817.29
841.291	24622.73
841.475	24581.77
841.66	24596.1
841.844	24415.88
842.029	25382.52
842.213	24499.85
842.397	24577.67
842.582	24493.71
842.766	24991.36
842.951	24880.77
843.135	24569.48
843.319	24559.24
843.504	24495.75
843.688	24608.39
843.872	24266.38
844.056	24370.83
844.241	24741.51
844.425	24352.4
844.609	24579.72
844.793	24319.63
844.977	24555.15
845.161	24161.94
845.346	23983.76
845.53	23799.44
845.714	24399.5
845.898	24166.03
846.082	23742.1
846.266	23883.41
846.45	24080.02
846.634	24114.83
846.818	23977.62
847.002	24379.02
847.186	23996.05
847.37	23922.32
847.554	23848.6
847.738	24006.29
847.922	23809.68
848.106	24071.82
848.29	23502.49
848.473	23856.79
848.657	23602.84
848.841	23611.03
849.025	23404.19
849.209	23148.19
849.392	23744.15
849.576	23594.65
849.76	23129.76
849.944	23473.82
850.127	23922.32
850.311	23297.69
850.495	23352.99
850.678	23375.52
850.862	23862.93
851.046	23678.61
851.229	23463.58
851.413	22908.58
851.596	23174.81
851.78	22855.33
851.964	22949.54
852.147	22793.89
852.331	23551.64
852.514	23264.92
852.698	22888.1
852.881	22707.88
853.065	23166.62
853.248	23006.88
853.431	22783.65
853.615	22933.15
853.798	23512.73
853.982	22933.15
854.165	22875.81
854.348	22640.29
854.532	22773.41
854.715	22855.33
854.898	22914.72
855.081	22687.4
855.265	23215.77
855.448	23428.76
855.631	22668.97
855.814	22267.56
855.997	22781.6
856.181	22552.23
856.364	22587.05
856.547	22406.83
856.73	22888.1
856.913	22300.33
857.096	22320.81
857.279	22298.28
857.462	22046.38
857.645	22382.25
857.828	22382.25
858.011	22173.36
858.194	21860.02
858.377	22013.62
858.56	21982.9
858.743	22087.34
858.926	21673.65
859.109	21993.14
859.292	21714.61
859.475	21876.4
859.658	22175.41
859.841	22009.52
860.023	21563.06
860.206	21917.36
860.389	21862.07
860.572	21718.71
860.755	21614.26
860.937	21911.22
861.12	21612.21
861.303	21739.19
861.486	21427.9
861.668	21350.07
861.851	21870.26
862.034	21714.61
862.216	21563.06
862.399	21176
862.581	21610.17
862.764	21477.05
862.947	21169.85
863.129	21094.08
863.312	20817.6
863.494	21511.86
863.677	21135.04
863.859	20868.8
864.042	20840.13
864.224	21176
864.406	20924.1
864.589	20506.31
864.771	21167.8
864.954	20426.44
865.136	20324.04
865.318	20184.78
865.501	20920
865.683	20432.58
865.865	20633.29
866.048	20625.09
866.23	20645.57
866.412	20575.94
866.594	20016.85
866.777	20491.98
866.959	20788.93
867.141	20678.34
867.323	20704.96
867.505	20436.68
867.687	20389.58
867.869	20311.75
868.052	20401.86
868.234	20227.79
868.416	20213.45
868.598	20915.9
868.78	20186.83
868.962	20078.29
869.144	20379.34
869.326	20313.8
869.508	20029.13
869.69	20233.93
869.872	20025.04
870.054	20158.16
870.236	19818.19
870.417	20586.18
870.599	20356.81
870.781	20410.06
870.963	20162.25
871.145	19967.7
871.327	19840.72
871.508	20295.37
871.69	20250.31
871.872	20115.15
872.054	20276.94
872.235	20403.91
872.417	20207.31
872.599	19842.77
872.78	20528.84
872.962	20102.86
873.144	19644.12
873.325	20195.02
873.507	20385.48
873.689	19930.83
873.87	19736.27
874.052	20010.7
874.233	19934.93
874.415	20342.47
874.596	19965.65
874.778	19906.26
874.959	20178.64
875.141	20244.17
875.322	20049.61
875.503	19861.2
875.685	20483.78
875.866	20035.28
876.048	20219.6
876.229	19992.27
876.41	20158.16
876.592	20473.54
876.773	20156.11
876.954	19889.87
877.136	21104.32
877.317	20442.82
877.498	20162.25
877.679	20442.82
877.86	20498.12
878.042	20326.09
878.223	19947.22
878.404	20522.69
878.585	20600.52
878.766	20522.69
878.947	20360.91
879.128	20442.82
879.309	20678.34
879.49	20678.34
879.672	20506.31
879.853	20469.45
880.034	20176.59
880.215	20397.77
880.396	20397.77
880.576	20514.5
880.757	20696.77
880.938	21059.26
881.119	20524.74
881.3	20829.89
881.481	20823.75
881.662	21608.12
881.843	20321.99
882.023	20717.25
882.204	20569.8
882.385	20541.13
882.566	20805.31
882.747	20715.2
882.927	20453.06
883.108	20498.12
883.289	20659.91
883.469	20905.66
883.65	21116.61
883.831	20702.92
884.011	20944.58
884.192	21059.26
884.373	21290.68
884.553	20995.78
884.734	20885.19
884.914	21216.96
885.095	21700.28
885.275	21509.82
885.456	21413.56
885.636	21098.17
885.817	21153.47
885.997	21487.29
886.178	21075.65
886.358	21182.14
886.538	21612.21
886.719	22195.89
886.899	21335.74
887.08	21644.98
887.26	21831.35
887.44	21362.36
887.621	21575.35
887.801	21386.94
887.981	22318.76
888.161	22146.73
888.342	22111.92
888.522	21798.58
888.702	22070.96
888.882	21962.42
889.062	22046.38
889.242	21522.1
889.423	21956.27
889.603	21966.51
889.783	21878.45
889.963	21665.46
890.143	22593.19
890.323	22410.92
890.503	22148.78
890.683	21765.81
890.863	22013.62
891.043	21978.8
891.223	22027.95
891.403	22128.3
891.583	21878.45
891.763	21825.2
891.943	21569.21
892.122	21677.75
892.302	21974.7
892.482	22091.44
892.662	21862.07
892.842	22009.52
893.022	21939.89
893.201	22073.01
893.381	22130.35
893.561	21980.85
893.741	22605.48
893.92	21657.27
894.1	21927.6
894.28	22040.24
894.459	22242.99
894.639	21980.85
894.819	21595.83
894.998	21976.75
895.178	22376.11
895.357	22146.73
895.537	21972.66
895.716	21939.89
895.896	22109.87
896.075	22312.62
896.255	22075.06
896.434	21827.25
896.614	22611.62
896.793	22572.71
896.973	22185.65
897.152	21769.91
897.331	21917.36
897.511	22083.25
897.69	21548.73
897.87	21608.12
898.049	22017.71
898.228	22013.62
898.407	21765.81
898.587	21974.7
898.766	22003.38
898.945	22040.24
899.124	21653.17
899.304	21587.64
899.483	21827.25
899.662	22523.56
899.841	21921.46
900.02	21982.9
900.199	22183.6
900.378	22320.81
900.557	21851.83
900.737	21485.24
900.916	21765.81
901.095	22118.06
901.274	22046.38
901.453	21722.8
901.632	21421.75
901.811	21712.56
901.989	21311.16
902.168	21120.7
902.347	21749.43
902.526	21515.96
902.705	21249.72
902.884	21321.4
903.063	21692.08
903.242	21675.7
903.42	21186.24
903.599	21335.74
903.778	21454.52
903.957	21700.28
904.135	21241.53
904.314	21141.18
904.493	21442.23
904.672	21714.61
904.85	21139.13
905.029	21247.68
905.207	21444.28
905.386	21935.79
905.565	20864.71
905.743	20844.23
905.922	20729.54
906.1	21212.86
906.279	20917.95
906.457	20604.61
906.636	21235.39
906.814	21069.5
906.993	20899.52
907.171	21223.1
907.35	21120.7
907.528	21352.12
907.707	20575.94
907.885	20356.81
908.063	21198.52
908.242	20612.81
908.42	20729.54
908.598	20295.37
908.777	20733.64
908.955	20500.17
909.133	20496.07
909.311	20268.75
909.49	20276.94
909.668	20352.71
909.846	19859.15
910.024	19893.97
910.202	20082.38
910.38	20041.42
910.559	19977.94
910.737	19920.59
910.915	20248.27
911.093	20184.78
911.271	20037.33
911.449	20254.41
911.627	19705.56
911.805	20369.1
911.983	20041.42
912.161	19672.79
912.339	19922.64
912.517	19932.88
912.695	19658.45
912.872	19545.81
913.05	19424.98
913.228	19887.82
913.406	19719.89
913.584	19435.22
913.762	19717.84
913.939	19404.5
914.117	19123.93
914.295	19445.46
914.473	19693.27
914.65	19777.23
914.828	19381.98
915.006	19365.59
915.184	19187.42
915.361	19216.09
915.539	19396.31
915.716	19195.61
915.894	19412.7
916.072	19590.87
916.249	19177.18
916.427	19166.94
916.604	19035.87
916.782	19242.71
916.959	18654.95
917.137	19017.44
917.314	18775.78
917.492	18689.76
917.669	18939.61
917.847	18691.81
918.024	18548.45
918.201	18484.97
918.379	18933.47
918.556	18419.43
918.733	18843.36
918.911	18505.45
919.088	18673.38
919.265	18142.96
919.442	18702.05
919.62	18196.2
919.797	18177.77
919.974	17897.2
920.151	18104.04
920.328	18011.89
920.506	17649.39
920.683	18108.14
920.86	17710.83
921.037	18106.09
921.214	17716.98
921.391	17854.19
921.568	17991.41
921.745	17678.07
921.922	17710.83
922.099	17239.8
922.276	17962.73
922.453	17542.9
922.63	17585.91
922.807	17716.98
922.984	17637.11
923.161	17352.44
923.338	17266.42
923.514	17153.79
923.691	17463.03
923.868	17424.12
924.045	16660.23
924.222	16850.69
924.399	16996.09
924.575	17010.43
924.752	16793.34
924.929	16758.53
925.105	17145.59
925.282	16680.71
925.459	16580.35
925.635	16942.85
925.812	16840.45
925.989	16598.79
926.165	16598.79
926.342	16285.45
926.518	15949.58
926.695	16355.08
926.871	16332.55
927.048	16238.34
927.224	16441.09
927.401	15968.01
927.577	16037.64
927.754	15703.82
927.93	16125.71
928.107	16209.67
928.283	15511.32
928.459	15957.77
928.636	16064.27
928.812	15918.86
928.988	15218.46
929.165	15292.18
929.341	15556.37
929.517	15564.56
929.693	15812.37
929.87	14939.93
930.046	15447.83
930.222	15068.95
930.398	15318.81
930.574	15402.77
930.751	15468.31
930.927	15251.22
931.103	15277.85
931.279	14718.75
931.455	14593.83
931.631	14757.66
931.807	14434.08
931.983	14620.45
932.159	14350.12
932.335	14649.12
932.511	14384.93
932.687	14194.47
932.863	14350.12
933.039	14042.92
933.215	14075.69
933.391	13909.8
933.566	14038.83
933.742	13928.24
933.918	13846.32
934.094	13543.22
934.27	13565.74
934.445	13477.68
934.621	13510.45
934.797	12984.12
934.973	13592.37
935.148	13287.22
935.324	12900.16
935.5	12500.8
935.675	13025.08
935.851	12570.43
936.027	12369.73
936.202	12543.81
936.378	12623.68
936.553	12199.75
936.729	12109.64
936.904	11616.08
937.08	11331.41
937.255	11388.75
937.431	11059.03
937.606	10807.13
937.782	10948.44
937.957	10932.06
938.133	10817.37
938.308	10329.95
938.483	10323.81
938.659	10096.49
938.834	10110.82
939.009	9936.74
939.185	9865.07
939.36	9521.01
939.535	9283.44
939.71	9471.86
939.886	9541.49
940.061	9619.31
940.236	9109.36
940.411	8953.72
940.586	9144.18
940.761	9041.78
940.937	8691.58
941.112	8750.97
941.287	8939.38
941.462	8669.05
941.637	8728.44
941.812	8599.42
941.987	8613.76
942.162	8497.02
942.337	8535.93
942.512	8368
942.687	8286.08
942.862	8394.62
943.037	7952.26
943.212	7643.02
943.386	8007.56
943.561	8128.39
943.736	8019.85
943.911	8214.4
944.086	8007.56
944.26	8120.2
944.435	7923.59
944.61	7864.2
944.785	8157.06
944.959	8150.92
945.134	7694.22
945.309	7643.02
945.483	7602.06
945.658	8032.13
945.833	7577.48
946.007	7634.83
946.182	8243.07
946.357	7733.13
946.531	7677.83
946.706	7708.55
946.88	7442.32
947.055	7698.31
947.229	7591.82
947.404	7636.88
947.578	8202.11
947.752	7939.97
947.927	7755.66
948.101	7632.78
948.276	7991.17
948.45	7813
948.624	8095.62
948.799	7792.52
948.973	8128.39
949.147	7755.66
949.321	8241.03
949.496	8163.2
949.67	8484.73
949.844	8097.67
950.018	8220.55
950.193	8177.54
950.367	8839.03
950.541	8056.71
950.715	8406.91
950.889	8345.47
951.063	8146.82
951.237	8494.97
951.411	8267.65
951.585	8085.38
951.759	8472.45
951.933	8292.23
952.107	8394.62
952.281	8486.78
952.455	8923
952.629	8564.61
952.803	8472.45
952.977	8218.5
953.151	8679.29
953.325	8718.2
953.499	8568.7
953.672	8515.45
953.846	8503.17
954.02	8484.73
954.194	8492.93
954.368	8349.57
954.541	8798.07
954.715	8388.48
954.889	8828.79
955.062	8474.49
955.236	8763.26
955.41	8613.76
955.583	8771.45
955.757	8509.31
955.93	8566.65
956.104	8370.05
956.278	8689.53
956.451	8755.07
956.625	8879.99
956.798	9183.09
956.972	9021.3
957.145	8755.07
957.319	8767.35
957.492	8908.66
957.665	9031.54
957.839	8724.35
958.012	8931.19
958.185	8982.39
958.359	8611.71
958.532	8904.57
958.705	9279.35
958.879	9011.06
959.052	9101.17
959.225	8685.44
959.398	8966.01
959.572	9156.47
959.745	8978.3
959.918	8875.9
960.091	8836.99
960.264	8882.04
960.438	8513.41
960.611	8839.03
960.784	9002.87
960.957	8681.34
961.13	9066.36
961.303	8818.55
961.476	8603.52
961.649	9138.04
961.822	8644.48
961.995	8720.25
962.168	9209.72
962.341	9025.4
962.514	8845.18
962.686	8855.42
962.859	8746.87
963.032	8898.42
963.205	8820.6
963.378	8583.04
963.551	9068.41
963.723	9117.56
963.896	8963.96
964.069	8955.77
964.242	9092.98
964.414	9172.85
964.587	8900.47
964.76	9072.5
964.932	8998.77
965.105	8664.96
965.278	8626.04
965.45	8931.19
965.623	8992.63
965.795	9015.16
965.968	8722.3
966.14	8642.43
966.313	8929.14
966.485	8791.93
966.658	8748.92
966.83	8640.38
967.003	9256.82
967.175	8777.59
967.348	8693.63
967.52	8775.55
967.692	9185.14
967.865	8902.52
968.037	8759.16
968.209	8976.25
968.382	8781.69
968.554	9103.22
968.726	8664.96
968.898	8492.93
969.071	8806.27
969.243	8527.74
969.415	8468.35
969.587	8363.9
969.759	9158.52
969.932	8775.55
970.104	8548.22
970.276	8112
970.448	8331.14
970.62	8097.67
970.792	8355.71
970.964	8198.02
971.136	8742.78
971.308	8511.36
971.48	7970.69
971.652	8406.91
971.824	8679.29
971.996	8355.71
972.168	8310.66
972.339	8429.44
972.511	8566.65
972.683	8234.88
972.855	8632.19
973.027	8363.9
973.199	8114.05
973.37	8527.74
973.542	8460.16
973.714	8355.71
973.886	8458.11
974.057	8537.98
974.229	8087.43
974.401	7890.82
974.572	7841.67
974.744	7919.5
974.915	7747.47
975.087	7819.14
975.259	8398.72
975.43	7847.82
975.602	7710.6
975.773	7899.02
975.945	7710.6
976.116	7925.64
976.288	7712.65
976.459	7989.13
976.63	7956.36
976.802	7817.1
976.973	7544.72
977.145	7688.07
977.316	7970.69
977.487	8091.52
977.659	7815.05
977.83	7739.27
978.001	8284.03
978.172	7802.76
978.344	7759.75
978.515	7495.57
978.686	7645.07
978.857	7892.87
979.028	7765.9
979.2	7430.03
979.371	7690.12
979.542	7593.87
979.713	7634.83
979.884	7061.4
980.055	7653.26
980.226	7415.69
980.397	7509.9
980.568	7466.89
980.739	7835.53
980.91	7425.93
981.081	7495.57
981.252	7274.39
981.423	7628.68
981.594	7817.1
981.765	7389.07
981.936	7327.63
982.106	7346.06
982.277	7448.46
982.448	7348.11
982.619	7403.41
982.79	6997.91
982.96	7540.62
983.131	7141.27
983.302	6975.38
983.472	7260.05
983.643	7370.64
983.814	7219.09
983.984	6959
984.155	7069.59
984.326	7337.87
984.496	7038.87
984.667	6860.7
984.837	6922.13
985.008	7206.8
985.178	7055.25
985.349	6967.19
985.519	6872.98
985.69	6737.82
985.86	6856.6
986.031	6506.4
986.201	6782.87
986.371	6791.06
986.542	6608.8
986.712	6387.61
986.882	6778.78
987.053	6879.13
987.223	6584.22
987.393	6635.42
987.563	6616.99
987.734	6817.69
987.904	6731.67
988.074	6467.49
988.244	6512.54
988.414	6418.33
988.585	6307.74
988.755	6582.17
988.925	6641.56
989.095	6891.41
989.265	6350.75
989.435	6408.09
989.605	6629.27
989.775	6668.19
989.945	6494.11
990.115	6070.18
990.285	6383.52
990.455	6490.01
990.625	6160.29
990.795	6033.32
990.965	6571.93
991.134	6102.95
991.304	6201.25
991.474	6162.34
991.644	6406.05
991.814	6367.13
991.984	5990.31
992.153	5853.09
992.323	6072.23
992.493	6274.98
992.662	5904.29
992.832	6145.95
993.002	6139.81
993.171	6053.8
993.341	5801.9
993.511	6119.33
993.68	6027.17
993.85	6102.95
994.019	5609.39
994.189	5570.48
994.358	5877.67
994.528	5623.72
994.697	5253.04
994.867	5547.95
995.036	5769.13
995.206	5648.3
995.375	5470.12
995.544	5543.85
995.714	5734.31
995.883	5531.56
996.052	5719.98
996.222	5339.05
996.391	6250.4
996.56	5619.63
996.73	5369.77
996.899	5351.34
997.068	5779.37
997.237	5597.1
997.406	5349.29
997.576	5285.81
997.745	5513.13
997.914	5531.56
998.083	5130.16
998.252	5162.93
998.421	5500.84
998.59	5117.87
998.759	5169.07
998.928	5076.91
999.097	5625.77
999.266	5365.68
999.435	5189.55
999.604	4894.65
999.773	5627.82
999.942	5013.43
1000.111	4855.73
1000.28	4759.48
1000.448	4827.06
1000.617	4917.17
1000.786	5056.43
1000.955	4802.49
1001.124	5064.63
1001.292	5836.71
1001.461	4669.37
1001.63	4898.74
1001.798	5287.86
1001.967	5236.66
1002.136	4718.52
1002.304	4745.14
1002.473	4736.95
1002.642	4966.32
1002.81	4900.79
1002.979	4634.55
1003.147	4976.56
1003.316	5382.06
1003.484	4538.3
1003.653	4603.83
1003.821	5113.78
1003.99	4759.48
1004.158	4519.87
1004.327	4712.38
1004.495	4626.36
1004.663	4444.09
1004.832	4493.24
1005	4214.72
1005.168	4695.99
1005.337	4478.91
1005.505	4255.68
1005.673	4507.58
1005.842	4468.67
1006.01	4550.59
1006.178	4136.9
1006.346	4267.97
1006.514	4493.24
1006.683	4636.6
1006.851	4089.79
1007.019	4106.18
1007.187	4229.06
1007.355	3901.38
1007.523	3915.72
1007.691	4069.31
1007.859	4126.66
1008.027	4526.01
1008.195	4071.36
1008.363	3911.62
1008.531	4540.35
1008.699	4097.99
1008.867	4032.45
1009.035	3891.14
1009.203	4272.06
1009.37	4280.25
1009.538	3958.72
1009.706	4364.22
1009.874	4042.69
1010.042	4022.21
1010.209	3774.41
1010.377	3667.91
1010.545	4315.07
1010.713	4032.45
1010.88	3729.35
1011.048	3829.7
1011.216	3764.17
1011.383	4253.63
1011.551	3469.26
1011.718	3665.86
1011.886	4061.12
1012.054	3833.8
1012.221	3606.47
1012.389	3475.4
1012.556	3784.65
1012.724	4132.8
1012.891	3678.15
1013.058	3389.39
1013.226	3905.48
1013.393	3864.52
1013.561	3299.28
1013.728	3272.65
1013.895	3751.88
1014.063	3721.16
1014.23	3278.8
1014.397	3358.67
1014.565	3751.88
1014.732	3495.88
1014.899	3153.87
1015.066	3172.3
1015.233	3585.99
1015.401	3661.77
1015.568	3348.43
1015.735	3180.5
1015.902	3424.2
1016.069	3454.92
1016.236	3133.39
1016.403	3194.83
1016.57	3254.22
1016.737	3485.64
1016.904	3205.07
1017.071	3069.91
1017.238	3217.36
1017.405	3432.4
1017.572	3180.5
1017.739	3334.09
1017.906	3356.62
1018.073	3655.62
1018.24	2942.93
1018.407	3104.72
1018.573	3487.69
1018.74	3313.61
1018.907	2949.07
1019.074	2815.96
1019.241	3364.81
1019.407	3117.01
1019.574	2881.49
1019.741	2668.5
1019.907	3088.34
1020.074	3153.87
1020.241	2695.13
1020.407	2865.11
1020.574	3176.4
1020.74	3190.74
1020.907	2834.39
1021.073	2787.29
1021.24	3434.44
1021.406	3246.03
1021.573	2578.39
1021.739	2598.87
1021.906	2971.6
1022.072	2754.52
1022.239	2697.17
1022.405	2488.28
1022.571	2801.62
1022.738	2625.5
1022.904	2488.28
1023.07	2605.02
1023.237	2770.9
1023.403	2895.83
1023.569	2525.15
1023.735	2598.87
1023.902	2850.77
1024.068	2918.36
1024.234	2402.27
1024.4	2521.05
1024.566	2861.01
1024.732	2836.44
1024.898	2441.18
1025.065	2306.01
1025.231	2762.71
1025.397	2455.51
1025.563	2418.65
1025.729	2303.96
1025.895	2174.94
1026.061	2424.8
1026.227	2209.76
1026.392	2170.85
1026.558	2897.88
1026.724	2570.2
1026.89	2150.37
1027.056	2318.3
1027.222	2664.41
1027.388	2320.35
1027.553	2117.6
1027.719	2088.93
1027.885	2744.28
1028.051	2410.46
1028.216	1945.57
1028.382	2181.09
1028.548	2416.6
1028.713	2174.94
1028.879	2109.41
1029.045	2226.14
1029.21	2656.22
1029.376	2478.04
1029.541	2154.46
1029.707	2074.59
1029.873	2500.57
1030.038	2531.29
1030.204	2082.78
1030.369	2029.54
1030.534	2428.89
1030.7	2172.89
1030.865	1994.72
1031.031	1912.8
1031.196	2242.53
1031.361	2185.18
1031.527	1937.38
1031.692	1816.55
1031.857	1859.56
1032.023	2312.16
1032.188	1853.41
1032.353	1986.53
1032.518	2412.51
1032.684	2107.36
1032.849	1699.81
1033.014	1816.55
1033.179	2289.63
1033.344	2160.61
1033.509	1953.76
1033.674	1722.34
1033.839	2179.04
1034.004	2209.76
1034.17	1654.76
1034.335	1538.02
1034.5	1869.8
1034.664	1763.3
1034.829	1632.23
1034.994	1763.3
1035.159	2099.17
1035.324	1959.91
1035.489	1736.68
1035.654	1710.05
1035.819	2066.4
1035.984	1884.13
1036.148	1726.44
1036.313	1533.93
1036.478	2017.25
1036.643	1828.84
1036.807	1558.5
1036.972	1427.43
1037.137	2222.05
1037.301	1783.78
1037.466	1435.63
1037.631	1564.65
1037.795	2097.12
1037.96	1804.26
1038.124	1791.97
1038.289	1236.97
1038.454	1839.08
1038.618	1837.03
1038.783	1497.07
1038.947	1505.26
1039.111	1734.63
1039.276	1599.46
1039.44	1417.19
1039.605	1791.97
1039.769	1546.22
1039.933	1634.28
1040.098	1468.39
1040.262	1554.41
1040.426	1964
1040.591	1728.49
1040.755	1370.09
1040.919	1492.97
1041.083	1767.4
1041.248	1447.91
1041.412	1224.69
1041.576	1302.51
1041.74	1544.17
1041.904	1867.75
1042.068	1173.49
1042.232	1312.75
1042.397	1656.81
1042.561	1699.81
1042.725	1075.18
1042.889	1421.29
1043.053	1662.95
1043.217	1685.48
1043.381	1318.89
1043.544	1058.8
1043.708	1869.8
1043.872	1353.71
1044.036	1019.89
1044.2	1257.45
1044.364	1722.34
1044.528	1834.98
1044.691	3426.25
1044.855	1138.67
1045.019	1712.1
1045.183	1535.98
1045.346	1300.46
1045.51	1171.44
1045.674	1480.68
1045.837	1626.09
1046.001	1269.74
1046.165	1058.8
1046.328	1974.24
1046.492	1517.54
1046.655	1255.4
1046.819	1191.92
1046.983	1220.59
1047.146	1437.67
1047.31	1212.4
1047.473	956.4
1047.636	1441.77
1047.8	1114.1
1047.963	1146.86
1048.127	1042.42
1048.29	1187.82
