Data from Ink_Intensity_USB4F045381__170__00170.txt Node

Date: Mon Jul 17 11:36:30 EDT 2023
User: mmckonesweet
Spectrometer: USB4F04538
Trigger mode: 4
Integration Time (sec): 9.000000E-1
Scans to average: 1
Electric dark correction enabled: true
Nonlinearity correction enabled: false
Boxcar width: 0
XAxis mode: Wavelengths
Number of Pixels in Spectrum: 3648
>>>>>Begin Spectral Data<<<<<
345.52	-981.83
345.736	-981.83
345.952	-981.83
346.168	-975.69
346.384	-1008.45
346.6	-172.88
346.816	-265.04
347.032	-267.09
347.248	283.81
347.464	-172.88
347.68	-125.78
347.896	144.55
348.112	378.02
348.328	-39.76
348.544	-107.35
348.76	48.3
348.975	296.1
349.191	-99.16
349.407	-273.23
349.623	-21.33
349.839	-86.87
350.055	-185.17
350.27	79.02
350.486	148.65
350.702	205.99
350.918	203.94
351.133	-205.65
351.349	107.69
351.565	335.01
351.781	-295.76
351.996	-21.33
352.212	355.49
352.428	-140.12
352.644	-230.23
352.859	-252.75
353.075	267.43
353.291	124.07
353.506	-136.02
353.722	-246.61
353.938	-52.05
354.153	394.4
354.369	40.11
354.584	-271.19
354.8	179.37
355.016	-287.57
355.231	-285.52
355.447	-131.92
355.662	154.79
355.878	795.81
356.093	-414.54
356.309	-37.72
356.524	-238.42
356.74	214.18
356.955	-189.27
357.171	-47.96
357.386	171.18
357.602	-246.61
357.817	-58.2
358.033	-162.64
358.248	273.57
358.464	185.51
358.679	-142.16
358.895	-287.57
359.11	-7
359.325	298.15
359.541	-25.43
359.756	-93.01
359.972	-324.43
360.187	126.12
360.402	-197.46
360.618	-138.07
360.833	994.46
361.048	111.78
361.264	-181.07
361.479	-99.16
361.694	13.48
361.909	130.22
362.125	-248.66
362.34	-158.55
362.555	259.24
362.77	42.15
362.986	-322.38
363.201	-185.17
363.416	173.22
363.631	52.39
363.847	-236.37
364.062	-170.83
364.277	185.51
364.492	89.26
364.707	-142.16
364.922	-381.78
365.138	279.72
365.353	351.4
365.568	-355.15
365.783	-115.54
365.998	138.41
366.213	539.81
366.428	-222.03
366.643	-27.48
366.858	273.57
367.073	189.61
367.288	-170.83
367.503	-207.7
367.718	25.77
367.933	246.95
368.148	-240.47
368.363	-37.72
368.578	23.72
368.793	326.82
369.008	-197.46
369.223	-275.28
369.438	160.94
369.653	285.86
369.868	-238.42
370.083	-262.99
370.298	115.88
370.513	388.26
370.728	7.34
370.943	-205.65
371.157	-262.99
371.372	511.14
371.587	-297.81
371.802	-396.11
372.017	31.91
372.232	435.36
372.446	-45.91
372.661	-310.1
372.876	240.81
373.091	72.87
373.306	-160.59
373.52	-291.66
373.735	-185.17
373.95	367.78
374.165	-148.31
374.379	-162.64
374.594	-111.44
374.809	81.07
375.023	23.72
375.238	-230.23
375.453	234.66
375.667	-271.19
375.882	-152.4
376.097	-281.43
376.311	64.68
376.526	15.53
376.741	-234.32
376.955	58.54
377.17	535.71
377.384	498.85
377.599	-136.02
377.813	-367.44
378.028	509.09
378.242	93.35
378.457	-164.69
378.672	-338.77
378.886	150.7
379.101	-84.82
379.315	-381.78
379.53	-107.35
379.744	183.46
379.958	132.26
380.173	-205.65
380.387	-238.42
380.602	122.02
380.816	-156.5
381.031	-252.75
381.245	-209.75
381.459	83.11
381.674	2698.37
381.888	-291.66
382.103	64.68
382.317	-197.46
382.531	373.92
382.746	-99.16
382.96	-222.03
383.174	-125.78
383.388	396.45
383.603	-4.95
383.817	-336.72
384.031	122.02
384.246	437.41
384.46	-41.81
384.674	232.62
384.888	-78.68
385.103	-56.15
385.317	-351.06
385.531	-93.01
385.745	281.77
385.959	228.52
386.174	-201.55
386.388	-344.91
386.602	31.91
386.816	-142.16
387.03	-183.12
387.244	-222.03
387.458	87.21
387.672	371.88
387.887	-256.85
388.101	-295.76
388.315	314.53
388.529	107.69
388.743	-119.64
388.957	-267.09
389.171	277.67
389.385	-185.17
389.599	-129.88
389.813	38.06
390.027	89.26
390.241	695.46
390.455	-181.07
390.669	-154.45
390.883	-176.98
391.097	408.74
391.311	36.01
391.525	-176.98
391.738	169.13
391.952	195.75
392.166	-109.4
392.38	-262.99
392.594	203.94
392.808	310.44
393.022	-109.4
393.236	-172.88
393.449	140.46
393.663	220.33
393.877	-232.27
394.091	-181.07
394.305	-179.03
394.518	-160.59
394.732	-316.24
394.946	-238.42
395.16	402.6
395.373	124.07
395.587	-168.79
395.801	-187.22
396.015	335.01
396.228	259.24
396.442	-355.15
396.656	-365.39
396.869	320.68
397.083	480.42
397.297	-125.78
397.51	-148.31
397.724	322.73
397.938	160.94
398.151	-351.06
398.365	-252.75
398.578	142.5
398.792	265.38
399.005	-58.2
399.219	-105.3
399.433	242.85
399.646	60.59
399.86	52.39
400.073	-33.62
400.287	138.41
400.5	-50
400.714	-13.14
400.927	-97.11
401.141	191.66
401.354	1049.75
401.567	191.66
401.781	-326.48
401.994	244.9
402.208	652.45
402.421	-70.48
402.635	-131.92
402.848	1.19
403.061	162.98
403.275	-115.54
403.488	-293.71
403.701	408.74
403.915	115.88
404.128	-41.81
404.341	-217.94
404.555	210.09
404.768	-25.43
404.981	-19.29
405.195	-179.03
405.408	412.84
405.621	195.75
405.834	1.19
406.048	-287.57
406.261	380.07
406.474	384.16
406.687	-308.05
406.9	11.43
407.114	89.26
407.327	85.16
407.54	-379.73
407.753	-310.1
407.966	-148.31
408.179	228.52
408.392	-187.22
408.605	-414.54
408.819	203.94
409.032	232.62
409.245	-222.03
409.458	15.53
409.671	156.84
409.884	257.19
410.097	-414.54
410.31	-52.05
410.523	150.7
410.736	5.29
410.949	-148.31
411.162	-82.77
411.375	441.51
411.588	339.11
411.801	40.11
412.014	-246.61
412.227	31.91
412.44	-90.96
412.653	-203.6
412.865	-19.29
413.078	251.05
413.291	167.08
413.504	-107.35
413.717	-222.03
413.93	187.56
414.143	-183.12
414.356	-166.74
414.568	-387.92
414.781	208.04
414.994	167.08
415.207	-45.91
415.42	-217.94
415.632	249
415.845	498.85
416.058	-363.34
416.271	-301.9
416.483	52.39
416.696	488.61
416.909	-285.52
417.121	-271.19
417.334	54.44
417.547	527.52
417.759	-222.03
417.972	-250.71
418.185	-29.52
418.397	175.27
418.61	-136.02
418.823	-197.46
419.035	390.31
419.248	36.01
419.46	-95.06
419.673	-150.36
419.885	117.93
420.098	15.53
420.311	-207.7
420.523	-369.49
420.736	189.61
420.948	7.34
421.161	-164.69
421.373	-402.26
421.586	160.94
421.798	-56.15
422.01	-371.54
422.223	-136.02
422.435	-27.48
422.648	246.95
422.86	-189.27
423.073	-230.23
423.285	285.86
423.497	-308.05
423.71	-244.56
423.922	-217.94
424.134	72.87
424.347	418.98
424.559	1.19
424.771	109.74
424.984	-21.33
425.196	193.7
425.408	-371.54
425.621	-291.66
425.833	185.51
426.045	371.88
426.257	-328.53
426.47	-219.99
426.682	134.31
426.894	253.09
427.106	-185.17
427.318	-179.03
427.531	-207.7
427.743	122.02
427.955	-334.67
428.167	263.33
428.379	134.31
428.591	-41.81
428.804	-127.83
429.016	-238.42
429.228	-54.1
429.44	101.55
429.652	7.34
429.864	-359.25
430.076	-152.4
430.288	15.53
430.5	-197.46
430.712	7.34
430.924	339.11
431.136	54.44
431.348	-324.43
431.56	-205.65
431.772	13.48
431.984	-162.64
432.196	-260.95
432.408	-185.17
432.62	-56.15
432.832	113.83
433.044	56.49
433.256	-99.16
433.468	132.26
433.679	-289.62
433.891	-271.19
434.103	11.43
434.315	359.59
434.527	193.7
434.739	-80.72
434.95	-224.08
435.162	181.42
435.374	-111.44
435.586	-191.31
435.798	-222.03
436.009	-219.99
436.221	-123.73
436.433	-127.83
436.645	-144.21
436.856	-129.88
437.068	171.18
437.28	-271.19
437.491	76.97
437.703	183.46
437.915	140.46
438.126	-195.41
438.338	-39.76
438.55	-2.9
438.761	150.7
438.973	-156.5
439.184	-181.07
439.396	-4.95
439.608	214.18
439.819	-269.14
440.031	-113.49
440.242	222.38
440.454	162.98
440.665	-271.19
440.877	-164.69
441.088	193.7
441.3	-70.48
441.511	-283.47
441.723	-265.04
441.934	160.94
442.146	27.82
442.357	-41.81
442.569	122.02
442.78	64.68
442.991	408.74
443.203	150.7
443.414	-351.06
443.626	316.58
443.837	-164.69
444.048	-289.62
444.26	-394.06
444.471	169.13
444.682	244.9
444.894	-498.51
445.105	-361.3
445.316	203.94
445.528	146.6
445.739	-88.92
445.95	-205.65
446.161	117.93
446.373	265.38
446.584	-283.47
446.795	-271.19
447.006	185.51
447.217	357.54
447.429	-365.39
447.64	-316.24
447.851	320.68
448.062	7.34
448.273	-342.86
448.484	-246.61
448.695	205.99
448.907	-154.45
449.118	-84.82
449.329	-39.76
449.54	-103.25
449.751	-232.27
449.962	-234.32
450.173	-213.84
450.384	234.66
450.595	273.57
450.806	-258.9
451.017	-189.27
451.228	277.67
451.439	269.48
451.65	-232.27
451.861	-379.73
452.072	-146.26
452.283	-13.14
452.494	-80.72
452.705	-312.14
452.915	322.73
453.126	111.78
453.337	-123.73
453.548	-160.59
453.759	212.14
453.97	515.23
454.181	-25.43
454.391	-176.98
454.602	50.35
454.813	142.5
455.024	-152.4
455.235	-250.71
455.445	109.74
455.656	165.03
455.867	-45.91
456.078	-262.99
456.288	-37.72
456.499	79.02
456.71	-246.61
456.921	-41.81
457.131	173.22
457.342	132.26
457.553	-115.54
457.763	-254.8
457.974	158.89
458.184	230.57
458.395	-357.2
458.606	-310.1
458.816	318.63
459.027	457.89
459.237	-39.76
459.448	-418.64
459.659	316.58
459.869	623.78
460.08	-414.54
460.29	-140.12
460.501	521.38
460.711	-78.68
460.922	-412.5
461.132	-254.8
461.343	715.94
461.553	-344.91
461.764	-269.14
461.974	-291.66
462.184	179.37
462.395	146.6
462.605	-199.51
462.816	-318.29
463.026	42.15
463.236	283.81
463.447	-318.29
463.657	-334.67
463.867	283.81
464.078	-80.72
464.288	-181.07
464.498	-226.13
464.709	33.96
464.919	-2.9
465.129	-176.98
465.339	-215.89
465.55	46.25
465.76	136.36
465.97	-222.03
466.18	-273.23
466.391	101.55
466.601	107.69
466.811	-174.93
467.021	-416.59
467.231	89.26
467.441	244.9
467.651	-207.7
467.862	-488.27
468.072	68.78
468.282	296.1
468.492	-250.71
468.702	-164.69
468.912	-9.05
469.122	599.2
469.332	23.72
469.542	-369.49
469.752	259.24
469.962	25.77
470.172	-320.34
470.382	-310.1
470.592	242.85
470.802	277.67
471.012	-107.35
471.222	-283.47
471.432	238.76
471.642	154.79
471.852	-168.79
472.062	-324.43
472.272	-45.91
472.482	-283.47
472.691	-334.67
472.901	-355.15
473.111	42.15
473.321	504.99
473.531	-312.14
473.741	-164.69
473.95	122.02
474.16	146.6
474.37	-209.75
474.58	-377.68
474.79	435.36
474.999	142.5
475.209	-279.38
475.419	-260.95
475.628	-133.97
475.838	298.15
476.048	-181.07
476.258	-303.95
476.467	298.15
476.677	-131.92
476.886	-17.24
477.096	-172.88
477.306	-125.78
477.515	351.4
477.725	-234.32
477.935	-117.59
478.144	373.92
478.354	-152.4
478.563	-213.84
478.773	-320.34
478.982	201.9
479.192	318.63
479.401	-183.12
479.611	-340.82
479.82	-168.79
480.03	56.49
480.239	-295.76
480.449	-361.3
480.658	476.32
480.868	-88.92
481.077	-70.48
481.287	-228.18
481.496	101.55
481.705	330.92
481.915	60.59
482.124	9.39
482.333	130.22
482.543	351.4
482.752	-117.59
482.961	-342.86
483.171	165.03
483.38	-70.48
483.589	-195.41
483.799	-383.82
484.008	-39.76
484.217	275.62
484.426	-238.42
484.636	-387.92
484.845	62.63
485.054	-314.19
485.263	-2.9
485.472	-269.14
485.682	332.97
485.891	107.69
486.1	-406.35
486.309	-269.14
486.518	195.75
486.727	353.45
486.936	-387.92
487.146	-13.14
487.355	363.69
487.564	-246.61
487.773	-285.52
487.982	-310.1
488.191	-9.05
488.4	27.82
488.609	-213.84
488.818	-242.51
489.027	523.43
489.236	330.92
489.445	-160.59
489.654	-217.94
489.863	224.42
490.072	146.6
490.281	87.21
490.49	-238.42
490.698	492.71
490.907	433.32
491.116	-222.03
491.325	-469.84
491.534	302.25
491.743	93.35
491.952	-142.16
492.16	-207.7
492.369	132.26
492.578	316.58
492.787	-146.26
492.996	-318.29
493.204	-97.11
493.413	453.8
493.622	-441.17
493.831	-451.41
494.039	390.31
494.248	-222.03
494.457	-320.34
494.665	-381.78
494.874	199.85
495.083	543.91
495.291	-195.41
495.5	-248.66
495.709	238.76
495.917	23.72
496.126	-250.71
496.335	-402.26
496.543	-150.36
496.752	81.07
496.96	11.43
497.169	-430.93
497.377	50.35
497.586	292.01
497.794	-103.25
498.003	-484.17
498.211	56.49
498.42	335.01
498.628	-195.41
498.837	-394.06
499.045	101.55
499.254	76.97
499.462	-258.9
499.671	-267.09
499.879	484.52
500.087	236.71
500.296	-344.91
500.504	-277.33
500.713	130.22
500.921	509.09
501.129	-291.66
501.338	-279.38
501.546	91.31
501.754	27.82
501.962	-240.47
502.171	-369.49
502.379	87.21
502.587	533.67
502.795	-205.65
503.004	-289.62
503.212	11.43
503.42	208.04
503.628	-187.22
503.837	-170.83
504.045	144.55
504.253	439.46
504.461	-254.8
504.669	-478.03
504.877	165.03
505.085	332.97
505.294	-488.27
505.502	-29.52
505.71	58.54
505.918	208.04
506.126	-330.58
506.334	-369.49
506.542	-13.14
506.75	85.16
506.958	-156.5
507.166	-222.03
507.374	-60.24
507.582	433.32
507.79	-103.25
507.998	-338.77
508.206	117.93
508.414	132.26
508.622	-332.62
508.83	-289.62
509.037	490.66
509.245	-50
509.453	-349.01
509.661	-375.63
509.869	269.48
510.077	-127.83
510.285	-226.13
510.492	-549.71
510.7	703.65
510.908	23.72
511.116	-240.47
511.324	-230.23
511.531	-131.92
511.739	107.69
511.947	-99.16
512.155	89.26
512.362	95.4
512.57	-324.43
512.778	-381.78
512.985	-439.12
513.193	150.7
513.401	369.83
513.608	-172.88
513.816	-330.58
514.024	146.6
514.231	345.25
514.439	-260.95
514.646	-301.9
514.854	95.4
515.061	244.9
515.269	-322.38
515.477	-275.28
515.684	-224.08
515.892	294.05
516.099	-439.12
516.307	-402.26
516.514	185.51
516.722	398.5
516.929	-267.09
517.136	-330.58
517.344	388.26
517.551	158.89
517.759	-299.86
517.966	-365.39
518.173	-50
518.381	85.16
518.588	-234.32
518.796	-260.95
519.003	218.28
519.21	31.91
519.418	-303.95
519.625	21.67
519.832	1.19
520.039	181.42
520.247	-428.88
520.454	-213.84
520.661	203.94
520.868	220.33
521.076	-195.41
521.283	-187.22
521.49	656.54
521.697	58.54
521.904	-164.69
522.112	-230.23
522.319	191.66
522.526	124.07
522.733	-265.04
522.94	-367.44
523.147	-82.77
523.354	246.95
523.561	-471.89
523.768	-131.92
523.975	246.95
524.183	15.53
524.39	-187.22
524.597	-344.91
524.804	60.59
525.011	-172.88
525.218	-303.95
525.425	-308.05
525.632	392.36
525.838	-166.74
526.045	-299.86
526.252	-310.1
526.459	1199.26
526.666	812.19
526.873	-281.43
527.08	-242.51
527.287	392.36
527.494	220.33
527.701	-373.58
527.907	-357.2
528.114	113.83
528.321	9.39
528.528	-262.99
528.735	-375.63
528.941	-189.27
529.148	-127.83
529.355	-217.94
529.562	-301.9
529.768	363.69
529.975	-58.2
530.182	-285.52
530.388	-295.76
530.595	261.29
530.802	-318.29
531.008	-140.12
531.215	-181.07
531.422	421.03
531.628	769.18
531.835	-160.59
532.042	-150.36
532.248	-27.48
532.455	89.26
532.661	-265.04
532.868	-324.43
533.074	85.16
533.281	193.7
533.487	-107.35
533.694	-357.2
533.9	-222.03
534.107	158.89
534.313	-377.68
534.52	-351.06
534.726	298.15
534.933	560.29
535.139	-361.3
535.345	-412.5
535.552	60.59
535.758	87.21
535.965	-230.23
536.171	-222.03
536.377	175.27
536.584	421.03
536.79	-308.05
536.996	-236.37
537.203	142.5
537.409	101.55
537.615	-262.99
537.821	9.39
538.028	187.56
538.234	249
538.44	-271.19
538.646	-246.61
538.853	179.37
539.059	-37.72
539.265	181.42
539.471	-361.3
539.677	275.62
539.883	-50
540.09	-291.66
540.296	150.7
540.502	-58.2
540.708	-123.73
540.914	-107.35
541.12	-326.48
541.326	224.42
541.532	-43.86
541.738	-158.55
541.944	-211.79
542.15	230.57
542.356	-64.34
542.562	-242.51
542.768	-232.27
542.974	550.05
543.18	572.58
543.386	-285.52
543.592	-432.97
543.798	341.16
544.004	279.72
544.21	-324.43
544.415	-262.99
544.621	89.26
544.827	240.81
545.033	-383.82
545.239	-15.19
545.445	-230.23
545.651	58.54
545.856	-254.8
546.062	-267.09
546.268	-140.12
546.474	-11.09
546.679	-252.75
546.885	-142.16
547.091	-90.96
547.297	572.58
547.502	-228.18
547.708	-377.68
547.914	-162.64
548.119	140.46
548.325	-254.8
548.531	-344.91
548.736	408.74
548.942	-133.97
549.147	-312.14
549.353	-58.2
549.559	246.95
549.764	13.48
549.97	-316.24
550.175	-217.94
550.381	146.6
550.586	-80.72
550.792	-238.42
550.997	-320.34
551.203	140.46
551.408	197.8
551.614	-355.15
551.819	-385.87
552.025	359.59
552.23	435.36
552.435	-420.69
552.641	-133.97
552.846	-146.26
553.052	380.07
553.257	-154.45
553.462	-228.18
553.668	-162.64
553.873	279.72
554.078	-320.34
554.283	-301.9
554.489	68.78
554.694	-4.95
554.899	-306
555.105	-11.09
555.31	109.74
555.515	220.33
555.72	-146.26
555.925	-295.76
556.131	232.62
556.336	-88.92
556.541	-381.78
556.746	-369.49
556.951	384.16
557.156	457.89
557.361	-181.07
557.567	-144.21
557.772	453.8
557.977	130.22
558.182	-279.38
558.387	-238.42
558.592	-174.93
558.797	294.05
559.002	-283.47
559.207	-125.78
559.412	97.45
559.617	496.8
559.822	-271.19
560.027	-346.96
560.232	115.88
560.437	205.99
560.642	-447.31
560.847	-373.58
561.051	13.48
561.256	167.08
561.461	-217.94
561.666	-353.1
561.871	136.36
562.076	138.41
562.281	-158.55
562.485	-346.96
562.69	257.19
562.895	253.09
563.1	-256.85
563.305	-320.34
563.509	427.17
563.714	570.53
563.919	-295.76
564.123	-285.52
564.328	-99.16
564.533	312.49
564.737	-162.64
564.942	-295.76
565.147	425.12
565.351	476.32
565.556	-131.92
565.761	-111.44
565.965	203.94
566.17	-131.92
566.374	-201.55
566.579	-369.49
566.784	46.25
566.988	-111.44
567.193	-355.15
567.397	-228.18
567.602	-246.61
567.806	-13.14
568.011	-224.08
568.215	-146.26
568.42	-29.52
568.624	-39.76
568.828	-330.58
569.033	-54.1
569.237	326.82
569.442	203.94
569.646	-336.72
569.85	-219.99
570.055	-70.48
570.259	179.37
570.463	-23.38
570.668	-248.66
570.872	60.59
571.076	9.39
571.281	-152.4
571.485	-179.03
571.689	119.98
571.893	251.05
572.098	-105.3
572.302	-242.51
572.506	179.37
572.71	52.39
572.914	-195.41
573.119	-185.17
573.323	402.6
573.527	406.69
573.731	-234.32
573.935	-355.15
574.139	244.9
574.343	-131.92
574.547	-230.23
574.751	-146.26
574.955	328.87
575.159	304.29
575.364	-262.99
575.568	-303.95
575.772	64.68
575.976	347.3
576.18	-332.62
576.383	-400.21
576.587	345.25
576.791	216.23
576.995	-422.73
577.199	-426.83
577.403	271.53
577.607	353.45
577.811	-279.38
578.015	-172.88
578.219	122.02
578.422	287.91
578.626	-131.92
578.83	-23.38
579.034	339.11
579.238	81.07
579.442	-349.01
579.645	128.17
579.849	25.77
580.053	72.87
580.257	-191.31
580.46	-170.83
580.664	222.38
580.868	226.47
581.071	17.58
581.275	-185.17
581.479	-187.22
581.682	236.71
581.886	-295.76
582.09	-74.58
582.293	183.46
582.497	324.77
582.7	48.3
582.904	-318.29
583.107	154.79
583.311	-50
583.515	-148.31
583.718	-121.68
583.922	105.64
584.125	496.8
584.329	-199.51
584.532	19.63
584.735	367.78
584.939	244.9
585.142	-416.59
585.346	-287.57
585.549	175.27
585.753	-31.57
585.956	-179.03
586.159	-136.02
586.363	408.74
586.566	165.03
586.769	-326.48
586.973	-332.62
587.176	236.71
587.379	318.63
587.582	89.26
587.786	38.06
587.989	58.54
588.192	728.22
588.395	-99.16
588.599	33.96
588.802	146.6
589.005	236.71
589.208	-148.31
589.411	-168.79
589.615	349.35
589.818	406.69
590.021	-9.05
590.224	-164.69
590.427	238.76
590.63	218.28
590.833	-344.91
591.036	-256.85
591.239	-21.33
591.442	-54.1
591.645	-4.95
591.848	-207.7
592.051	138.41
592.254	328.87
592.457	-131.92
592.66	-142.16
592.863	31.91
593.066	308.39
593.269	-240.47
593.472	-117.59
593.675	-123.73
593.878	251.05
594.081	23.72
594.284	-207.7
594.486	201.9
594.689	101.55
594.892	-150.36
595.095	-189.27
595.298	257.19
595.5	29.87
595.703	-25.43
595.906	-25.43
596.109	427.17
596.311	324.77
596.514	-453.45
596.717	-160.59
596.92	478.37
597.122	203.94
597.325	-441.17
597.528	-295.76
597.73	357.54
597.933	201.9
598.136	-279.38
598.338	-426.83
598.541	269.48
598.743	453.8
598.946	-119.64
599.148	-123.73
599.351	431.27
599.554	324.77
599.756	-47.96
599.959	-142.16
600.161	472.23
600.363	695.46
600.566	64.68
600.768	-154.45
600.971	556.19
601.173	261.29
601.376	-115.54
601.578	-156.5
601.78	263.33
601.983	756.9
602.185	-219.99
602.388	58.54
602.59	224.42
602.792	31.91
602.995	64.68
603.197	-213.84
603.399	363.69
603.601	216.23
603.804	-84.82
604.006	-148.31
604.208	76.97
604.41	-281.43
604.613	85.16
604.815	-174.93
605.017	674.98
605.219	-37.72
605.421	267.43
605.623	-144.21
605.826	443.56
606.028	507.04
606.23	-232.27
606.432	-213.84
606.634	552.1
606.836	382.12
607.038	-277.33
607.24	48.3
607.442	222.38
607.644	165.03
607.846	-17.24
608.048	-246.61
608.25	527.52
608.452	-82.77
608.654	-82.77
608.856	-369.49
609.058	38.06
609.26	316.58
609.462	13.48
609.664	-9.05
609.866	586.91
610.067	361.64
610.269	81.07
610.471	-47.96
610.673	-7
610.875	400.55
611.077	-250.71
611.278	-39.76
611.48	216.23
611.682	586.91
611.884	-50
612.085	-2.9
612.287	-111.44
612.489	294.05
612.69	-254.8
612.892	-107.35
613.094	451.75
613.295	201.9
613.497	-152.4
613.699	-88.92
613.9	543.91
614.102	369.83
614.304	-58.2
614.505	-258.9
614.707	111.78
614.908	220.33
615.11	-183.12
615.311	-23.38
615.513	418.98
615.714	431.27
615.916	-189.27
616.117	-47.96
616.319	175.27
616.52	324.77
616.722	-123.73
616.923	-95.06
617.124	511.14
617.326	304.29
617.527	9.39
617.729	101.55
617.93	292.01
618.131	310.44
618.333	-142.16
618.534	-84.82
618.735	-54.1
618.937	517.28
619.138	-176.98
619.339	-211.79
619.54	359.59
619.742	101.55
619.943	42.15
620.144	-4.95
620.345	502.95
620.546	394.4
620.748	-117.59
620.949	-45.91
621.15	175.27
621.351	249
621.552	-54.1
621.753	-267.09
621.954	-228.18
622.155	689.31
622.356	-217.94
622.558	13.48
622.759	165.03
622.96	597.15
623.161	1.19
623.362	29.87
623.563	179.37
623.764	187.56
623.965	-62.29
624.166	70.83
624.366	144.55
624.567	212.14
624.768	-359.25
624.969	-66.39
625.17	101.55
625.371	339.11
625.572	1.19
625.773	-148.31
625.973	421.03
626.174	470.18
626.375	56.49
626.576	-13.14
626.777	316.58
626.977	834.72
627.178	-99.16
627.379	46.25
627.58	187.56
627.78	201.9
627.981	44.2
628.182	62.63
628.382	513.19
628.583	-88.92
628.784	-199.51
628.984	189.61
629.185	367.78
629.386	449.7
629.586	1.19
629.787	-136.02
629.987	287.91
630.188	212.14
630.388	-43.86
630.589	-50
630.79	791.71
630.99	232.62
631.191	56.49
631.391	76.97
631.591	386.21
631.792	677.02
631.992	83.11
632.193	40.11
632.393	601.25
632.594	236.71
632.794	-64.34
632.994	140.46
633.195	230.57
633.395	314.53
633.595	-68.44
633.796	162.98
633.996	48.3
634.196	607.39
634.397	-246.61
634.597	93.35
634.797	76.97
634.997	545.95
635.198	224.42
635.398	-115.54
635.598	279.72
635.798	595.11
635.998	306.34
636.199	-117.59
636.399	195.75
636.599	-17.24
636.799	9.39
636.999	289.96
637.199	378.02
637.399	576.67
637.599	21.67
637.799	128.17
637.999	128.17
638.199	621.73
638.399	13.48
638.599	48.3
638.799	433.32
638.999	707.74
639.199	222.38
639.399	173.22
639.599	660.64
639.799	95.4
639.999	-101.2
640.199	-150.36
640.399	287.91
640.599	388.26
640.799	38.06
640.998	171.18
641.198	599.2
641.398	365.73
641.598	72.87
641.798	97.45
641.997	1277.08
642.197	267.43
642.397	109.74
642.597	44.2
642.796	523.43
642.996	683.17
643.196	208.04
643.395	-50
643.595	464.04
643.795	-66.39
643.994	95.4
644.194	48.3
644.394	525.47
644.593	330.92
644.793	-131.92
644.992	205.99
645.192	353.45
645.392	-50
645.591	119.98
645.791	101.55
645.99	474.28
646.19	375.97
646.389	60.59
646.589	36.01
646.788	453.8
646.987	509.09
647.187	347.3
647.386	255.14
647.586	359.59
647.785	472.23
647.984	117.93
648.184	195.75
648.383	173.22
648.582	224.42
648.782	72.87
648.981	255.14
649.18	117.93
649.38	423.08
649.579	52.39
649.778	72.87
649.977	412.84
650.177	439.46
650.376	89.26
650.575	36.01
650.774	689.31
650.973	167.08
651.173	-54.1
651.372	109.74
651.571	441.51
651.77	539.81
651.969	109.74
652.168	220.33
652.367	-29.52
652.566	343.21
652.765	64.68
652.964	416.93
653.163	844.96
653.362	285.86
653.561	70.83
653.76	91.31
653.959	269.48
654.158	511.14
654.357	294.05
654.556	195.75
654.755	519.33
654.954	552.1
655.153	111.78
655.352	146.6
655.551	726.18
655.749	179.37
655.948	197.8
656.147	152.74
656.346	437.41
656.545	349.35
656.743	158.89
656.942	234.66
657.141	367.78
657.34	117.93
657.538	138.41
657.737	115.88
657.936	220.33
658.135	545.95
658.333	115.88
658.532	216.23
658.731	834.72
658.929	607.39
659.128	388.26
659.326	66.73
659.525	777.37
659.724	335.01
659.922	33.96
660.121	132.26
660.319	461.99
660.518	220.33
660.716	1.19
660.915	50.35
661.113	748.7
661.312	93.35
661.51	326.82
661.709	23.72
661.907	556.19
662.105	799.9
662.304	109.74
662.502	130.22
662.701	648.35
662.899	289.96
663.097	461.99
663.296	-27.48
663.494	650.4
663.692	763.04
663.891	81.07
664.089	68.78
664.287	529.57
664.485	765.09
664.684	107.69
664.882	269.48
665.08	345.25
665.278	382.12
665.476	58.54
665.675	394.4
665.873	859.29
666.071	697.5
666.269	158.89
666.467	371.88
666.665	482.47
666.863	386.21
667.061	287.91
667.259	201.9
667.457	478.37
667.655	543.91
667.853	48.3
668.051	351.4
668.249	273.57
668.447	548
668.645	107.69
668.843	404.64
669.041	566.43
669.239	380.07
669.437	347.3
669.635	335.01
669.833	373.92
670.031	593.06
670.229	394.4
670.426	398.5
670.624	369.83
670.822	314.53
671.02	224.42
671.218	236.71
671.415	214.18
671.613	625.83
671.811	320.68
672.009	332.97
672.206	670.88
672.404	496.8
672.602	435.36
672.799	314.53
672.997	513.19
673.195	658.59
673.392	363.69
673.59	140.46
673.788	683.17
673.985	9.39
674.183	365.73
674.38	242.85
674.578	695.46
674.775	300.2
674.973	228.52
675.17	244.9
675.368	814.24
675.565	599.2
675.763	97.45
675.96	132.26
676.158	740.51
676.355	416.93
676.553	236.71
676.75	294.05
676.947	459.94
677.145	335.01
677.342	341.16
677.539	365.73
677.737	519.33
677.934	957.6
678.131	449.7
678.329	203.94
678.526	867.49
678.723	623.78
678.92	351.4
679.118	337.06
679.315	183.46
679.512	797.85
679.709	357.54
679.906	283.81
680.104	736.42
680.301	502.95
680.498	156.84
680.695	154.79
680.892	388.26
681.089	347.3
681.286	386.21
681.483	122.02
681.68	670.88
681.877	664.74
682.075	292.01
682.272	466.08
682.469	601.25
682.665	482.47
682.862	208.04
683.059	154.79
683.256	588.96
683.453	588.96
683.65	369.83
683.847	218.28
684.044	435.36
684.241	365.73
684.438	425.12
684.635	187.56
684.831	949.4
685.028	978.08
685.225	269.48
685.422	492.71
685.619	543.91
685.815	564.39
686.012	341.16
686.209	337.06
686.405	306.34
686.602	664.74
686.799	130.22
686.996	240.81
687.192	322.73
687.389	1045.66
687.586	273.57
687.782	236.71
687.979	982.17
688.175	765.09
688.372	339.11
688.568	285.86
688.765	310.44
688.962	914.59
689.158	498.85
689.355	220.33
689.551	715.94
689.748	433.32
689.944	384.16
690.14	208.04
690.337	763.04
690.533	494.76
690.73	535.71
690.926	433.32
691.123	629.92
691.319	543.91
691.515	343.21
691.712	564.39
691.908	646.3
692.104	648.35
692.301	441.51
692.497	228.52
692.693	707.74
692.889	797.85
693.086	429.22
693.282	189.61
693.478	591.01
693.674	980.12
693.87	367.78
694.067	267.43
694.263	685.22
694.459	461.99
694.655	527.52
694.851	445.6
695.047	715.94
695.243	765.09
695.439	584.87
695.635	312.49
695.831	703.65
696.027	558.24
696.224	433.32
696.42	662.69
696.615	883.87
696.811	793.76
697.007	230.57
697.203	400.55
697.399	650.4
697.595	844.96
697.791	285.86
697.987	625.83
698.183	396.45
698.379	384.16
698.575	437.41
698.77	412.84
698.966	834.72
699.162	875.68
699.358	441.51
699.554	498.85
699.749	830.62
699.945	914.59
700.141	418.98
700.337	595.11
700.532	584.87
700.728	425.12
700.924	322.73
701.119	330.92
701.315	744.61
701.511	541.86
701.706	476.32
701.902	234.66
702.097	631.97
702.293	824.48
702.489	449.7
702.684	388.26
702.88	648.35
703.075	449.7
703.271	439.46
703.466	326.82
703.662	631.97
703.857	709.79
704.053	345.25
704.248	433.32
704.443	847.01
704.639	867.49
704.834	515.23
705.03	373.92
705.225	885.92
705.42	992.41
705.616	566.43
705.811	363.69
706.006	623.78
706.202	556.19
706.397	570.53
706.592	408.74
706.787	642.21
706.983	656.54
707.178	683.17
707.373	525.47
707.568	959.64
707.763	935.07
707.959	476.32
708.154	482.47
708.349	666.78
708.544	777.37
708.739	656.54
708.934	437.41
709.129	973.98
709.324	879.77
709.519	437.41
709.714	361.64
709.909	986.27
710.104	787.61
710.299	484.52
710.494	498.85
710.689	906.4
710.884	601.25
711.079	564.39
711.274	730.27
711.469	894.11
711.664	789.66
711.859	410.79
712.054	656.54
712.249	867.49
712.443	963.74
712.638	326.82
712.833	414.88
713.028	722.08
713.223	687.26
713.417	797.85
713.612	490.66
713.807	871.58
714.002	1326.23
714.196	699.55
714.391	476.32
714.586	984.22
714.78	760.99
714.975	502.95
715.17	457.89
715.364	652.45
715.559	894.11
715.754	214.18
715.948	445.6
716.143	1219.74
716.337	867.49
716.532	744.61
716.726	474.28
716.921	904.35
717.115	1070.23
717.31	384.16
717.504	994.46
717.699	666.78
717.893	967.84
718.088	459.94
718.282	421.03
718.476	810.14
718.671	828.57
718.865	574.63
719.059	494.76
719.254	748.7
719.448	1115.29
719.642	1858.7
719.837	421.03
720.031	959.64
720.225	1072.28
720.419	603.3
720.614	562.34
720.808	937.12
721.002	715.94
721.196	490.66
721.39	537.76
721.585	1100.95
721.779	832.67
721.973	646.3
722.167	341.16
722.361	830.62
722.555	1080.47
722.749	453.8
722.943	566.43
723.137	570.53
723.331	838.81
723.525	507.04
723.719	580.77
723.913	951.45
724.107	1121.43
724.301	416.93
724.495	756.9
724.689	1215.64
724.883	1141.91
725.077	621.73
725.271	564.39
725.465	1041.56
725.659	765.09
725.853	543.91
726.046	353.45
726.24	664.74
726.434	961.69
726.628	433.32
726.822	662.69
727.015	1107.1
727.209	1070.23
727.403	646.3
727.596	441.51
727.79	1019.04
727.984	1004.7
728.177	562.34
728.371	603.3
728.565	1045.66
728.758	568.48
728.952	552.1
729.146	539.81
729.339	1129.63
729.533	808.09
729.726	724.13
729.92	515.23
730.113	1051.8
730.307	822.43
730.5	564.39
730.694	541.86
730.887	838.81
731.081	961.69
731.274	457.89
731.468	613.54
731.661	928.92
731.854	806.05
732.048	593.06
732.241	402.6
732.435	609.44
732.628	951.45
732.821	668.83
733.014	658.59
733.208	543.91
733.401	1057.95
733.594	652.45
733.788	584.87
733.981	1066.14
734.174	922.78
734.367	537.76
734.56	797.85
734.754	1045.66
734.947	867.49
735.14	607.39
735.333	595.11
735.526	984.22
735.719	656.54
735.912	539.81
736.105	556.19
736.298	808.09
736.491	832.67
736.684	478.37
736.877	576.67
737.07	998.56
737.263	1225.88
737.456	599.2
737.649	566.43
737.842	572.58
738.035	935.07
738.228	574.63
738.421	849.05
738.614	1180.82
738.807	1137.82
739	498.85
739.192	484.52
739.385	1064.09
739.578	1027.23
739.771	883.87
739.964	668.83
740.156	1000.6
740.349	795.81
740.542	822.43
740.735	470.18
740.927	629.92
741.12	666.78
741.313	537.76
741.505	754.85
741.698	1016.99
741.891	1014.94
742.083	748.7
742.276	580.77
742.468	982.17
742.661	869.53
742.854	683.17
743.046	550.05
743.239	1303.7
743.431	863.39
743.624	740.51
743.816	441.51
744.009	922.78
744.201	992.41
744.393	933.02
744.586	638.11
744.778	1250.46
744.971	900.25
745.163	818.33
745.355	785.57
745.548	1023.13
745.74	863.39
745.932	697.5
746.125	689.31
746.317	1520.79
746.509	982.17
746.702	736.42
746.894	881.82
747.086	961.69
747.278	1277.08
747.471	863.39
747.663	617.63
747.855	947.36
748.047	1385.62
748.239	668.83
748.431	625.83
748.623	1301.65
748.815	1293.46
749.008	689.31
749.2	629.92
749.392	1066.14
749.584	1072.28
749.776	717.98
749.968	810.14
750.16	1330.33
750.352	910.49
750.544	752.8
750.736	599.2
750.928	1053.85
751.12	990.36
751.311	769.18
751.503	844.96
751.695	1064.09
751.887	1037.47
752.079	490.66
752.271	756.9
752.463	1760.4
752.654	1109.15
752.846	769.18
753.038	767.13
753.23	838.81
753.421	1199.26
753.613	793.76
753.805	892.06
753.997	1197.21
754.188	1213.59
754.38	629.92
754.572	750.75
754.763	914.59
754.955	1201.3
755.146	797.85
755.338	844.96
755.53	1047.71
755.721	1010.84
755.913	595.11
756.104	638.11
756.296	892.06
756.487	1148.06
756.679	674.98
756.87	812.19
757.062	814.24
757.253	1248.41
757.445	711.84
757.636	842.91
757.827	892.06
758.019	1555.6
758.21	701.6
758.401	742.56
758.593	1528.98
758.784	1260.7
758.975	625.83
759.167	691.36
759.358	924.83
759.549	1193.11
759.74	752.8
759.932	697.5
760.123	1250.46
760.314	941.21
760.505	881.82
760.696	658.59
760.888	1416.34
761.079	908.44
761.27	677.02
761.461	595.11
761.652	1305.75
761.843	953.5
762.034	646.3
762.225	1014.94
762.416	1080.47
762.607	1041.56
762.798	715.94
762.989	771.23
763.18	1883.28
763.371	1021.08
763.562	699.55
763.753	738.46
763.944	1205.4
764.135	1266.84
764.326	957.6
764.517	777.37
764.708	1082.52
764.899	1160.34
765.089	760.99
765.28	681.12
765.471	1139.87
765.662	1172.63
765.853	859.29
766.043	625.83
766.234	1289.37
766.425	1272.98
766.615	885.92
766.806	670.88
766.997	1266.84
767.187	1070.23
767.378	713.89
767.569	593.06
767.759	1129.63
767.95	1072.28
768.141	930.97
768.331	769.18
768.522	1039.51
768.712	1281.18
768.903	834.72
769.093	666.78
769.284	1408.15
769.474	1197.21
769.665	662.69
769.855	539.81
770.046	1219.74
770.236	986.27
770.426	1027.23
770.617	717.98
770.807	1213.59
770.998	1033.37
771.188	982.17
771.378	713.89
771.569	1305.75
771.759	1197.21
771.949	666.78
772.139	550.05
772.33	1143.96
772.52	1367.19
772.71	699.55
772.9	621.73
773.09	1453.2
773.281	1469.59
773.471	660.64
773.661	724.13
773.851	1350.81
774.041	967.84
774.231	683.17
774.421	851.1
774.611	1463.44
774.802	1035.42
774.992	867.49
775.182	699.55
775.372	1039.51
775.562	1354.9
775.752	873.63
775.942	826.53
776.131	1322.13
776.321	1207.45
776.511	828.57
776.701	658.59
776.891	1377.43
777.081	779.42
777.271	910.49
777.461	787.61
777.651	1371.29
777.84	1313.94
778.03	877.73
778.22	824.48
778.41	1356.95
778.599	861.34
778.789	869.53
778.979	808.09
779.169	1078.43
779.358	1068.19
779.548	1098.91
779.738	572.58
779.927	1152.15
780.117	887.97
780.307	828.57
780.496	597.15
780.686	1113.24
780.875	1469.59
781.065	842.91
781.254	754.85
781.444	1164.44
781.633	1131.67
781.823	763.04
782.012	791.71
782.202	1055.9
782.391	1031.32
782.581	748.7
782.77	1023.13
782.96	1297.56
783.149	1062.04
783.338	832.67
783.528	715.94
783.717	1354.9
783.906	1301.65
784.096	1041.56
784.285	648.35
784.474	883.87
784.663	1029.27
784.853	824.48
785.042	890.01
785.231	963.74
785.42	1242.26
785.61	949.4
785.799	730.27
785.988	1000.6
786.177	1074.33
786.366	830.62
786.555	998.56
786.744	1361.05
786.933	1107.1
787.122	638.11
787.312	609.44
787.501	957.6
787.69	1277.08
787.879	752.8
788.068	777.37
788.257	781.47
788.445	1049.75
788.634	937.12
788.823	691.36
789.012	1711.25
789.201	1373.33
789.39	847.01
789.579	801.95
789.768	1100.95
789.957	1146.01
790.145	912.54
790.334	562.34
790.523	945.31
790.712	1027.23
790.9	1014.94
791.089	752.8
791.278	1373.33
791.467	1258.65
791.655	1088.67
791.844	1289.37
792.033	1057.95
792.221	973.98
792.41	994.46
792.599	740.51
792.787	1215.64
792.976	1287.32
793.164	685.22
793.353	773.28
793.541	1352.85
793.73	1305.75
793.918	951.45
794.107	904.35
794.295	1129.63
794.484	1068.19
794.672	879.77
794.861	912.54
795.049	1219.74
795.238	1518.74
795.426	703.65
795.614	924.83
795.803	1232.02
795.991	1565.84
796.179	881.82
796.368	760.99
796.556	1445.01
796.744	908.44
796.932	851.1
797.121	763.04
797.309	1180.82
797.497	1381.53
797.685	982.17
797.874	873.63
798.062	1064.09
798.25	1424.53
798.438	838.81
798.626	830.62
798.814	1338.52
799.002	1735.82
799.19	1062.04
799.378	976.03
799.566	1369.24
799.755	1600.66
799.943	1096.86
800.131	754.85
800.318	1195.16
800.506	1234.07
800.694	900.25
800.882	1006.75
801.07	1547.41
801.258	1107.1
801.446	828.57
801.634	920.73
801.822	1184.92
802.01	1256.6
802.197	849.05
802.385	996.51
802.573	1223.83
802.761	1012.89
802.949	990.36
803.136	812.19
803.324	1402.01
803.512	1162.39
803.699	1139.87
803.887	693.41
804.075	1543.32
804.262	1055.9
804.45	797.85
804.638	1055.9
804.825	1000.6
805.013	1019.04
805.201	1041.56
805.388	795.81
805.576	1283.22
805.763	1645.71
805.951	908.44
806.138	992.41
806.326	1676.43
806.513	1258.65
806.701	996.51
806.888	834.72
807.075	1383.57
807.263	1606.8
807.45	818.33
807.638	1082.52
807.825	1600.66
808.012	1457.3
808.2	1105.05
808.387	1135.77
808.574	1338.52
808.761	1565.84
808.949	951.45
809.136	959.64
809.323	1184.92
809.51	1141.91
809.698	1270.94
809.885	1066.14
810.072	1252.5
810.259	1451.16
810.446	1100.95
810.633	973.98
810.82	1580.18
811.008	1598.61
811.195	1199.26
811.382	1029.27
811.569	1158.3
811.756	926.88
811.943	994.46
812.13	971.93
812.317	1111.19
812.504	1141.91
812.691	1176.73
812.878	1141.91
813.064	1774.74
813.251	1227.93
813.438	933.02
813.625	1057.95
813.812	1377.43
813.999	1232.02
814.186	1105.05
814.372	1008.8
814.559	1307.8
814.746	1713.3
814.933	1049.75
815.12	1301.65
815.306	1113.24
815.493	1117.34
815.68	994.46
815.866	1129.63
816.053	1465.49
816.24	1721.49
816.426	1092.76
816.613	916.64
816.799	1563.79
816.986	1633.43
817.173	1012.89
817.359	1039.51
817.546	1408.15
817.732	1143.96
817.919	902.3
818.105	1125.53
818.292	1262.74
818.478	1375.38
818.665	1240.22
818.851	1039.51
819.037	1856.65
819.224	1436.82
819.41	949.4
819.597	992.41
819.783	1694.86
819.969	1481.88
820.156	1158.3
820.342	900.25
820.528	2036.88
820.714	1344.66
820.901	1377.43
821.087	1111.19
821.273	1744.02
821.459	1359
821.646	935.07
821.832	1012.89
822.018	1367.19
822.204	1483.92
822.39	1127.58
822.576	918.68
822.762	1553.55
822.948	1416.34
823.134	1252.5
823.32	1100.95
823.507	1129.63
823.693	1451.16
823.879	1379.48
824.065	1014.94
824.25	1399.96
824.436	1103
824.622	1092.76
824.808	1055.9
824.994	1203.35
825.18	1268.89
825.366	834.72
825.552	998.56
825.738	1244.31
825.923	1674.39
826.109	1289.37
826.295	1059.99
826.481	1199.26
826.667	1346.71
826.852	1215.64
827.038	1041.56
827.224	1549.46
827.409	1854.61
827.595	971.93
827.781	1254.55
827.966	1598.61
828.152	1748.11
828.338	1162.39
828.523	1014.94
828.709	1256.6
828.894	1655.95
829.08	1195.16
829.266	1133.72
829.451	1277.08
829.637	1543.32
829.822	1232.02
830.008	1125.53
830.193	1604.75
830.378	1766.54
830.564	1232.02
830.749	1031.32
830.935	1522.84
831.12	1580.18
831.305	1129.63
831.491	1285.27
831.676	1141.91
831.861	1563.79
832.047	1158.3
832.232	957.6
832.417	1688.72
832.602	1404.05
832.788	1123.48
832.973	1115.29
833.158	1332.37
833.343	1451.16
833.528	1227.93
833.714	1197.21
833.899	1569.94
834.084	1850.51
834.269	1305.75
834.454	1172.63
834.639	1539.22
834.824	1318.04
835.009	1203.35
835.194	1309.85
835.379	1522.84
835.564	1776.78
835.749	1260.7
835.934	1006.75
836.119	1471.64
836.304	1371.29
836.489	1162.39
836.674	1483.92
836.859	1189.02
837.044	1705.1
837.228	1078.43
837.413	971.93
837.598	1551.51
837.783	1651.86
837.968	1197.21
838.152	994.46
838.337	842.91
838.522	1725.58
838.707	1539.22
838.891	1322.13
839.076	1500.31
839.261	1600.66
839.445	1209.5
839.63	1164.44
839.815	1827.98
839.999	1416.34
840.184	1123.48
840.368	1076.38
840.553	1594.51
840.737	1600.66
840.922	1010.84
841.106	1113.24
841.291	1240.22
841.475	1473.68
841.66	1078.43
841.844	1092.76
842.029	1975.44
842.213	1240.22
842.397	1129.63
842.582	1043.61
842.766	1719.44
842.951	1567.89
843.135	1229.98
843.319	1105.05
843.504	1488.02
843.688	1754.26
843.872	914.59
844.056	1080.47
844.241	1516.69
844.425	1301.65
844.609	1391.77
844.793	914.59
844.977	1647.76
845.161	1502.36
845.346	918.68
845.53	1182.87
845.714	1402.01
845.898	1750.16
846.082	892.06
846.266	1170.58
846.45	1383.57
846.634	1395.86
846.818	1195.16
847.002	1256.6
847.186	1461.4
847.37	1193.11
847.554	1100.95
847.738	1285.27
847.922	1385.62
848.106	1531.03
848.29	1008.8
848.473	1105.05
848.657	1584.27
848.841	1424.53
849.025	1137.82
849.209	930.97
849.392	1614.99
849.576	1397.91
849.76	814.24
849.944	1285.27
850.127	1750.16
850.311	1070.23
850.495	953.5
850.678	904.35
850.862	1610.9
851.046	1748.11
851.229	1383.57
851.413	1029.27
851.596	1301.65
851.78	1330.33
851.964	1287.32
852.147	1266.84
852.331	2083.98
852.514	1768.59
852.698	1258.65
852.881	1027.23
853.065	1696.91
853.248	1342.61
853.431	1311.89
853.615	1279.13
853.798	1950.86
853.982	1438.87
854.165	1369.24
854.348	1189.02
854.532	1178.78
854.715	1232.02
854.898	1115.29
855.081	1146.01
855.265	1713.3
855.448	1901.71
855.631	1049.75
855.814	1113.24
855.997	1637.52
856.181	1408.15
856.364	1221.78
856.547	924.83
856.73	1537.17
856.913	1322.13
857.096	1150.11
857.279	1262.74
857.462	1217.69
857.645	1655.95
857.828	1313.94
858.011	1248.41
858.194	1385.62
858.377	1608.85
858.56	1045.66
858.743	1213.59
858.926	1117.34
859.109	1623.19
859.292	1152.15
859.475	933.02
859.658	1748.11
859.841	1500.31
860.023	1035.42
860.206	1037.47
860.389	1569.94
860.572	1821.84
860.755	1172.63
860.937	1082.52
861.12	1395.86
861.303	1354.9
861.486	1318.04
861.668	949.4
861.851	1467.54
862.034	1485.97
862.216	1291.41
862.399	988.32
862.581	1483.92
862.764	1764.5
862.947	1285.27
863.129	1041.56
863.312	1033.37
863.494	1809.55
863.677	1492.12
863.859	978.08
864.042	1651.86
864.224	1817.74
864.406	1264.79
864.589	873.63
864.771	1459.35
864.954	1207.45
865.136	1064.09
865.318	949.4
865.501	1465.49
865.683	908.44
865.865	1186.97
866.048	1027.23
866.23	1481.88
866.412	1291.41
866.594	840.86
866.777	1211.54
866.959	1537.17
867.141	1215.64
867.323	1340.57
867.505	1236.12
867.687	1432.72
867.869	1393.81
868.052	1096.86
868.234	1107.1
868.416	1367.19
868.598	1537.17
868.78	1121.43
868.962	1010.84
869.144	1639.57
869.326	1612.95
869.508	1084.57
869.69	1109.15
869.872	1334.42
870.054	1678.48
870.236	918.68
870.417	1064.09
870.599	1209.5
870.781	1694.86
870.963	1199.26
871.145	1006.75
871.327	1119.39
871.508	1610.9
871.69	1150.11
871.872	1213.59
872.054	1336.47
872.235	1508.5
872.417	1080.47
872.599	1033.37
872.78	1793.17
872.962	1432.72
873.144	898.2
873.325	1229.98
873.507	1754.26
873.689	1526.93
873.87	998.56
874.052	1418.39
874.233	1371.29
874.415	1694.86
874.596	1150.11
874.778	1031.32
874.959	1506.45
875.141	1801.36
875.322	1207.45
875.503	1072.28
875.685	1584.27
875.866	1012.89
876.048	1166.49
876.229	1002.65
876.41	1379.48
876.592	1563.79
876.773	1139.87
876.954	957.6
877.136	1811.6
877.317	1418.39
877.498	1033.37
877.679	1223.83
877.86	1539.22
878.042	1330.33
878.223	1055.9
878.404	1356.95
878.585	1553.55
878.766	1778.83
878.947	1377.43
879.128	1436.82
879.309	1610.9
879.49	1627.28
879.672	1248.41
879.853	1219.74
880.034	1285.27
880.215	1520.79
880.396	1219.74
880.576	1227.93
880.757	1293.46
880.938	1832.08
881.119	1121.43
881.3	1125.53
881.481	1340.57
881.662	2327.69
881.843	1219.74
882.023	1129.63
882.204	1571.99
882.385	1459.35
882.566	1176.73
882.747	1242.26
882.927	1524.88
883.108	1445.01
883.289	1199.26
883.469	1445.01
883.65	1334.42
883.831	1549.46
884.011	1352.85
884.192	1266.84
884.373	1836.17
884.553	1737.87
884.734	1416.34
884.914	1635.47
885.095	2303.11
885.275	1991.82
885.456	1535.12
885.636	1205.4
885.817	1586.32
885.997	1528.98
886.178	1232.02
886.358	1432.72
886.538	1758.35
886.719	2563.2
886.899	1383.57
887.08	1381.53
887.26	1795.22
887.44	1305.75
887.621	1178.78
887.801	1471.64
887.981	2204.81
888.161	1830.03
888.342	1402.01
888.522	1315.99
888.702	1827.98
888.882	1879.18
889.062	1436.82
889.242	1121.43
889.423	1952.91
889.603	1756.3
889.783	1494.16
889.963	1363.09
890.143	1739.92
890.323	1873.04
890.503	1391.77
890.683	1311.89
890.863	1584.27
891.043	1563.79
891.223	1477.78
891.403	1506.45
891.583	1651.86
891.763	1735.82
891.943	1483.92
892.122	1422.48
892.302	1684.62
892.482	1588.37
892.662	1631.38
892.842	1324.18
893.022	1721.49
893.201	1559.7
893.381	1623.19
893.561	1510.55
893.741	1832.08
893.92	1701.01
894.1	1475.73
894.28	1551.51
894.459	1887.37
894.639	1756.3
894.819	1490.07
894.998	1428.63
895.178	1805.46
895.357	1832.08
895.537	1436.82
895.716	1332.37
895.896	1766.54
896.075	2055.31
896.255	1449.11
896.434	1305.75
896.614	2049.16
896.793	2065.55
896.973	1612.95
897.152	1547.41
897.331	1784.98
897.511	1946.76
897.69	1236.12
897.87	1498.26
898.049	1830.03
898.228	1696.91
898.407	1655.95
898.587	1522.84
898.766	1479.83
898.945	1926.29
899.124	1698.96
899.304	1528.98
899.483	1918.09
899.662	2161.8
899.841	1449.11
900.02	1463.44
900.199	2002.06
900.378	1776.78
900.557	1457.3
900.737	1324.18
900.916	1991.82
901.095	1922.19
901.274	1703.06
901.453	1313.94
901.632	1555.6
901.811	1553.55
901.989	1459.35
902.168	1305.75
902.347	1989.77
902.526	1565.84
902.705	1637.52
902.884	1576.08
903.063	2157.71
903.242	2014.35
903.42	1410.2
903.599	1490.07
903.778	2026.64
903.957	2090.12
904.135	1541.27
904.314	1567.89
904.493	1764.5
904.672	1870.99
904.85	1500.31
905.029	1510.55
905.207	1940.62
905.386	2409.61
905.565	1309.85
905.743	1453.2
905.922	1711.25
906.1	1926.29
906.279	1238.17
906.457	1412.25
906.636	1604.75
906.814	1660.05
906.993	1485.97
907.171	1402.01
907.35	1760.4
907.528	1948.81
907.707	1787.02
907.885	1412.25
908.063	2065.55
908.242	1522.84
908.42	1412.25
908.598	1262.74
908.777	1866.89
908.955	1608.85
909.133	1633.43
909.311	1279.13
909.49	1625.23
909.668	1813.65
909.846	1449.11
910.024	1238.17
910.202	1690.77
910.38	1877.13
910.559	1379.48
910.737	1315.99
910.915	1811.6
911.093	1823.89
911.271	1334.42
911.449	1662.1
911.627	1842.32
911.805	2165.9
911.983	1432.72
912.161	1291.41
912.339	1764.5
912.517	1920.14
912.695	1576.08
912.872	1459.35
913.05	1600.66
913.228	1756.3
913.406	1449.11
913.584	1375.38
913.762	1868.94
913.939	1617.04
914.117	1475.73
914.295	1336.47
914.473	1940.62
914.65	1670.29
914.828	1514.64
915.006	1307.8
915.184	1473.68
915.361	1674.39
915.539	1606.8
915.716	1516.69
915.894	1772.69
916.072	1821.84
916.249	1608.85
916.427	1508.5
916.604	1438.87
916.782	1670.29
916.959	1164.44
917.137	1336.47
917.314	1690.77
917.492	1932.43
917.669	1500.31
917.847	1514.64
918.024	1754.26
918.201	1361.05
918.379	1301.65
918.556	1410.2
918.733	1836.17
918.911	1629.33
919.088	1551.51
919.265	1373.33
919.442	1713.3
919.62	1563.79
919.797	1248.41
919.974	1174.68
920.151	1580.18
920.328	1625.23
920.506	1330.33
920.683	1500.31
920.86	1379.48
921.037	1420.44
921.214	1342.61
921.391	1199.26
921.568	1760.4
921.745	1305.75
921.922	1354.9
922.099	1272.98
922.276	1791.12
922.453	1641.62
922.63	1219.74
922.807	1633.43
922.984	1623.19
923.161	1414.29
923.338	1277.08
923.514	1344.66
923.691	1473.68
923.868	1713.3
924.045	1291.41
924.222	1088.67
924.399	1602.71
924.575	1758.35
924.752	1375.38
924.929	1334.42
925.105	1582.23
925.282	1170.58
925.459	1318.04
925.635	1270.94
925.812	1555.6
925.989	1457.3
926.165	1281.18
926.342	1137.82
926.518	1303.7
926.695	1502.36
926.871	1133.72
927.048	1098.91
927.224	1701.01
927.401	1346.71
927.577	1305.75
927.754	1213.59
927.93	1723.54
928.107	1666.19
928.283	1127.58
928.459	1340.57
928.636	1469.59
928.812	1379.48
928.988	1146.01
929.165	1043.61
929.341	1410.2
929.517	1584.27
929.693	1465.49
929.87	961.69
930.046	1600.66
930.222	1369.24
930.398	1047.71
930.574	1383.57
930.751	1330.33
930.927	1336.47
931.103	1191.06
931.279	1178.78
931.455	1166.49
931.631	1477.78
931.807	890.01
931.983	910.49
932.159	1062.04
932.335	1293.46
932.511	1199.26
932.687	1105.05
932.863	1432.72
933.039	1229.98
933.215	935.07
933.391	965.79
933.566	1277.08
933.742	1277.08
933.918	1137.82
934.094	908.44
934.27	1199.26
934.445	1254.55
934.621	1123.48
934.797	951.45
934.973	1359
935.148	1221.78
935.324	892.06
935.5	771.23
935.675	1399.96
935.851	1229.98
936.027	847.01
936.202	926.88
936.378	1293.46
936.553	1152.15
936.729	1363.09
936.904	777.37
937.08	820.38
937.255	871.58
937.431	744.61
937.606	701.6
937.782	879.77
937.957	955.55
938.133	941.21
938.308	713.89
938.483	988.32
938.659	728.22
938.834	801.95
939.009	760.99
939.185	877.73
939.36	715.94
939.535	429.22
939.71	756.9
939.886	1213.59
940.061	1008.8
940.236	728.22
940.411	738.46
940.586	1039.51
940.761	928.92
940.937	689.31
941.112	601.25
941.287	904.35
941.462	910.49
941.637	529.57
941.812	586.91
941.987	887.97
942.162	822.43
942.337	705.7
942.512	615.59
942.687	994.46
942.862	941.21
943.037	433.32
943.212	255.14
943.386	695.46
943.561	838.81
943.736	638.11
943.911	883.87
944.086	900.25
944.26	885.92
944.435	509.09
944.61	609.44
944.785	1088.67
944.959	1240.22
945.134	576.67
945.309	537.76
945.483	648.35
945.658	969.88
945.833	230.57
946.007	402.6
946.182	1139.87
946.357	498.85
946.531	406.69
946.706	408.74
946.88	398.5
947.055	865.44
947.229	478.37
947.404	400.55
947.578	890.01
947.752	705.7
947.927	421.03
948.101	335.01
948.276	836.77
948.45	760.99
948.624	720.03
948.799	543.91
948.973	851.1
949.147	482.47
949.321	564.39
949.496	498.85
949.67	1010.84
949.844	728.22
950.018	658.59
950.193	484.52
950.367	1295.51
950.541	707.74
950.715	580.77
950.889	656.54
951.063	693.41
951.237	926.88
951.411	339.11
951.585	255.14
951.759	851.1
951.933	646.3
952.107	392.36
952.281	599.2
952.455	1057.95
952.629	945.31
952.803	367.78
952.977	500.9
953.151	969.88
953.325	828.57
953.499	697.5
953.672	414.88
953.846	564.39
954.02	646.3
954.194	523.43
954.368	441.51
954.541	840.86
954.715	732.32
954.889	519.33
955.062	433.32
955.236	752.8
955.41	582.82
955.583	642.21
955.757	316.58
955.93	697.5
956.104	455.84
956.278	437.41
956.451	384.16
956.625	879.77
956.798	1178.78
956.972	679.07
957.145	517.28
957.319	820.38
957.492	672.93
957.665	726.18
957.839	369.83
958.012	851.1
958.185	494.76
958.359	476.32
958.532	744.61
958.705	875.68
958.879	777.37
959.052	525.47
959.225	257.19
959.398	748.7
959.572	785.57
959.745	453.8
959.918	548
960.091	646.3
960.264	941.21
960.438	384.16
960.611	322.73
960.784	887.97
960.957	523.43
961.13	875.68
961.303	457.89
961.476	720.03
961.649	902.3
961.822	380.07
961.995	513.19
962.168	881.82
962.341	838.81
962.514	388.26
962.686	418.98
962.859	658.59
963.032	824.48
963.205	441.51
963.378	320.68
963.551	801.95
963.723	793.76
963.896	601.25
964.069	572.58
964.242	576.67
964.414	904.35
964.587	490.66
964.76	523.43
964.932	828.57
965.105	638.11
965.278	470.18
965.45	373.92
965.623	672.93
965.795	838.81
965.968	400.55
966.14	425.12
966.313	627.87
966.485	677.02
966.658	443.56
966.83	382.12
967.003	941.21
967.175	859.29
967.348	408.74
967.52	449.7
967.692	1074.33
967.865	820.38
968.037	451.75
968.209	728.22
968.382	715.94
968.554	914.59
968.726	513.19
968.898	410.79
969.071	654.5
969.243	773.28
969.415	531.62
969.587	558.24
969.759	1326.23
969.932	883.87
970.104	591.01
970.276	230.57
970.448	566.43
970.62	664.74
970.792	576.67
970.964	484.52
971.136	1162.39
971.308	832.67
971.48	365.73
971.652	449.7
971.824	1080.47
971.996	593.06
972.168	564.39
972.339	515.23
972.511	910.49
972.683	677.02
972.855	670.88
973.027	449.7
973.199	613.54
973.37	859.29
973.542	605.35
973.714	507.04
973.886	662.69
974.057	965.79
974.229	355.49
974.401	410.79
974.572	568.48
974.744	330.92
974.915	386.21
975.087	371.88
975.259	1035.42
975.43	486.56
975.602	457.89
975.773	378.02
975.945	496.8
976.116	916.64
976.288	386.21
976.459	627.87
976.63	580.77
976.802	701.6
976.973	476.32
977.145	537.76
977.316	1086.62
977.487	711.84
977.659	591.01
977.83	439.46
978.001	1158.3
978.172	697.5
978.344	421.03
978.515	474.28
978.686	570.53
978.857	920.73
979.028	339.11
979.2	359.59
979.371	945.31
979.542	642.21
979.713	588.96
979.884	103.59
980.055	445.6
980.226	582.82
980.397	361.64
980.568	318.63
980.739	933.02
980.91	609.44
981.081	597.15
981.252	382.12
981.423	744.61
981.594	869.53
981.765	433.32
981.936	498.85
982.106	722.08
982.277	877.73
982.448	279.72
982.619	523.43
982.79	556.19
982.96	937.12
983.131	437.41
983.302	244.9
983.472	539.81
983.643	670.88
983.814	586.91
983.984	433.32
984.155	597.15
984.326	937.12
984.496	494.76
984.667	437.41
984.837	535.71
985.008	1041.56
985.178	611.49
985.349	412.84
985.519	724.13
985.69	482.47
985.86	341.16
986.031	296.1
986.201	679.07
986.371	636.06
986.542	273.57
986.712	261.29
986.882	777.37
987.053	674.98
987.223	367.78
987.393	490.66
987.563	543.91
987.734	851.1
987.904	672.93
988.074	337.06
988.244	693.41
988.414	425.12
988.585	341.16
988.755	453.8
988.925	572.58
989.095	863.39
989.265	318.63
989.435	437.41
989.605	760.99
989.775	885.92
989.945	621.73
990.115	259.24
990.285	629.92
990.455	728.22
990.625	523.43
990.795	294.05
990.965	980.12
991.134	484.52
991.304	263.33
991.474	277.67
991.644	611.49
991.814	943.26
991.984	218.28
992.153	208.04
992.323	492.71
992.493	613.54
992.662	177.32
992.832	488.61
993.002	593.06
993.171	613.54
993.341	187.56
993.511	515.23
993.68	466.08
993.85	758.94
994.019	203.94
994.189	218.28
994.358	648.35
994.528	455.84
994.697	62.63
994.867	79.02
995.036	804
995.206	576.67
995.375	271.53
995.544	402.6
995.714	687.26
995.883	527.52
996.052	482.47
996.222	152.74
996.391	996.51
996.56	564.39
996.73	205.99
996.899	74.92
997.068	881.82
997.237	554.15
997.406	187.56
997.576	132.26
997.745	683.17
997.914	648.35
998.083	-0.85
998.252	232.62
998.421	593.06
998.59	292.01
998.759	169.13
998.928	38.06
999.097	842.91
999.266	652.45
999.435	320.68
999.604	40.11
999.773	1002.65
999.942	478.37
1000.111	83.11
1000.28	13.48
1000.448	351.4
1000.617	285.86
1000.786	296.1
1000.955	113.83
1001.124	539.81
1001.292	1137.82
1001.461	273.57
1001.63	119.98
1001.798	867.49
1001.967	820.38
1002.136	146.6
1002.304	40.11
1002.473	623.78
1002.642	599.2
1002.81	216.23
1002.979	97.45
1003.147	687.26
1003.316	1094.81
1003.484	220.33
1003.653	122.02
1003.821	738.46
1003.99	466.08
1004.158	355.49
1004.327	306.34
1004.495	558.24
1004.663	292.01
1004.832	265.38
1005	48.3
1005.168	687.26
1005.337	535.71
1005.505	29.87
1005.673	341.16
1005.842	580.77
1006.01	605.35
1006.178	93.35
1006.346	126.12
1006.514	548
1006.683	849.05
1006.851	205.99
1007.019	148.65
1007.187	296.1
1007.355	44.2
1007.523	-27.48
1007.691	3.24
1007.859	119.98
1008.027	773.28
1008.195	197.8
1008.363	25.77
1008.531	771.23
1008.699	289.96
1008.867	-29.52
1009.035	36.01
1009.203	775.33
1009.37	418.98
1009.538	205.99
1009.706	466.08
1009.874	470.18
1010.042	414.88
1010.209	-37.72
1010.377	72.87
1010.545	660.64
1010.713	437.41
1010.88	91.31
1011.048	107.69
1011.216	306.34
1011.383	804
1011.551	62.63
1011.718	11.43
1011.886	711.84
1012.054	402.6
1012.221	-45.91
1012.389	27.82
1012.556	281.77
1012.724	781.47
1012.891	160.94
1013.058	-113.49
1013.226	492.71
1013.393	613.54
1013.561	-131.92
1013.728	-66.39
1013.895	670.88
1014.063	541.86
1014.23	-45.91
1014.397	97.45
1014.565	605.35
1014.732	416.93
1014.899	44.2
1015.066	13.48
1015.233	533.67
1015.401	539.81
1015.568	76.97
1015.735	240.81
1015.902	453.8
1016.069	570.53
1016.236	76.97
1016.403	3.24
1016.57	107.69
1016.737	674.98
1016.904	95.4
1017.071	-17.24
1017.238	349.35
1017.405	593.06
1017.572	33.96
1017.739	306.34
1017.906	531.62
1018.073	621.73
1018.24	-47.96
1018.407	117.93
1018.573	746.66
1018.74	337.06
1018.907	115.88
1019.074	-152.4
1019.241	730.27
1019.407	425.12
1019.574	54.44
1019.741	-74.58
1019.907	486.56
1020.074	490.66
1020.241	-193.36
1020.407	-66.39
1020.574	521.38
1020.74	470.18
1020.907	62.63
1021.073	-70.48
1021.24	924.83
1021.406	701.6
1021.573	-50
1021.739	46.25
1021.906	500.9
1022.072	380.07
1022.239	5.29
1022.405	-27.48
1022.571	453.8
1022.738	167.08
1022.904	9.39
1023.07	56.49
1023.237	361.64
1023.403	668.83
1023.569	11.43
1023.735	56.49
1023.902	404.64
1024.068	453.8
1024.234	-29.52
1024.4	-15.19
1024.566	406.69
1024.732	543.91
1024.898	85.16
1025.065	-170.83
1025.231	531.62
1025.397	271.53
1025.563	19.63
1025.729	-86.87
1025.895	-33.62
1026.061	105.64
1026.227	-179.03
1026.392	72.87
1026.558	691.36
1026.724	429.22
1026.89	-68.44
1027.056	54.44
1027.222	435.36
1027.388	230.57
1027.553	-35.67
1027.719	-76.63
1027.885	660.64
1028.051	466.08
1028.216	-193.36
1028.382	1.19
1028.548	558.24
1028.713	287.91
1028.879	-156.5
1029.045	48.3
1029.21	695.46
1029.376	631.97
1029.541	109.74
1029.707	38.06
1029.873	504.99
1030.038	507.04
1030.204	-7
1030.369	19.63
1030.534	525.47
1030.7	281.77
1030.865	-41.81
1031.031	-123.73
1031.196	425.12
1031.361	425.12
1031.527	-13.14
1031.692	-131.92
1031.857	-45.91
1032.023	484.52
1032.188	-86.87
1032.353	42.15
1032.518	720.03
1032.684	384.16
1032.849	-152.4
1033.014	-21.33
1033.179	437.41
1033.344	351.4
1033.509	23.72
1033.674	5.29
1033.839	480.42
1034.004	498.85
1034.17	-78.68
1034.335	-183.12
1034.5	261.29
1034.664	113.83
1034.829	-86.87
1034.994	-15.19
1035.159	281.77
1035.324	412.84
1035.489	-9.05
1035.654	-74.58
1035.819	658.59
1035.984	408.74
1036.148	17.58
1036.313	-66.39
1036.478	570.53
1036.643	353.45
1036.807	-4.95
1036.972	-90.96
1037.137	640.16
1037.301	318.63
1037.466	-209.75
1037.631	60.59
1037.795	629.92
1037.96	339.11
1038.124	158.89
1038.289	-115.54
1038.454	461.99
1038.618	478.37
1038.783	-23.38
1038.947	29.87
1039.111	414.88
1039.276	210.09
1039.44	-66.39
1039.605	359.59
1039.769	275.62
1039.933	326.82
1040.098	5.29
1040.262	171.18
1040.426	533.67
1040.591	584.87
1040.755	-68.44
1040.919	-13.14
1041.083	400.55
1041.248	253.09
1041.412	-168.79
1041.576	-150.36
1041.74	281.77
1041.904	537.76
1042.068	-82.77
1042.232	9.39
1042.397	461.99
1042.561	416.93
1042.725	-279.38
1042.889	36.01
1043.053	425.12
1043.217	343.21
1043.381	36.01
1043.544	-154.45
1043.708	566.43
1043.872	48.3
1044.036	-265.04
1044.2	-197.46
1044.364	572.58
1044.528	605.35
1044.691	3265.66
1044.855	-248.66
1045.019	621.73
1045.183	507.04
1045.346	-52.05
1045.51	-119.64
1045.674	492.71
1045.837	550.05
1046.001	13.48
1046.165	-99.16
1046.328	820.38
1046.492	437.41
1046.655	117.93
1046.819	42.15
1046.983	146.6
1047.146	392.36
1047.31	-4.95
1047.473	-197.46
1047.636	226.47
1047.8	101.55
1047.963	38.06
1048.127	-50
1048.29	25.77
