Data from Ink_Intensity_USB4F045381__54__00054.txt Node

Date: Mon Jul 17 10:17:44 EDT 2023
User: mmckonesweet
Spectrometer: USB4F04538
Trigger mode: 4
Integration Time (sec): 9.000000E-1
Scans to average: 1
Electric dark correction enabled: true
Nonlinearity correction enabled: false
Boxcar width: 0
XAxis mode: Wavelengths
Number of Pixels in Spectrum: 3648
>>>>>Begin Spectral Data<<<<<
345.52	-950.6
345.736	-950.6
345.952	-950.6
346.168	-975.17
346.384	-962.89
346.6	-119.12
346.816	-235.86
347.032	-147.8
347.248	188.07
347.464	-205.14
347.68	-65.88
347.896	81.58
348.112	411.3
348.328	-106.84
348.544	-147.8
348.76	83.63
348.975	263.85
349.191	-213.33
349.407	-213.33
349.623	7.85
349.839	-82.26
350.055	-108.88
350.27	65.19
350.486	122.54
350.702	362.15
350.918	175.78
351.133	-127.32
351.349	155.3
351.565	339.62
351.781	-282.96
351.996	75.43
352.212	351.91
352.428	-104.79
352.644	-209.23
352.859	-260.43
353.075	204.46
353.291	-22.87
353.506	-125.27
353.722	-205.14
353.938	-137.56
354.153	474.79
354.369	120.49
354.584	-246.1
354.8	171.69
355.016	-260.43
355.231	-227.67
355.447	-74.07
355.662	65.19
355.878	913.05
356.093	-336.21
356.309	-12.63
356.524	-252.24
356.74	233.13
356.955	-239.95
357.171	-88.4
357.386	175.78
357.602	-262.48
357.817	-65.88
358.033	-172.37
358.248	331.43
358.464	163.5
358.679	-63.83
358.895	-262.48
359.11	-18.77
359.325	257.7
359.541	30.38
359.756	-20.82
359.972	-282.96
360.187	214.7
360.402	-168.27
360.618	-145.75
360.833	896.67
361.048	202.41
361.264	-217.43
361.479	-49.49
361.694	-35.16
361.909	241.32
362.125	-254.29
362.34	-106.84
362.555	179.88
362.77	-0.34
362.986	-248.15
363.201	-227.67
363.416	108.2
363.631	16.04
363.847	-203.09
364.062	-178.51
364.277	153.26
364.492	16.04
364.707	-121.17
364.922	-375.12
365.138	251.56
365.353	341.67
365.568	-282.96
365.783	-82.26
365.998	-41.3
366.213	601.76
366.428	-201.04
366.643	83.63
366.858	298.66
367.073	188.07
367.288	-129.36
367.503	-328.02
367.718	77.48
367.933	226.98
368.148	-342.35
368.363	-119.12
368.578	-100.69
368.793	466.6
369.008	-158.03
369.223	-280.91
369.438	175.78
369.653	351.91
369.868	-287.06
370.083	-291.15
370.298	61.1
370.513	278.18
370.728	61.1
370.943	-227.67
371.157	-160.08
371.372	476.84
371.587	-323.92
371.802	-342.35
372.017	5.8
372.232	429.73
372.446	-51.54
372.661	-307.54
372.876	216.74
373.091	186.02
373.306	-74.07
373.52	-248.15
373.735	-141.65
373.95	403.11
374.165	-149.84
374.379	-112.98
374.594	-135.51
374.809	126.63
375.023	-16.73
375.238	-280.91
375.453	231.08
375.667	-244.05
375.882	-135.51
376.097	-291.15
376.311	-33.11
376.526	24.23
376.741	-254.29
376.955	61.1
377.17	550.56
377.384	552.61
377.599	-125.27
377.813	-287.06
378.028	581.28
378.242	77.48
378.457	-139.6
378.672	-428.37
378.886	40.62
379.101	-45.4
379.315	-278.87
379.53	-164.18
379.744	155.3
379.958	216.74
380.173	-110.93
380.387	-303.44
380.602	89.77
380.816	-63.83
381.031	-131.41
381.245	-123.22
381.459	206.5
381.674	2565.76
381.888	-205.14
382.103	134.82
382.317	-235.86
382.531	462.5
382.746	-72.02
382.96	-242
383.174	-112.98
383.388	431.78
383.603	97.96
383.817	-368.98
384.031	134.82
384.246	468.64
384.46	-51.54
384.674	181.93
384.888	-8.53
385.103	46.76
385.317	-276.82
385.531	-92.5
385.745	261.8
385.959	259.75
386.174	-246.1
386.388	-225.62
386.602	18.09
386.816	-166.23
387.03	-98.64
387.244	-90.45
387.458	7.85
387.672	370.34
387.887	-311.63
388.101	-334.16
388.315	280.23
388.529	30.38
388.743	-178.51
388.957	-211.28
389.171	325.29
389.385	-209.23
389.599	-182.61
389.813	54.95
390.027	138.92
390.241	568.99
390.455	-123.22
390.669	-127.32
390.883	-139.6
391.097	401.06
391.311	-14.68
391.525	-287.06
391.738	188.07
391.952	167.59
392.166	-82.26
392.38	-282.96
392.594	214.7
392.808	286.37
393.022	-115.03
393.236	-135.51
393.449	196.26
393.663	206.5
393.877	-260.43
394.091	-82.26
394.305	-53.59
394.518	-119.12
394.732	-336.21
394.946	-172.37
395.16	433.83
395.373	124.58
395.587	-303.44
395.801	-139.6
396.015	282.28
396.228	134.82
396.442	-225.62
396.656	-325.97
396.869	229.03
397.083	462.5
397.297	-112.98
397.51	-215.38
397.724	384.68
397.938	104.11
398.151	-350.54
398.365	-311.63
398.578	175.78
398.792	351.91
399.005	13.99
399.219	-125.27
399.433	132.78
399.646	108.2
399.86	20.14
400.073	44.71
400.287	124.58
400.5	5.8
400.714	-37.2
400.927	-96.6
401.141	89.77
401.354	1080.99
401.567	194.22
401.781	-354.64
401.994	134.82
402.208	616.1
402.421	-164.18
402.635	-106.84
402.848	-76.12
403.061	302.76
403.275	-49.49
403.488	-278.87
403.701	460.45
403.915	231.08
404.128	-22.87
404.341	-225.62
404.555	155.3
404.768	-67.92
404.981	-4.44
405.195	-176.47
405.408	460.45
405.621	175.78
405.834	-4.44
406.048	-287.06
406.261	358.05
406.474	380.58
406.687	-225.62
406.9	36.52
407.114	-110.93
407.327	63.15
407.54	-303.44
407.753	-289.1
407.966	-211.28
408.179	265.89
408.392	-237.91
408.605	-334.16
408.819	106.15
409.032	206.5
409.245	-217.43
409.458	16.04
409.671	173.74
409.884	315.05
410.097	-362.83
410.31	1.71
410.523	169.64
410.736	7.85
410.949	-49.49
411.162	-112.98
411.375	394.92
411.588	321.19
411.801	38.57
412.014	-211.28
412.227	-57.68
412.44	-90.45
412.653	-242
412.865	-47.44
413.078	214.7
413.291	93.87
413.504	-131.41
413.717	-231.76
413.93	110.25
414.143	-196.95
414.356	-94.55
414.568	-352.59
414.781	220.84
414.994	188.07
415.207	-92.5
415.42	-98.64
415.632	196.26
415.845	468.64
416.058	-256.34
416.271	-254.29
416.483	48.81
416.696	454.31
416.909	-233.81
417.121	-205.14
417.334	196.26
417.547	558.75
417.759	-194.9
417.972	-194.9
418.185	-147.8
418.397	200.36
418.61	-141.65
418.823	-246.1
419.035	458.4
419.248	-0.34
419.46	-131.41
419.673	-35.16
419.885	169.64
420.098	-88.4
420.311	-129.36
420.523	-418.13
420.736	149.16
420.948	9.9
421.161	-121.17
421.373	-319.82
421.586	97.96
421.798	-168.27
422.01	-235.86
422.223	-164.18
422.435	-100.69
422.648	188.07
422.86	-149.84
423.073	-184.66
423.285	241.32
423.497	-295.25
423.71	-242
423.922	-229.71
424.134	147.11
424.347	351.91
424.559	-74.07
424.771	42.67
424.984	-104.79
425.196	89.77
425.408	-358.74
425.621	-344.4
425.833	310.95
426.045	323.24
426.257	-289.1
426.47	-229.71
426.682	110.25
426.894	118.44
427.106	-160.08
427.318	-196.95
427.531	-225.62
427.743	233.13
427.955	-178.51
428.167	278.18
428.379	143.02
428.591	-35.16
428.804	-82.26
429.016	-227.67
429.228	-49.49
429.44	85.67
429.652	-106.84
429.864	-315.73
430.076	-78.16
430.288	-74.07
430.5	-47.44
430.712	-162.13
430.924	265.89
431.136	65.19
431.348	-319.82
431.56	-217.43
431.772	52.91
431.984	-69.97
432.196	-293.2
432.408	-225.62
432.62	-67.92
432.832	81.58
433.044	38.57
433.256	-158.03
433.468	190.12
433.679	-399.7
433.891	-280.91
434.103	-33.11
434.315	366.25
434.527	136.87
434.739	-186.71
434.95	-207.19
435.162	300.71
435.374	-131.41
435.586	-186.71
435.798	-203.09
436.009	-303.44
436.221	-16.73
436.433	-160.08
436.645	-227.67
436.856	-92.5
437.068	257.7
437.28	-260.43
437.491	9.9
437.703	132.78
437.915	114.34
438.126	-237.91
438.338	81.58
438.55	20.14
438.761	132.78
438.973	-235.86
439.184	-176.47
439.396	42.67
439.608	188.07
439.819	-348.5
440.031	-123.22
440.242	134.82
440.454	126.63
440.665	-233.81
440.877	-96.6
441.088	65.19
441.3	-90.45
441.511	-375.12
441.723	-231.76
441.934	143.02
442.146	-24.92
442.357	-49.49
442.569	52.91
442.78	28.33
442.991	368.29
443.203	57
443.414	-301.39
443.626	327.33
443.837	-188.75
444.048	-270.67
444.26	-313.68
444.471	26.28
444.682	347.81
444.894	-397.65
445.105	-414.03
445.316	214.7
445.528	93.87
445.739	-123.22
445.95	-242
446.161	126.63
446.373	300.71
446.584	-94.55
446.795	-196.95
447.006	229.03
447.217	425.64
447.429	-182.61
447.64	-272.72
447.851	294.57
448.062	1.71
448.273	-444.75
448.484	-278.87
448.695	151.21
448.907	-92.5
449.118	-119.12
449.329	16.04
449.54	-162.13
449.751	-239.95
449.962	-201.04
450.173	-270.67
450.384	212.65
450.595	308.9
450.806	-205.14
451.017	-155.99
451.228	351.91
451.439	183.98
451.65	-221.52
451.861	-438.61
452.072	-258.39
452.283	-49.49
452.494	-80.21
452.705	-319.82
452.915	315.05
453.126	20.14
453.337	-153.94
453.548	-274.77
453.759	229.03
453.97	458.4
454.181	50.86
454.391	-180.56
454.602	63.15
454.813	157.35
455.024	-127.32
455.235	-223.57
455.445	149.16
455.656	151.21
455.867	20.14
456.078	-227.67
456.288	-115.03
456.499	73.39
456.71	-299.34
456.921	28.33
457.131	116.39
457.342	108.2
457.553	-129.36
457.763	-225.62
457.974	151.21
458.184	280.23
458.395	-217.43
458.606	-313.68
458.816	300.71
459.027	460.45
459.237	-90.45
459.448	-418.13
459.659	364.2
459.869	485.03
460.08	-397.65
460.29	-90.45
460.501	380.58
460.711	-176.47
460.922	-315.73
461.132	-188.75
461.343	661.15
461.553	-303.44
461.764	-227.67
461.974	-178.51
462.184	267.94
462.395	61.1
462.605	-258.39
462.816	-268.63
463.026	93.87
463.236	298.66
463.447	-196.95
463.657	-285.01
463.867	241.32
464.078	-90.45
464.288	-201.04
464.498	-258.39
464.709	85.67
464.919	-131.41
465.129	-178.51
465.339	-295.25
465.55	143.02
465.76	181.93
465.97	-207.19
466.18	-266.58
466.391	224.94
466.601	128.68
466.811	-213.33
467.021	-305.49
467.231	114.34
467.441	192.17
467.651	-225.62
467.862	-442.7
468.072	7.85
468.282	292.52
468.492	-211.28
468.702	-201.04
468.912	11.95
469.122	585.38
469.332	22.19
469.542	-289.1
469.752	177.83
469.962	-4.44
470.172	-297.3
470.382	-325.97
470.592	202.41
470.802	313
471.012	-115.03
471.222	-229.71
471.432	239.27
471.642	163.5
471.852	-129.36
472.062	-311.63
472.272	-145.75
472.482	-311.63
472.691	-315.73
472.901	-352.59
473.111	16.04
473.321	515.75
473.531	-334.16
473.741	-176.47
473.95	173.74
474.16	138.92
474.37	-155.99
474.58	-360.78
474.79	472.74
474.999	253.61
475.209	-301.39
475.419	-225.62
475.628	-74.07
475.838	253.61
476.048	-196.95
476.258	-350.54
476.467	353.96
476.677	-82.26
476.886	-0.34
477.096	-180.56
477.306	-145.75
477.515	388.77
477.725	-213.33
477.935	-69.97
478.144	343.72
478.354	-186.71
478.563	-176.47
478.773	-258.39
478.982	136.87
479.192	339.62
479.401	-225.62
479.611	-323.92
479.82	-102.74
480.03	108.2
480.239	-201.04
480.449	-311.63
480.658	362.15
480.868	-209.23
481.077	-168.27
481.287	-188.75
481.496	134.82
481.705	442.02
481.915	-10.58
482.124	-4.44
482.333	36.52
482.543	327.33
482.752	-203.09
482.961	-215.38
483.171	229.03
483.38	110.25
483.589	-201.04
483.799	-278.87
484.008	-98.64
484.217	315.05
484.426	-217.43
484.636	-330.06
484.845	112.3
485.054	-242
485.263	7.85
485.472	-205.14
485.682	356.01
485.891	100.01
486.1	-344.4
486.309	-221.52
486.518	83.63
486.727	384.68
486.936	-270.67
487.146	-78.16
487.355	364.2
487.564	-221.52
487.773	-198.99
487.982	-198.99
488.191	-153.94
488.4	-10.58
488.609	-180.56
488.818	-246.1
489.027	579.23
489.236	429.73
489.445	-217.43
489.654	-237.91
489.863	204.46
490.072	126.63
490.281	116.39
490.49	-205.14
490.698	429.73
490.907	435.88
491.116	-168.27
491.325	-350.54
491.534	327.33
491.743	140.97
491.952	-112.98
492.16	-129.36
492.369	167.59
492.578	317.09
492.787	-139.6
492.996	-375.12
493.204	-72.02
493.413	437.92
493.622	-393.55
493.831	-377.17
494.039	335.53
494.248	-254.29
494.457	-276.82
494.665	-321.87
494.874	218.79
495.083	407.2
495.291	-178.51
495.5	-323.92
495.709	274.09
495.917	132.78
496.126	-166.23
496.335	-325.97
496.543	-74.07
496.752	110.25
496.96	16.04
497.169	-328.02
497.377	24.23
497.586	233.13
497.794	-133.46
498.003	-426.32
498.211	-74.07
498.42	339.62
498.628	-151.89
498.837	-469.33
499.045	116.39
499.254	143.02
499.462	-229.71
499.671	-342.35
499.879	366.25
500.087	194.22
500.296	-155.99
500.504	-147.8
500.713	77.48
500.921	579.23
501.129	-209.23
501.338	-246.1
501.546	102.06
501.754	108.2
501.962	-233.81
502.171	-444.75
502.379	102.06
502.587	427.68
502.795	-117.08
503.004	-225.62
503.212	20.14
503.42	274.09
503.628	-223.57
503.837	-143.7
504.045	243.37
504.253	427.68
504.461	-211.28
504.669	-418.13
504.877	155.3
505.085	396.96
505.294	-397.65
505.502	-10.58
505.71	57
505.918	269.99
506.126	-344.4
506.334	-348.5
506.542	1.71
506.75	175.78
506.958	-110.93
507.166	-221.52
507.374	-106.84
507.582	425.64
507.79	-139.6
507.998	-291.15
508.206	114.34
508.414	87.72
508.622	-213.33
508.83	-188.75
509.037	394.92
509.245	-20.82
509.453	-276.82
509.661	-319.82
509.869	97.96
510.077	-94.55
510.285	-115.03
510.492	-477.52
510.7	544.42
510.908	-129.36
511.116	-256.34
511.324	-332.11
511.531	-45.4
511.739	85.67
511.947	-65.88
512.155	36.52
512.362	97.96
512.57	-227.67
512.778	-362.83
512.985	-383.31
513.193	239.27
513.401	362.15
513.608	-203.09
513.816	-264.53
514.024	212.65
514.231	300.71
514.439	-307.54
514.646	-196.95
514.854	214.7
515.061	376.48
515.269	-184.66
515.477	-295.25
515.684	-201.04
515.892	241.32
516.099	-381.26
516.307	-360.78
516.514	267.94
516.722	425.64
516.929	-256.34
517.136	-362.83
517.344	306.85
517.551	147.11
517.759	-309.58
517.966	-166.23
518.173	-45.4
518.381	65.19
518.588	-119.12
518.796	-291.15
519.003	335.53
519.21	50.86
519.418	-295.25
519.625	110.25
519.832	106.15
520.039	163.5
520.247	-401.74
520.454	-192.85
520.661	272.04
520.868	106.15
521.076	-168.27
521.283	-147.8
521.49	612
521.697	163.5
521.904	-131.41
522.112	-196.95
522.319	241.32
522.526	124.58
522.733	-248.15
522.94	-266.58
523.147	24.23
523.354	272.04
523.561	-373.07
523.768	-178.51
523.975	269.99
524.183	38.57
524.39	-129.36
524.597	-340.3
524.804	108.2
525.011	-172.37
525.218	-297.3
525.425	-270.67
525.632	360.1
525.838	-131.41
526.045	-264.53
526.252	-287.06
526.459	1064.6
526.666	761.5
526.873	-250.19
527.08	-219.47
527.287	360.1
527.494	274.09
527.701	-282.96
527.907	-242
528.114	122.54
528.321	-4.44
528.528	-254.29
528.735	-205.14
528.941	-4.44
529.148	-65.88
529.355	-147.8
529.562	-211.28
529.768	587.43
529.975	18.09
530.182	-190.8
530.388	-186.71
530.595	257.7
530.802	-203.09
531.008	-123.22
531.215	-250.19
531.422	761.5
531.628	712.35
531.835	-92.5
532.042	-151.89
532.248	-69.97
532.455	91.82
532.661	-147.8
532.868	-282.96
533.074	89.77
533.281	302.76
533.487	-125.27
533.694	-285.01
533.9	-147.8
534.107	188.07
534.313	-285.01
534.52	-340.3
534.726	216.74
534.933	480.93
535.139	-323.92
535.345	-250.19
535.552	126.63
535.758	104.11
535.965	-188.75
536.171	-237.91
536.377	261.8
536.584	358.05
536.79	-250.19
536.996	-69.97
537.203	157.35
537.409	220.84
537.615	-139.6
537.821	-86.36
538.028	261.8
538.234	245.41
538.44	-248.15
538.646	-178.51
538.853	173.74
539.059	-22.87
539.265	165.54
539.471	-362.83
539.677	245.41
539.883	16.04
540.09	-145.75
540.296	147.11
540.502	69.29
540.708	-22.87
540.914	-141.65
541.12	-221.52
541.326	253.61
541.532	120.49
541.738	-82.26
541.944	-143.7
542.15	282.28
542.356	-35.16
542.562	-242
542.768	-166.23
542.974	716.45
543.18	609.95
543.386	-235.86
543.592	-389.46
543.798	405.16
544.004	265.89
544.21	-217.43
544.415	-143.7
544.621	214.7
544.827	310.95
545.033	-325.97
545.239	-39.25
545.445	-166.23
545.651	208.55
545.856	-207.19
546.062	-242
546.268	-33.11
546.474	138.92
546.679	-229.71
546.885	-188.75
547.091	-55.64
547.297	556.71
547.502	-121.17
547.708	-301.39
547.914	-92.5
548.119	237.22
548.325	-213.33
548.531	-242
548.736	497.32
548.942	-43.35
549.147	-227.67
549.353	28.33
549.559	360.1
549.764	112.3
549.97	-217.43
550.175	-129.36
550.381	302.76
550.586	-94.55
550.792	-145.75
550.997	-186.71
551.203	224.94
551.408	253.61
551.614	-325.97
551.819	-285.01
552.025	429.73
552.23	585.38
552.435	-299.34
552.641	-0.34
552.846	-41.3
553.052	337.57
553.257	-80.21
553.462	-147.8
553.668	-63.83
553.873	341.67
554.078	-276.82
554.283	-282.96
554.489	42.67
554.694	42.67
554.899	-233.81
555.105	-53.59
555.31	245.41
555.515	417.44
555.72	-153.94
555.925	-229.71
556.131	269.99
556.336	-61.78
556.541	-215.38
556.746	-239.95
556.951	403.11
557.156	480.93
557.361	-8.53
557.567	-188.75
557.772	632.48
557.977	134.82
558.182	-172.37
558.387	-209.23
558.592	-2.39
558.797	323.24
559.002	-55.64
559.207	-61.78
559.412	97.96
559.617	599.71
559.822	-133.46
560.027	-270.67
560.232	179.88
560.437	257.7
560.642	-319.82
560.847	-231.76
561.051	104.11
561.256	192.17
561.461	-96.6
561.666	-297.3
561.871	161.45
562.076	306.85
562.281	-133.46
562.485	-227.67
562.69	290.47
562.895	421.54
563.1	-143.7
563.305	-285.01
563.509	446.12
563.714	612
563.919	-158.03
564.123	-164.18
564.328	26.28
564.533	482.98
564.737	-94.55
564.942	-164.18
565.147	480.93
565.351	571.04
565.556	-74.07
565.761	-78.16
565.965	167.59
566.17	-26.96
566.374	-145.75
566.579	-231.76
566.784	138.92
566.988	-33.11
567.193	-319.82
567.397	-201.04
567.602	-176.47
567.806	36.52
568.011	-225.62
568.215	-57.68
568.42	34.47
568.624	100.01
568.828	-141.65
569.033	18.09
569.237	274.09
569.442	181.93
569.646	-336.21
569.85	-160.08
570.055	40.62
570.259	190.12
570.463	126.63
570.668	-164.18
570.872	100.01
571.076	20.14
571.281	57
571.485	-41.3
571.689	97.96
571.893	321.19
572.098	24.23
572.302	-190.8
572.506	208.55
572.71	190.12
572.914	-164.18
573.119	-117.08
573.323	495.27
573.527	460.45
573.731	-80.21
573.935	-198.99
574.139	247.46
574.343	-143.7
574.547	-135.51
574.751	-123.22
574.955	437.92
575.159	388.77
575.364	-160.08
575.568	-205.14
575.772	134.82
575.976	382.63
576.18	-139.6
576.383	-225.62
576.587	349.86
576.791	261.8
576.995	-303.44
577.199	-323.92
577.403	388.77
577.607	378.53
577.811	-201.04
578.015	-20.82
578.219	169.64
578.422	269.99
578.626	-24.92
578.83	48.81
579.034	458.4
579.238	224.94
579.442	-211.28
579.645	261.8
579.849	147.11
580.053	280.23
580.257	-74.07
580.46	-41.3
580.664	407.2
580.868	265.89
581.071	128.68
581.275	7.85
581.479	-53.59
581.682	269.99
581.886	-115.03
582.09	16.04
582.293	370.34
582.497	446.12
582.7	50.86
582.904	-151.89
583.107	140.97
583.311	118.44
583.515	-65.88
583.718	-41.3
583.922	288.42
584.125	646.82
584.329	-160.08
584.532	-33.11
584.735	442.02
584.939	255.65
585.142	-262.48
585.346	-112.98
585.549	300.71
585.753	7.85
585.956	-90.45
586.159	42.67
586.363	605.86
586.566	315.05
586.769	-182.61
586.973	-166.23
587.176	364.2
587.379	392.87
587.582	186.02
587.786	140.97
587.989	157.35
588.192	759.46
588.395	40.62
588.599	134.82
588.802	294.57
589.005	298.66
589.208	-115.03
589.411	-33.11
589.615	386.72
589.818	515.75
590.021	147.11
590.224	28.33
590.427	345.77
590.63	386.72
590.833	-231.76
591.036	-194.9
591.239	91.82
591.442	-10.58
591.645	190.12
591.848	-108.88
592.051	237.22
592.254	435.88
592.457	-61.78
592.66	16.04
592.863	237.22
593.066	274.09
593.269	-123.22
593.472	7.85
593.675	-39.25
593.878	442.02
594.081	-6.49
594.284	-213.33
594.486	368.29
594.689	183.98
594.892	34.47
595.095	-78.16
595.298	351.91
595.5	71.34
595.703	97.96
595.906	83.63
596.109	466.6
596.311	417.44
596.514	-311.63
596.717	40.62
596.92	446.12
597.122	388.77
597.325	-180.56
597.528	-115.03
597.73	478.88
597.933	118.44
598.136	-102.74
598.338	-338.26
598.541	280.23
598.743	521.89
598.946	63.15
599.148	20.14
599.351	450.21
599.554	437.92
599.756	44.71
599.959	-63.83
600.161	433.83
600.363	757.41
600.566	229.03
600.768	-33.11
600.971	622.24
601.173	407.2
601.376	-53.59
601.578	52.91
601.78	347.81
601.983	706.21
602.185	-151.89
602.388	192.17
602.59	353.96
602.792	50.86
602.995	145.06
603.197	-65.88
603.399	482.98
603.601	280.23
603.804	1.71
604.006	-59.73
604.208	186.02
604.41	-194.9
604.613	155.3
604.815	-55.64
605.017	792.22
605.219	112.3
605.421	401.06
605.623	-92.5
605.826	583.33
606.028	622.24
606.23	-61.78
606.432	-4.44
606.634	601.76
606.836	636.58
607.038	-147.8
607.24	100.01
607.442	231.08
607.644	130.73
607.846	91.82
608.048	-53.59
608.25	491.17
608.452	48.81
608.654	50.86
608.856	-123.22
609.058	208.55
609.26	255.65
609.462	71.34
609.664	-20.82
609.866	609.95
610.067	366.25
610.269	286.37
610.471	7.85
610.673	138.92
610.875	446.12
611.077	-49.49
611.278	130.73
611.48	286.37
611.682	702.11
611.884	34.47
612.085	65.19
612.287	81.58
612.489	419.49
612.69	-104.79
612.892	16.04
613.094	493.22
613.295	429.73
613.497	-61.78
613.699	20.14
613.9	562.85
614.102	513.7
614.304	83.63
614.505	-178.51
614.707	214.7
614.908	276.13
615.11	-108.88
615.311	89.77
615.513	450.21
615.714	442.02
615.916	-80.21
616.117	42.67
616.319	249.51
616.52	384.68
616.722	-8.53
616.923	-12.63
617.124	583.33
617.326	509.6
617.527	32.43
617.729	308.9
617.93	534.18
618.131	474.79
618.333	54.95
618.534	46.76
618.735	118.44
618.937	655.01
619.138	-59.73
619.339	-24.92
619.54	376.48
619.742	231.08
619.943	171.69
620.144	106.15
620.345	376.48
620.546	581.28
620.748	-8.53
620.949	34.47
621.15	351.91
621.351	366.25
621.552	48.81
621.753	-196.95
621.954	-14.68
622.155	732.83
622.356	-49.49
622.558	171.69
622.759	304.81
622.96	765.6
623.161	3.75
623.362	22.19
623.563	294.57
623.764	380.58
623.965	65.19
624.166	255.65
624.366	331.43
624.567	382.63
624.768	-215.38
624.969	18.09
625.17	186.02
625.371	429.73
625.572	145.06
625.773	-51.54
625.973	540.32
626.174	442.02
626.375	157.35
626.576	97.96
626.777	396.96
626.977	863.9
627.178	26.28
627.379	235.18
627.58	278.18
627.78	401.06
627.981	97.96
628.182	177.83
628.382	544.42
628.583	-69.97
628.784	-6.49
628.984	302.76
629.185	468.64
629.386	542.37
629.586	163.5
629.787	-12.63
629.987	515.75
630.188	327.33
630.388	89.77
630.589	69.29
630.79	845.47
630.99	347.81
631.191	149.16
631.391	153.26
631.591	503.46
631.792	718.5
631.992	247.46
632.193	50.86
632.393	753.31
632.594	339.62
632.794	130.73
632.994	237.22
633.195	386.72
633.395	442.02
633.595	40.62
633.796	231.08
633.996	190.12
634.196	730.78
634.397	-51.54
634.597	163.5
634.797	132.78
634.997	751.26
635.198	366.25
635.398	22.19
635.598	413.35
635.798	708.26
635.998	573.09
636.199	9.9
636.399	267.94
636.599	106.15
636.799	145.06
636.999	384.68
637.199	550.56
637.399	595.62
637.599	95.91
637.799	206.5
637.999	188.07
638.199	704.16
638.399	110.25
638.599	83.63
638.799	495.27
638.999	843.42
639.199	321.19
639.399	298.66
639.599	704.16
639.799	67.24
639.999	73.39
640.199	-33.11
640.399	442.02
640.599	425.64
640.799	167.59
640.998	351.91
641.198	638.62
641.398	503.46
641.598	204.46
641.798	151.21
641.997	1330.84
642.197	370.34
642.397	278.18
642.597	102.06
642.796	497.32
642.996	781.98
643.196	284.33
643.395	79.53
643.595	525.99
643.795	-8.53
643.994	147.11
644.194	198.31
644.394	534.18
644.593	544.42
644.793	24.23
644.992	259.75
645.192	523.94
645.392	67.24
645.591	290.47
645.791	81.58
645.99	460.45
646.19	356.01
646.389	200.36
646.589	102.06
646.788	616.1
646.987	495.27
647.187	444.07
647.386	376.48
647.586	474.79
647.785	568.99
647.984	179.88
648.184	286.37
648.383	370.34
648.582	280.23
648.782	194.22
648.981	356.01
649.18	229.03
649.38	470.69
649.579	147.11
649.778	196.26
649.977	558.75
650.177	485.03
650.376	134.82
650.575	157.35
650.774	868
650.973	190.12
651.173	-8.53
651.372	229.03
651.571	474.79
651.77	630.43
651.969	245.41
652.168	255.65
652.367	169.64
652.566	507.55
652.765	245.41
652.964	466.6
653.163	872.09
653.362	360.1
653.561	145.06
653.76	167.59
653.959	356.01
654.158	528.03
654.357	360.1
654.556	315.05
654.755	562.85
654.954	593.57
655.153	272.04
655.352	220.84
655.551	757.41
655.749	276.13
655.948	226.98
656.147	253.61
656.346	558.75
656.545	331.43
656.743	302.76
656.942	294.57
657.141	564.9
657.34	243.37
657.538	175.78
657.737	245.41
657.936	335.53
658.135	523.94
658.333	212.65
658.532	302.76
658.731	896.67
658.929	659.1
659.128	464.55
659.326	169.64
659.525	738.98
659.724	351.91
659.922	7.85
660.121	112.3
660.319	577.19
660.518	198.31
660.716	179.88
660.915	188.07
661.113	775.84
661.312	192.17
661.51	345.77
661.709	110.25
661.907	661.15
662.105	796.32
662.304	192.17
662.502	278.18
662.701	761.5
662.899	321.19
663.097	566.95
663.296	32.43
663.494	761.5
663.692	771.74
663.891	196.26
664.089	147.11
664.287	499.36
664.485	824.99
664.684	149.16
664.882	376.48
665.08	534.18
665.278	446.12
665.476	116.39
665.675	591.52
665.873	945.82
666.071	814.75
666.269	169.64
666.467	468.64
666.665	474.79
666.863	413.35
667.061	423.59
667.259	294.57
667.457	439.97
667.655	655.01
667.853	100.01
668.051	339.62
668.249	282.28
668.447	599.71
668.645	100.01
668.843	437.92
669.041	622.24
669.239	439.97
669.437	435.88
669.635	366.25
669.833	399.01
670.031	675.49
670.229	413.35
670.426	310.95
670.624	419.49
670.822	325.29
671.02	276.13
671.218	386.72
671.415	319.14
671.613	534.18
671.811	360.1
672.009	282.28
672.206	636.58
672.404	425.64
672.602	601.76
672.799	335.53
672.997	605.86
673.195	775.84
673.392	462.5
673.59	112.3
673.788	796.32
673.985	83.63
674.183	362.15
674.38	257.7
674.578	659.1
674.775	382.63
674.973	190.12
675.17	202.41
675.368	872.09
675.565	669.34
675.763	229.03
675.96	198.31
676.158	839.33
676.355	454.31
676.553	290.47
676.75	392.87
676.947	550.56
677.145	450.21
677.342	374.44
677.539	292.52
677.737	554.66
677.934	1023.64
678.131	456.36
678.329	222.89
678.526	855.71
678.723	550.56
678.92	362.15
679.118	204.46
679.315	263.85
679.512	878.24
679.709	339.62
679.906	415.4
680.104	814.75
680.301	691.87
680.498	200.36
680.695	169.64
680.892	450.21
681.089	460.45
681.286	380.58
681.483	179.88
681.68	614.05
681.877	683.68
682.075	394.92
682.272	564.9
682.469	581.28
682.665	435.88
682.862	204.46
683.059	130.73
683.256	591.52
683.453	482.98
683.65	399.01
683.847	396.96
684.044	618.15
684.241	337.57
684.438	366.25
684.635	175.78
684.831	917.15
685.028	994.97
685.225	313
685.422	450.21
685.619	525.99
685.815	523.94
686.012	431.78
686.209	446.12
686.405	245.41
686.602	802.46
686.799	249.51
686.996	200.36
687.192	294.57
687.389	929.44
687.586	214.7
687.782	247.46
687.979	824.99
688.175	806.56
688.372	349.86
688.568	353.96
688.765	476.84
688.962	884.38
689.158	458.4
689.355	147.11
689.551	781.98
689.748	411.3
689.944	454.31
690.14	276.13
690.337	824.99
690.533	427.68
690.73	612
690.926	392.87
691.123	761.5
691.319	583.33
691.515	200.36
691.712	599.71
691.908	714.4
692.104	663.2
692.301	452.26
692.497	288.42
692.693	695.97
692.889	757.41
693.086	482.98
693.282	112.3
693.478	525.99
693.674	888.48
693.87	405.16
694.067	235.18
694.263	546.47
694.459	523.94
694.655	564.9
694.851	497.32
695.047	659.1
695.243	718.5
695.439	509.6
695.635	319.14
695.831	732.83
696.027	650.91
696.224	347.81
696.42	650.91
696.615	927.39
696.811	736.93
697.007	208.55
697.203	356.01
697.399	771.74
697.595	888.48
697.791	300.71
697.987	528.03
698.183	261.8
698.379	362.15
698.575	345.77
698.77	372.39
698.966	679.58
699.162	837.28
699.358	454.31
699.554	390.82
699.749	724.64
699.945	829.09
700.141	575.14
700.337	429.73
700.532	550.56
700.728	419.49
700.924	325.29
701.119	267.94
701.315	689.82
701.511	523.94
701.706	552.61
701.902	204.46
702.097	671.39
702.293	714.4
702.489	478.88
702.684	427.68
702.88	575.14
703.075	474.79
703.271	382.63
703.466	233.13
703.662	581.28
703.857	728.74
704.053	356.01
704.248	382.63
704.443	810.65
704.639	767.65
704.834	460.45
705.03	335.53
705.225	884.38
705.42	845.47
705.616	487.08
705.811	269.99
706.006	538.27
706.202	468.64
706.397	493.22
706.592	302.76
706.787	796.32
706.983	687.78
707.178	550.56
707.373	376.48
707.568	751.26
707.763	884.38
707.959	419.49
708.154	325.29
708.349	618.15
708.544	761.5
708.739	601.76
708.934	265.89
709.129	810.65
709.324	777.89
709.519	384.68
709.714	261.8
709.909	824.99
710.104	693.92
710.299	419.49
710.494	501.41
710.689	806.56
710.884	622.24
711.079	452.26
711.274	562.85
711.469	718.5
711.664	648.86
711.859	302.76
712.054	497.32
712.249	781.98
712.443	880.29
712.638	249.51
712.833	386.72
713.028	542.37
713.223	528.03
713.417	685.73
713.612	347.81
713.807	822.94
714.002	1197.72
714.196	548.51
714.391	362.15
714.586	767.65
714.78	566.95
714.975	458.4
715.17	376.48
715.364	495.27
715.559	841.37
715.754	145.06
715.948	345.77
716.143	994.97
716.337	589.47
716.532	749.22
716.726	368.29
716.921	822.94
717.115	956.06
717.31	239.27
717.504	904.86
717.699	607.91
717.893	845.47
718.088	358.05
718.282	339.62
718.476	661.15
718.671	677.54
718.865	358.05
719.059	372.39
719.254	548.51
719.448	898.72
719.642	1777.3
719.837	226.98
720.031	810.65
720.225	884.38
720.419	542.37
720.614	302.76
720.808	851.61
721.002	607.91
721.196	372.39
721.39	419.49
721.585	1062.55
721.779	679.58
721.973	480.93
722.167	237.22
722.361	818.85
722.555	908.96
722.749	396.96
722.943	353.96
723.137	448.16
723.331	695.97
723.525	368.29
723.719	450.21
723.913	757.41
724.107	980.64
724.301	315.05
724.495	437.92
724.689	999.07
724.883	964.25
725.077	452.26
725.271	425.64
725.465	876.19
725.659	640.67
725.853	478.88
726.046	345.77
726.24	444.07
726.434	894.62
726.628	407.2
726.822	444.07
727.015	990.88
727.209	880.29
727.403	523.94
727.596	302.76
727.79	868
727.984	736.93
728.177	476.84
728.371	501.41
728.565	822.94
728.758	392.87
728.952	427.68
729.146	452.26
729.339	911
729.533	634.53
729.726	474.79
729.92	401.06
730.113	978.59
730.307	802.46
730.5	466.6
730.694	452.26
730.887	568.99
731.081	816.8
731.274	296.61
731.468	431.78
731.661	564.9
731.854	554.66
732.048	384.68
732.241	372.39
732.435	503.46
732.628	732.83
732.821	433.83
733.014	419.49
733.208	399.01
733.401	861.85
733.594	417.44
733.788	399.01
733.981	978.59
734.174	698.02
734.367	423.59
734.56	630.43
734.754	900.76
734.947	650.91
735.14	405.16
735.333	433.83
735.526	886.43
735.719	462.5
735.912	323.24
736.105	269.99
736.298	663.2
736.491	482.98
736.684	458.4
736.877	429.73
737.07	722.59
737.263	870.05
737.456	433.83
737.649	372.39
737.842	519.84
738.035	642.72
738.228	505.51
738.421	480.93
738.614	900.76
738.807	771.74
739	251.56
739.192	302.76
739.385	736.93
739.578	890.53
739.771	759.46
739.964	384.68
740.156	781.98
740.349	685.73
740.542	722.59
740.735	286.37
740.927	399.01
741.12	503.46
741.313	341.67
741.505	462.5
741.698	769.69
741.891	806.56
742.083	566.95
742.276	474.79
742.468	614.05
742.661	634.53
742.854	491.17
743.046	401.06
743.239	1044.12
743.431	581.28
743.624	491.17
743.816	290.47
744.009	626.34
744.201	843.42
744.393	622.24
744.586	347.81
744.778	913.05
744.971	626.34
745.163	573.09
745.355	532.13
745.548	597.67
745.74	536.23
745.932	525.99
746.125	409.25
746.317	1175.19
746.509	728.74
746.702	405.16
746.894	499.36
747.086	712.35
747.278	943.77
747.471	521.89
747.663	421.54
747.855	710.3
748.047	982.68
748.239	382.63
748.431	401.06
748.623	1109.66
748.815	1150.62
749.008	374.44
749.2	394.92
749.392	827.04
749.584	755.36
749.776	503.46
749.968	505.51
750.16	1105.56
750.352	667.3
750.544	466.6
750.736	343.72
750.928	822.94
751.12	655.01
751.311	470.69
751.503	540.32
751.695	904.86
751.887	728.74
752.079	200.36
752.271	427.68
752.463	1379.99
752.654	837.28
752.846	456.36
753.038	489.12
753.23	540.32
753.421	788.13
753.613	460.45
753.805	704.16
753.997	857.76
754.188	947.87
754.38	427.68
754.572	396.96
754.763	591.52
754.955	859.81
755.146	482.98
755.338	532.13
755.53	810.65
755.721	644.77
755.913	380.58
756.104	298.66
756.296	542.37
756.487	843.42
756.679	286.37
756.87	429.73
757.062	564.9
757.253	835.23
757.445	466.6
757.636	614.05
757.827	724.64
758.019	1253.02
758.21	360.1
758.401	444.07
758.593	1150.62
758.784	945.82
758.975	321.19
759.167	337.57
759.358	661.15
759.549	990.88
759.74	421.54
759.932	417.44
760.123	1027.74
760.314	532.13
760.505	616.1
760.696	384.68
760.888	1132.19
761.079	712.35
761.27	493.22
761.461	257.7
761.652	1003.16
761.843	650.91
762.034	550.56
762.225	724.64
762.416	607.91
762.607	646.82
762.798	476.84
762.989	378.53
763.18	1496.72
763.371	689.82
763.562	384.68
763.753	616.1
763.944	925.34
764.135	1005.21
764.326	622.24
764.517	472.74
764.708	718.5
764.899	804.51
765.089	462.5
765.28	327.33
765.471	769.69
765.662	808.61
765.853	507.55
766.043	255.65
766.234	943.77
766.425	970.4
766.615	523.94
766.806	351.91
766.997	933.53
767.187	749.22
767.378	460.45
767.569	229.03
767.759	769.69
767.95	822.94
768.141	568.99
768.331	458.4
768.522	638.62
768.712	954.01
768.903	390.82
769.093	360.1
769.284	1123.99
769.474	765.6
769.665	300.71
769.855	306.85
770.046	777.89
770.236	620.19
770.426	585.38
770.617	331.43
770.807	800.41
770.998	542.37
771.188	687.78
771.378	356.01
771.569	904.86
771.759	843.42
771.949	290.47
772.139	171.69
772.33	745.12
772.52	1085.08
772.71	399.01
772.9	333.48
773.09	1074.84
773.281	1095.32
773.471	456.36
773.661	474.79
773.851	986.78
774.041	587.43
774.231	327.33
774.421	605.86
774.611	1087.13
774.802	655.01
774.992	528.03
775.182	366.25
775.372	687.78
775.562	843.42
775.752	442.02
775.942	429.73
776.131	1060.51
776.321	806.56
776.511	360.1
776.701	384.68
776.891	843.42
777.081	399.01
777.271	392.87
777.461	325.29
777.651	865.95
777.84	870.05
778.03	566.95
778.22	480.93
778.41	1050.27
778.599	515.75
778.789	544.42
778.979	396.96
779.169	822.94
779.358	706.21
779.548	810.65
779.738	243.37
779.927	796.32
780.117	511.65
780.307	433.83
780.496	147.11
780.686	650.91
780.875	1099.42
781.065	405.16
781.254	437.92
781.444	749.22
781.633	720.54
781.823	376.48
782.012	353.96
782.202	546.47
782.391	738.98
782.581	325.29
782.77	532.13
782.96	847.52
783.149	573.09
783.338	499.36
783.528	128.68
783.717	898.72
783.906	915.1
784.096	540.32
784.285	321.19
784.474	560.8
784.663	493.22
784.853	446.12
785.042	390.82
785.231	575.14
785.42	890.53
785.61	505.51
785.799	315.05
785.988	444.07
786.177	687.78
786.366	495.27
786.555	564.9
786.744	1044.12
786.933	626.34
787.122	323.24
787.312	210.6
787.501	556.71
787.69	759.46
787.879	368.29
788.068	425.64
788.257	413.35
788.445	538.27
788.634	448.16
788.823	345.77
789.012	1339.03
789.201	904.86
789.39	523.94
789.579	388.77
789.768	558.75
789.957	695.97
790.145	390.82
790.334	161.45
790.523	585.38
790.712	622.24
790.9	499.36
791.089	229.03
791.278	870.05
791.467	716.45
791.655	704.16
791.844	804.51
792.033	458.4
792.221	605.86
792.41	401.06
792.599	304.81
792.787	777.89
792.976	849.57
793.164	212.65
793.353	444.07
793.541	835.23
793.73	773.79
793.918	415.4
794.107	421.54
794.295	612
794.484	591.52
794.672	362.15
794.861	413.35
795.049	837.28
795.238	1076.89
795.426	261.8
795.614	542.37
795.803	716.45
795.991	1037.98
796.179	470.69
796.368	382.63
796.556	970.4
796.744	458.4
796.932	347.81
797.121	282.28
797.309	605.86
797.497	880.29
797.685	347.81
797.874	319.14
798.062	614.05
798.25	1025.69
798.438	329.38
798.626	409.25
798.814	644.77
799.002	1283.74
799.19	571.04
799.378	523.94
799.566	925.34
799.755	1017.5
799.943	646.82
800.131	386.72
800.318	732.83
800.506	769.69
800.694	444.07
800.882	589.47
801.07	929.44
801.258	607.91
801.446	378.53
801.634	388.77
801.822	687.78
802.01	648.86
802.197	337.57
802.385	538.27
802.573	626.34
802.761	448.16
802.949	480.93
803.136	300.71
803.324	923.29
803.512	646.82
803.699	429.73
803.887	212.65
804.075	945.82
804.262	562.85
804.45	292.52
804.638	452.26
804.825	462.5
805.013	552.61
805.201	468.64
805.388	292.52
805.576	544.42
805.763	1035.93
805.951	458.4
806.138	573.09
806.326	1087.13
806.513	829.09
806.701	423.59
806.888	323.24
807.075	704.16
807.263	1162.9
807.45	259.75
807.638	593.57
807.825	1115.8
808.012	911
808.2	448.16
808.387	614.05
808.574	704.16
808.761	1011.36
808.949	335.53
809.136	542.37
809.323	597.67
809.51	663.2
809.698	730.78
809.885	585.38
810.072	788.13
810.259	911
810.446	464.55
810.633	497.32
810.82	941.72
811.008	1044.12
811.195	671.39
811.382	519.84
811.569	706.21
811.756	366.25
811.943	585.38
812.13	384.68
812.317	505.51
812.504	583.33
812.691	568.99
812.878	532.13
813.064	974.49
813.251	781.98
813.438	366.25
813.625	556.71
813.812	634.53
813.999	734.88
814.186	536.23
814.372	513.7
814.559	642.72
814.746	1093.27
814.933	581.28
815.12	624.29
815.306	552.61
815.493	439.97
815.68	390.82
815.866	536.23
816.053	904.86
816.24	1171.1
816.426	609.95
816.613	464.55
816.799	937.63
816.986	908.96
817.173	399.01
817.359	368.29
817.546	843.42
817.732	374.44
817.919	276.13
818.105	595.62
818.292	702.11
818.478	835.23
818.665	648.86
818.851	405.16
819.037	1195.67
819.224	616.1
819.41	409.25
819.597	528.03
819.783	1181.34
819.969	794.27
820.156	480.93
820.342	388.77
820.528	1535.64
820.714	712.35
820.901	702.11
821.087	466.6
821.273	1210.01
821.459	655.01
821.646	413.35
821.832	372.39
822.018	700.06
822.204	755.36
822.39	491.17
822.576	315.05
822.762	857.76
822.948	798.37
823.134	792.22
823.32	525.99
823.507	423.59
823.693	798.37
823.879	876.19
824.065	442.02
824.25	800.41
824.436	589.47
824.622	429.73
824.808	435.88
824.994	540.32
825.18	560.8
825.366	368.29
825.552	415.4
825.738	695.97
825.923	994.97
826.109	577.19
826.295	450.21
826.481	564.9
826.667	603.81
826.852	523.94
827.038	327.33
827.224	958.11
827.409	1173.14
827.595	290.47
827.781	734.88
827.966	874.14
828.152	861.85
828.338	466.6
828.523	497.32
828.709	601.76
828.894	1001.12
829.08	511.65
829.266	386.72
829.451	566.95
829.637	872.09
829.822	544.42
830.008	452.26
830.193	984.73
830.378	984.73
830.564	532.13
830.749	366.25
830.935	908.96
831.12	902.81
831.305	450.21
831.491	511.65
831.676	427.68
831.861	980.64
832.047	513.7
832.232	335.53
832.417	933.53
832.602	753.31
832.788	419.49
832.973	378.53
833.158	804.51
833.343	673.44
833.528	509.6
833.714	564.9
833.899	894.62
834.084	1232.54
834.269	677.54
834.454	468.64
834.639	1105.56
834.824	734.88
835.009	581.28
835.194	655.01
835.379	925.34
835.564	1025.69
835.749	482.98
835.934	372.39
836.119	816.8
836.304	769.69
836.489	509.6
836.674	655.01
836.859	503.46
837.044	1009.31
837.228	464.55
837.413	454.31
837.598	773.79
837.783	853.66
837.968	564.9
838.152	323.24
838.337	378.53
838.522	1003.16
838.707	986.78
838.891	593.57
839.076	835.23
839.261	962.2
839.445	487.08
839.63	532.13
839.815	1099.42
839.999	523.94
840.184	380.58
840.368	480.93
840.553	945.82
840.737	968.35
840.922	407.2
841.106	429.73
841.291	575.14
841.475	808.61
841.66	409.25
841.844	495.27
842.029	1435.28
842.213	495.27
842.397	460.45
842.582	286.37
842.766	1009.31
842.951	890.53
843.135	528.03
843.319	458.4
843.504	765.6
843.688	1005.21
843.872	298.66
844.056	394.92
844.241	816.8
844.425	691.87
844.609	622.24
844.793	245.41
844.977	896.67
845.161	804.51
845.346	405.16
845.53	401.06
845.714	724.64
845.898	1146.52
846.082	360.1
846.266	388.77
846.45	667.3
846.634	745.12
846.818	421.54
847.002	564.9
847.186	800.41
847.37	429.73
847.554	339.62
847.738	605.86
847.922	814.75
848.106	730.78
848.29	290.47
848.473	409.25
848.657	900.76
848.841	622.24
849.025	491.17
849.209	325.29
849.392	829.09
849.576	655.01
849.76	343.72
849.944	566.95
850.127	1099.42
850.311	448.16
850.495	317.09
850.678	241.32
850.862	1058.46
851.046	1064.6
851.229	663.2
851.413	464.55
851.596	738.98
851.78	622.24
851.964	587.43
852.147	478.88
852.331	1408.66
852.514	949.92
852.698	589.47
852.881	343.72
853.065	988.83
853.248	638.62
853.431	536.23
853.615	540.32
853.798	1162.9
853.982	777.89
854.165	648.86
854.348	435.88
854.532	466.6
854.715	607.91
854.898	448.16
855.081	501.41
855.265	1121.95
855.448	986.78
855.631	364.2
855.814	405.16
855.997	986.78
856.181	632.48
856.364	415.4
856.547	327.33
856.73	718.5
856.913	808.61
857.096	343.72
857.279	466.6
857.462	661.15
857.645	868
857.828	583.33
858.011	429.73
858.194	460.45
858.377	929.44
858.56	378.53
858.743	495.27
858.926	495.27
859.109	908.96
859.292	380.58
859.475	261.8
859.658	966.3
859.841	968.35
860.023	343.72
860.206	331.43
860.389	708.26
860.572	982.68
860.755	433.83
860.937	442.02
861.12	659.1
861.303	700.06
861.486	474.79
861.668	310.95
861.851	810.65
862.034	755.36
862.216	542.37
862.399	245.41
862.581	794.27
862.764	1035.93
862.947	468.64
863.129	364.2
863.312	470.69
863.494	972.44
863.677	812.7
863.859	226.98
864.042	833.18
864.224	1007.26
864.406	560.8
864.589	265.89
864.771	851.61
864.954	468.64
865.136	413.35
865.318	241.32
865.501	921.24
865.683	360.1
865.865	442.02
866.048	450.21
866.23	741.02
866.412	646.82
866.594	358.05
866.777	499.36
866.959	917.15
867.141	505.51
867.323	683.68
867.505	577.19
867.687	628.39
867.869	626.34
868.052	460.45
868.234	302.76
868.416	671.39
868.598	816.8
868.78	366.25
868.962	384.68
869.144	1023.64
869.326	820.89
869.508	433.83
869.69	280.23
869.872	411.3
870.054	921.24
870.236	231.08
870.417	310.95
870.599	642.72
870.781	1134.23
870.963	579.23
871.145	323.24
871.327	401.06
871.508	927.39
871.69	431.78
871.872	474.79
872.054	575.14
872.235	796.32
872.417	452.26
872.599	276.13
872.78	1029.79
872.962	720.54
873.144	251.56
873.325	376.48
873.507	1083.03
873.689	710.3
873.87	220.84
874.052	525.99
874.233	704.16
874.415	892.57
874.596	358.05
874.778	353.96
874.959	577.19
875.141	888.48
875.322	423.59
875.503	329.38
875.685	726.69
875.866	310.95
876.048	274.09
876.229	249.51
876.41	593.57
876.592	859.81
876.773	376.48
876.954	257.7
877.136	1011.36
877.317	554.66
877.498	237.22
877.679	433.83
877.86	878.24
878.042	583.33
878.223	372.39
878.404	683.68
878.585	808.61
878.766	1138.33
878.947	634.53
879.128	605.86
879.309	913.05
879.49	941.72
879.672	487.08
879.853	478.88
880.034	431.78
880.215	620.19
880.396	519.84
880.576	429.73
880.757	487.08
880.938	925.34
881.119	347.81
881.3	376.48
881.481	485.03
881.662	1459.86
881.843	274.09
882.023	151.21
882.204	794.27
882.385	642.72
882.566	482.98
882.747	339.62
882.927	595.62
883.108	685.73
883.289	407.2
883.469	618.15
883.65	566.95
883.831	724.64
884.011	589.47
884.192	382.63
884.373	831.13
884.553	796.32
884.734	612
884.914	734.88
885.095	1355.41
885.275	1076.89
885.456	732.83
885.636	341.67
885.817	601.76
885.997	689.82
886.178	380.58
886.358	509.6
886.538	796.32
886.719	1719.95
886.899	474.79
887.08	523.94
887.26	982.68
887.44	343.72
887.621	411.3
887.801	581.28
887.981	1347.22
888.161	908.96
888.342	482.98
888.522	503.46
888.702	896.67
888.882	855.71
889.062	515.75
889.242	296.61
889.423	1072.79
889.603	878.24
889.783	616.1
889.963	386.72
890.143	872.09
890.323	913.05
890.503	495.27
890.683	446.12
890.863	802.46
891.043	755.36
891.223	575.14
891.403	652.96
891.583	753.31
891.763	827.04
891.943	542.37
892.122	472.74
892.302	630.43
892.482	673.44
892.662	673.44
892.842	419.49
893.022	835.23
893.201	630.43
893.381	650.91
893.561	458.4
893.741	917.15
893.92	898.72
894.1	634.53
894.28	534.18
894.459	941.72
894.639	829.09
894.819	476.84
894.998	681.63
895.178	773.79
895.357	876.19
895.537	460.45
895.716	394.92
895.896	734.88
896.075	1027.74
896.255	423.59
896.434	251.56
896.614	941.72
896.793	1062.55
896.973	642.72
897.152	605.86
897.331	878.24
897.511	1017.5
897.69	376.48
897.87	474.79
898.049	949.92
898.228	788.13
898.407	650.91
898.587	614.05
898.766	583.33
898.945	861.85
899.124	757.41
899.304	437.92
899.483	824.99
899.662	1201.82
899.841	394.92
900.02	579.23
900.199	990.88
900.378	951.96
900.557	493.22
900.737	413.35
900.916	886.43
901.095	904.86
901.274	745.12
901.453	474.79
901.632	544.42
901.811	640.67
901.989	534.18
902.168	439.97
902.347	929.44
902.526	556.71
902.705	478.88
902.884	675.49
903.063	1146.52
903.242	990.88
903.42	403.11
903.599	673.44
903.778	984.73
903.957	1126.04
904.135	603.81
904.314	630.43
904.493	855.71
904.672	886.43
904.85	568.99
905.029	513.7
905.207	855.71
905.386	1474.2
905.565	429.73
905.743	470.69
905.922	687.78
906.1	1083.03
906.279	378.53
906.457	431.78
906.636	609.95
906.814	630.43
906.993	487.08
907.171	376.48
907.35	970.4
907.528	853.66
907.707	630.43
907.885	407.2
908.063	1187.48
908.242	601.76
908.42	583.33
908.598	327.33
908.777	911
908.955	607.91
909.133	675.49
909.311	435.88
909.49	601.76
909.668	728.74
909.846	489.12
910.024	237.22
910.202	661.15
910.38	857.76
910.559	349.86
910.737	468.64
910.915	831.13
911.093	859.81
911.271	450.21
911.449	638.62
911.627	861.85
911.805	1269.4
911.983	474.79
912.161	405.16
912.339	824.99
912.517	1007.26
912.695	573.09
912.872	560.8
913.05	466.6
913.228	761.5
913.406	429.73
913.584	401.06
913.762	919.2
913.939	673.44
914.117	460.45
914.295	390.82
914.473	822.94
914.65	810.65
914.828	542.37
915.006	392.87
915.184	489.12
915.361	810.65
915.539	571.04
915.716	755.36
915.894	827.04
916.072	921.24
916.249	667.3
916.427	687.78
916.604	452.26
916.782	808.61
916.959	446.12
917.137	446.12
917.314	777.89
917.492	847.52
917.669	614.05
917.847	652.96
918.024	833.18
918.201	399.01
918.379	548.51
918.556	409.25
918.733	845.47
918.911	638.62
919.088	644.77
919.265	421.54
919.442	685.73
919.62	720.54
919.797	417.44
919.974	372.39
920.151	562.85
920.328	630.43
920.506	480.93
920.683	667.3
920.86	564.9
921.037	566.95
921.214	642.72
921.391	499.36
921.568	925.34
921.745	581.28
921.922	462.5
922.099	401.06
922.276	919.2
922.453	722.59
922.63	454.31
922.807	716.45
922.984	659.1
923.161	460.45
923.338	472.74
923.514	409.25
923.691	810.65
923.868	691.87
924.045	480.93
924.222	339.62
924.399	808.61
924.575	894.62
924.752	536.23
924.929	605.86
925.105	788.13
925.282	468.64
925.459	478.88
925.635	415.4
925.812	671.39
925.989	509.6
926.165	491.17
926.342	226.98
926.518	382.63
926.695	632.48
926.871	382.63
927.048	255.65
927.224	784.03
927.401	482.98
927.577	452.26
927.754	331.43
927.93	863.9
928.107	855.71
928.283	239.27
928.459	532.13
928.636	671.39
928.812	540.32
928.988	247.46
929.165	259.75
929.341	634.53
929.517	593.57
929.693	693.92
929.87	167.59
930.046	675.49
930.222	399.01
930.398	376.48
930.574	466.6
930.751	609.95
930.927	462.5
931.103	403.11
931.279	431.78
931.455	339.62
931.631	589.47
931.807	132.78
931.983	294.57
932.159	304.81
932.335	728.74
932.511	466.6
932.687	349.86
932.863	609.95
933.039	585.38
933.215	208.55
933.391	186.02
933.566	515.75
933.742	601.76
933.918	335.53
934.094	210.6
934.27	542.37
934.445	583.33
934.621	493.22
934.797	261.8
934.973	835.23
935.148	597.67
935.324	192.17
935.5	188.07
935.675	779.93
935.851	550.56
936.027	302.76
936.202	272.04
936.378	575.14
936.553	413.35
936.729	657.06
936.904	247.46
937.08	169.64
937.255	431.78
937.431	212.65
937.606	138.92
937.782	356.01
937.957	491.17
938.133	368.29
938.308	102.06
938.483	523.94
938.659	177.83
938.834	261.8
939.009	143.02
939.185	442.02
939.36	251.56
939.535	1.71
939.71	296.61
939.886	638.62
940.061	556.71
940.236	368.29
940.411	226.98
940.586	528.03
940.761	573.09
940.937	175.78
941.112	85.67
941.287	308.9
941.462	431.78
941.637	155.3
941.812	167.59
941.987	499.36
942.162	468.64
942.337	251.56
942.512	136.87
942.687	599.71
942.862	552.61
943.037	89.77
943.212	-115.03
943.386	306.85
943.561	435.88
943.736	321.19
943.911	442.02
944.086	364.2
944.26	437.92
944.435	188.07
944.61	249.51
944.785	650.91
944.959	687.78
945.134	269.99
945.309	48.81
945.483	167.59
945.658	554.66
945.833	-78.16
946.007	-24.92
946.182	810.65
946.357	108.2
946.531	-0.34
946.706	3.75
946.88	-4.44
947.055	368.29
947.229	67.24
947.404	30.38
947.578	532.13
947.752	204.46
947.927	-29.01
948.101	-16.73
948.276	360.1
948.45	364.2
948.624	300.71
948.799	32.43
948.973	415.4
949.147	106.15
949.321	231.08
949.496	97.96
949.67	556.71
949.844	224.94
950.018	52.91
950.193	126.63
950.367	896.67
950.541	188.07
950.715	237.22
950.889	269.99
951.063	233.13
951.237	388.77
951.411	-119.12
951.585	-88.4
951.759	405.16
951.933	368.29
952.107	40.62
952.281	257.7
952.455	685.73
952.629	462.5
952.803	42.67
952.977	48.81
953.151	509.6
953.325	458.4
953.499	288.42
953.672	-88.4
953.846	67.24
954.02	214.7
954.194	46.76
954.368	95.91
954.541	431.78
954.715	181.93
954.889	122.54
955.062	34.47
955.236	313
955.41	255.65
955.583	204.46
955.757	-12.63
955.93	173.74
956.104	11.95
956.278	128.68
956.451	54.95
956.625	468.64
956.798	794.27
956.972	255.65
957.145	48.81
957.319	263.85
957.492	214.7
957.665	245.41
957.839	71.34
958.012	417.44
958.185	104.11
958.359	198.31
958.532	257.7
958.705	509.6
958.879	396.96
959.052	196.26
959.225	-160.08
959.398	216.74
959.572	378.53
959.745	38.57
959.918	198.31
960.091	177.83
960.264	460.45
960.438	24.23
960.611	-4.44
960.784	478.88
960.957	208.55
961.13	360.1
961.303	1.71
961.476	356.01
961.649	454.31
961.822	-47.44
961.995	140.97
962.168	437.92
962.341	362.15
962.514	38.57
962.686	32.43
962.859	351.91
963.032	454.31
963.205	75.43
963.378	-141.65
963.551	411.3
963.723	366.25
963.896	175.78
964.069	235.18
964.242	286.37
964.414	616.1
964.587	108.2
964.76	153.26
964.932	288.42
965.105	229.03
965.278	65.19
965.45	52.91
965.623	257.7
965.795	353.96
965.968	69.29
966.14	57
966.313	233.13
966.485	308.9
966.658	48.81
966.83	40.62
967.003	552.61
967.175	482.98
967.348	22.19
967.52	140.97
967.692	659.1
967.865	429.73
968.037	106.15
968.209	353.96
968.382	251.56
968.554	458.4
968.726	183.98
968.898	79.53
969.071	306.85
969.243	339.62
969.415	175.78
969.587	134.82
969.759	786.08
969.932	556.71
970.104	124.58
970.276	-170.32
970.448	206.5
970.62	118.44
970.792	112.3
970.964	155.3
971.136	765.6
971.308	456.36
971.48	-61.78
971.652	52.91
971.824	634.53
971.996	204.46
972.168	155.3
972.339	126.63
972.511	556.71
972.683	243.37
972.855	237.22
973.027	116.39
973.199	415.4
973.37	509.6
973.542	290.47
973.714	134.82
973.886	386.72
974.057	515.75
974.229	-33.11
974.401	97.96
974.572	110.25
974.744	-129.36
974.915	-43.35
975.087	67.24
975.259	693.92
975.43	120.49
975.602	108.2
975.773	48.81
975.945	7.85
976.116	390.82
976.288	-10.58
976.459	282.28
976.63	226.98
976.802	403.11
976.973	134.82
977.145	259.75
977.316	804.51
977.487	327.33
977.659	239.27
977.83	71.34
978.001	638.62
978.172	304.81
978.344	-33.11
978.515	159.4
978.686	171.69
978.857	482.98
979.028	116.39
979.2	-51.54
979.371	507.55
979.542	278.18
979.713	165.54
979.884	-198.99
980.055	-2.39
980.226	261.8
980.397	-43.35
980.568	-10.58
980.739	521.89
980.91	112.3
981.081	255.65
981.252	-74.07
981.423	413.35
981.594	495.27
981.765	-6.49
981.936	151.21
982.106	278.18
982.277	564.9
982.448	-61.78
982.619	257.7
982.79	245.41
982.96	530.08
983.131	126.63
983.302	-174.42
983.472	179.88
983.643	302.76
983.814	149.16
983.984	28.33
984.155	315.05
984.326	528.03
984.496	118.44
984.667	73.39
984.837	79.53
985.008	493.22
985.178	224.94
985.349	175.78
985.519	274.09
985.69	143.02
985.86	57
986.031	30.38
986.201	265.89
986.371	374.44
986.542	-145.75
986.712	-100.69
986.882	329.38
987.053	351.91
987.223	-141.65
987.393	165.54
987.563	118.44
987.734	415.4
987.904	358.05
988.074	-18.77
988.244	358.05
988.414	138.92
988.585	20.14
988.755	157.35
988.925	179.88
989.095	597.67
989.265	73.39
989.435	75.43
989.605	345.77
989.775	341.67
989.945	323.24
990.115	-63.83
990.285	204.46
990.455	269.99
990.625	188.07
990.795	-119.12
990.965	589.47
991.134	143.02
991.304	-24.92
991.474	-74.07
991.644	382.63
991.814	558.75
991.984	-160.08
992.153	-16.73
992.323	183.98
992.493	212.65
992.662	-182.61
992.832	183.98
993.002	296.61
993.171	302.76
993.341	-147.8
993.511	95.91
993.68	122.54
993.85	323.24
994.019	-170.32
994.189	-151.89
994.358	296.61
994.528	87.72
994.697	-340.3
994.867	-227.67
995.036	372.39
995.206	204.46
995.375	-55.64
995.544	130.73
995.714	229.03
995.883	147.11
996.052	69.29
996.222	-280.91
996.391	736.93
996.56	304.81
996.73	-184.66
996.899	-205.14
997.068	634.53
997.237	229.03
997.406	-20.82
997.576	-242
997.745	229.03
997.914	286.37
998.083	-295.25
998.252	-110.93
998.421	218.79
998.59	61.1
998.759	-143.7
998.928	-213.33
999.097	546.47
999.266	421.54
999.435	52.91
999.604	-252.24
999.773	734.88
999.942	155.3
1000.111	-205.14
1000.28	-262.48
1000.448	-16.73
1000.617	-37.2
1000.786	102.06
1000.955	-237.91
1001.124	253.61
1001.292	855.71
1001.461	-47.44
1001.63	-137.56
1001.798	601.76
1001.967	448.16
1002.136	-217.43
1002.304	-219.47
1002.473	269.99
1002.642	296.61
1002.81	18.09
1002.979	-209.23
1003.147	347.81
1003.316	753.31
1003.484	-90.45
1003.653	-174.42
1003.821	530.08
1003.99	87.72
1004.158	34.47
1004.327	38.57
1004.495	300.71
1004.663	-37.2
1004.832	16.04
1005	-192.85
1005.168	384.68
1005.337	278.18
1005.505	-264.53
1005.673	149.16
1005.842	353.96
1006.01	327.33
1006.178	-194.9
1006.346	-102.74
1006.514	263.85
1006.683	456.36
1006.851	-112.98
1007.019	-233.81
1007.187	-102.74
1007.355	-260.43
1007.523	-305.49
1007.691	-215.38
1007.859	-90.45
1008.027	562.85
1008.195	-182.61
1008.363	-252.24
1008.531	362.15
1008.699	-14.68
1008.867	-332.11
1009.035	-133.46
1009.203	425.64
1009.37	157.35
1009.538	-162.13
1009.706	272.04
1009.874	280.23
1010.042	77.48
1010.209	-233.81
1010.377	-201.04
1010.545	437.92
1010.713	278.18
1010.88	-182.61
1011.048	-106.84
1011.216	83.63
1011.383	534.18
1011.551	-221.52
1011.718	-250.19
1011.886	462.5
1012.054	181.93
1012.221	-225.62
1012.389	-252.24
1012.556	65.19
1012.724	626.34
1012.891	-94.55
1013.058	-295.25
1013.226	323.24
1013.393	386.72
1013.561	-311.63
1013.728	-309.58
1013.895	358.05
1014.063	292.52
1014.23	-276.82
1014.397	-203.09
1014.565	399.01
1014.732	151.21
1014.899	-231.76
1015.066	-227.67
1015.233	292.52
1015.401	384.68
1015.568	-82.26
1015.735	-98.64
1015.902	208.55
1016.069	212.65
1016.236	-106.84
1016.403	-250.19
1016.57	-6.49
1016.737	349.86
1016.904	-135.51
1017.071	-215.38
1017.238	-20.82
1017.405	364.2
1017.572	-147.8
1017.739	11.95
1017.906	241.32
1018.073	401.06
1018.24	-256.34
1018.407	-47.44
1018.573	450.21
1018.74	52.91
1018.907	-123.22
1019.074	-305.49
1019.241	401.06
1019.407	155.3
1019.574	-215.38
1019.741	-373.07
1019.907	224.94
1020.074	245.41
1020.241	-350.54
1020.407	-307.54
1020.574	298.66
1020.74	304.81
1020.907	-155.99
1021.073	-242
1021.24	687.78
1021.406	534.18
1021.573	-221.52
1021.739	-225.62
1021.906	419.49
1022.072	126.63
1022.239	-229.71
1022.405	-194.9
1022.571	165.54
1022.738	16.04
1022.904	-219.47
1023.07	-69.97
1023.237	241.32
1023.403	425.64
1023.569	-192.85
1023.735	-227.67
1023.902	165.54
1024.068	192.17
1024.234	-192.85
1024.4	-115.03
1024.566	229.03
1024.732	388.77
1024.898	-139.6
1025.065	-309.58
1025.231	345.77
1025.397	42.67
1025.563	-82.26
1025.729	-285.01
1025.895	-250.19
1026.061	-29.01
1026.227	-434.51
1026.392	-127.32
1026.558	353.96
1026.724	372.39
1026.89	-235.86
1027.056	-237.91
1027.222	329.38
1027.388	-55.64
1027.553	-229.71
1027.719	-285.01
1027.885	562.85
1028.051	329.38
1028.216	-401.74
1028.382	-141.65
1028.548	329.38
1028.713	95.91
1028.879	-276.82
1029.045	-51.54
1029.21	564.9
1029.376	437.92
1029.541	-164.18
1029.707	-209.23
1029.873	339.62
1030.038	386.72
1030.204	-155.99
1030.369	-192.85
1030.534	280.23
1030.7	67.24
1030.865	-151.89
1031.031	-272.72
1031.196	220.84
1031.361	222.89
1031.527	-213.33
1031.692	-262.48
1031.857	-233.81
1032.023	302.76
1032.188	-287.06
1032.353	-137.56
1032.518	568.99
1032.684	200.36
1032.849	-332.11
1033.014	-139.6
1033.179	351.91
1033.344	306.85
1033.509	-35.16
1033.674	-180.56
1033.839	317.09
1034.004	263.85
1034.17	-102.74
1034.335	-266.58
1034.5	85.67
1034.664	50.86
1034.829	-258.39
1034.994	-194.9
1035.159	280.23
1035.324	274.09
1035.489	-184.66
1035.654	-248.15
1035.819	556.71
1035.984	286.37
1036.148	-102.74
1036.313	-190.8
1036.478	411.3
1036.643	153.26
1036.807	-203.09
1036.972	-276.82
1037.137	499.36
1037.301	138.92
1037.466	-276.82
1037.631	-76.12
1037.795	485.03
1037.96	298.66
1038.124	-14.68
1038.289	-328.02
1038.454	306.85
1038.618	304.81
1038.783	-155.99
1038.947	-74.07
1039.111	224.94
1039.276	173.74
1039.44	-190.8
1039.605	251.56
1039.769	138.92
1039.933	97.96
1040.098	-57.68
1040.262	69.29
1040.426	382.63
1040.591	345.77
1040.755	-192.85
1040.919	-110.93
1041.083	331.43
1041.248	216.74
1041.412	-379.22
1041.576	-242
1041.74	106.15
1041.904	370.34
1042.068	-244.05
1042.232	-151.89
1042.397	378.53
1042.561	265.89
1042.725	-358.74
1042.889	1.71
1043.053	290.47
1043.217	249.51
1043.381	-115.03
1043.544	-270.67
1043.708	407.2
1043.872	-41.3
1044.036	-416.08
1044.2	-233.81
1044.364	433.83
1044.528	540.32
1044.691	2969.21
1044.855	-262.48
1045.019	460.45
1045.183	233.13
1045.346	-121.17
1045.51	-295.25
1045.674	259.75
1045.837	364.2
1046.001	-250.19
1046.165	-319.82
1046.328	657.06
1046.492	249.51
1046.655	5.8
1046.819	-88.4
1046.983	57
1047.146	325.29
1047.31	-72.02
1047.473	-373.07
1047.636	251.56
1047.8	-24.92
1047.963	-151.89
1048.127	-231.76
1048.29	-45.4
