Data from Ink_Intensity_USB4F045381__144__00144.txt Node

Date: Mon Jul 17 11:26:52 EDT 2023
User: mmckonesweet
Spectrometer: USB4F04538
Trigger mode: 4
Integration Time (sec): 9.000000E-1
Scans to average: 1
Electric dark correction enabled: true
Nonlinearity correction enabled: false
Boxcar width: 0
XAxis mode: Wavelengths
Number of Pixels in Spectrum: 3648
>>>>>Begin Spectral Data<<<<<
345.52	-976.71
345.736	-976.71
345.952	-976.71
346.168	-1007.43
346.384	-1001.29
346.6	-165.71
346.816	-186.19
347.032	-169.81
347.248	262.31
347.464	-163.67
347.68	-132.95
347.896	34.99
348.112	282.79
348.328	-57.17
348.544	-116.56
348.76	135.34
348.975	276.65
349.191	-173.91
349.407	-194.39
349.623	-28.5
349.839	-85.84
350.055	-188.24
350.27	141.48
350.486	159.91
350.702	307.37
350.918	219.3
351.133	-235.35
351.349	131.24
351.565	364.71
351.781	-188.24
351.996	-8.02
352.212	252.07
352.428	-85.84
352.644	-167.76
352.859	-247.63
353.075	213.16
353.291	71.85
353.506	-175.95
353.722	-221.01
353.938	-73.56
354.153	432.29
354.369	123.05
354.584	-198.48
354.8	252.07
355.016	-337.74
355.231	-251.73
355.447	-124.76
355.662	43.18
355.878	794.78
356.093	-317.26
356.309	-10.07
356.524	-259.92
356.74	250.02
356.955	-208.72
357.171	-100.18
357.386	129.19
357.602	-237.39
357.817	-100.18
358.033	-165.71
358.248	407.72
358.464	170.15
358.679	-151.38
358.895	-284.5
359.11	8.36
359.325	329.89
359.541	61.61
359.756	55.47
359.972	-212.82
360.187	172.2
360.402	-223.06
360.618	-178
360.833	1030.3
361.048	155.82
361.264	-241.49
361.479	-81.75
361.694	-55.12
361.909	202.92
362.125	-196.43
362.34	-63.32
362.555	243.88
362.77	102.57
362.986	-276.31
363.201	-178
363.416	186.54
363.631	49.32
363.847	-171.86
364.062	-266.07
364.277	147.62
364.492	118.95
364.707	-173.91
364.922	-450.38
365.138	229.54
365.353	278.69
365.568	-255.83
365.783	-149.33
365.998	2.22
366.213	551.07
366.428	-270.16
366.643	96.43
366.858	176.3
367.073	153.77
367.288	-120.66
367.503	-309.07
367.718	125.1
367.933	309.41
368.148	-341.84
368.363	-42.84
368.578	0.17
368.793	446.63
369.008	-128.85
369.223	-296.78
369.438	200.87
369.653	338.09
369.868	-327.5
370.083	-247.63
370.298	157.86
370.513	364.71
370.728	112.81
370.943	-173.91
371.157	-169.81
371.372	583.84
371.587	-280.4
371.802	-206.67
372.017	100.52
372.232	438.44
372.446	-83.8
372.661	-270.16
372.876	225.45
373.091	202.92
373.306	-157.52
373.52	-202.58
373.735	-132.95
373.95	403.62
374.165	-145.24
374.379	-128.85
374.594	-155.47
374.809	55.47
375.023	41.13
375.238	-288.59
375.453	209.06
375.667	-173.91
375.882	-110.42
376.097	-173.91
376.311	-1.88
376.526	10.41
376.741	-169.81
376.955	84.14
377.17	575.65
377.384	530.59
377.599	-30.55
377.813	-309.07
378.028	661.66
378.242	198.82
378.457	-114.52
378.672	-354.13
378.886	102.57
379.101	-1.88
379.315	-368.46
379.53	-157.52
379.744	170.15
379.958	213.16
380.173	-139.09
380.387	-204.63
380.602	86.19
380.816	-91.99
381.031	-264.02
381.245	-118.61
381.459	237.74
381.674	874.65
381.888	-241.49
382.103	32.94
382.317	-223.06
382.531	487.59
382.746	-67.41
382.96	-245.59
383.174	-116.56
383.388	501.92
383.603	34.99
383.817	-255.83
384.031	209.06
384.246	553.12
384.46	-3.93
384.674	288.93
384.888	-48.98
385.103	-51.03
385.317	-302.93
385.531	-100.18
385.745	393.38
385.959	247.97
386.174	-210.77
386.388	-284.5
386.602	34.99
386.816	-141.14
387.03	-141.14
387.244	-89.94
387.458	118.95
387.672	325.8
387.887	-309.07
388.101	-245.59
388.315	395.43
388.529	112.81
388.743	-194.39
388.957	-286.54
389.171	379.04
389.385	-249.68
389.599	-190.29
389.813	39.08
390.027	190.63
390.241	606.37
390.455	-141.14
390.669	-132.95
390.883	-165.71
391.097	379.04
391.311	30.89
391.525	-173.91
391.738	159.91
391.952	139.43
392.166	-51.03
392.38	-249.68
392.594	309.41
392.808	284.84
393.022	-83.8
393.236	-194.39
393.449	131.24
393.663	170.15
393.877	-231.25
394.091	-57.17
394.305	-120.66
394.518	-135
394.732	-223.06
394.946	-132.95
395.16	424.1
395.373	188.58
395.587	-186.19
395.801	-214.87
396.015	374.95
396.228	247.97
396.442	-368.46
396.656	-407.38
396.869	309.41
397.083	426.15
397.297	-63.32
397.51	-120.66
397.724	405.67
397.938	137.38
398.151	-298.83
398.365	-333.65
398.578	213.16
398.792	338.09
399.005	-91.99
399.219	-108.37
399.433	69.8
399.646	250.02
399.86	49.32
400.073	43.18
400.287	241.83
400.5	32.94
400.714	-59.22
400.927	-85.84
401.141	276.65
401.354	1183.9
401.567	190.63
401.781	-264.02
401.994	286.89
402.208	651.42
402.421	-91.99
402.635	-151.38
402.848	12.46
403.061	313.51
403.275	-51.03
403.488	-216.91
403.701	485.54
403.915	196.78
404.128	10.41
404.341	-202.58
404.555	153.77
404.768	51.37
404.981	-38.74
405.195	-137.04
405.408	493.73
405.621	180.39
405.834	-61.27
406.048	-261.97
406.261	370.85
406.474	444.58
406.687	-186.19
406.9	-69.46
407.114	39.08
407.327	243.88
407.54	-364.37
407.753	-323.41
407.966	-186.19
408.179	137.38
408.392	-212.82
408.605	-288.59
408.819	149.67
409.032	221.35
409.245	-208.72
409.458	30.89
409.671	247.97
409.884	309.41
410.097	-390.99
410.31	-46.93
410.523	174.25
410.736	-1.88
410.949	-186.19
411.162	-51.03
411.375	424.1
411.588	329.89
411.801	-28.5
412.014	-126.8
412.227	-16.21
412.44	14.51
412.653	-178
412.865	28.84
413.078	333.99
413.291	198.82
413.504	-108.37
413.717	-233.3
413.93	270.5
414.143	-149.33
414.356	-61.27
414.568	-319.31
414.781	247.97
414.994	106.67
415.207	-100.18
415.42	-42.84
415.632	331.94
415.845	446.63
416.058	-321.36
416.271	-296.78
416.483	108.71
416.696	477.35
416.909	-198.48
417.121	-276.31
417.334	131.24
417.547	587.94
417.759	-194.39
417.972	-264.02
418.185	-77.65
418.397	276.65
418.61	-239.44
418.823	-218.96
419.035	510.11
419.248	92.33
419.46	-96.08
419.673	-112.47
419.885	170.15
420.098	-16.21
420.311	-198.48
420.523	-360.27
420.736	161.96
420.948	49.32
421.161	-165.71
421.373	-372.56
421.586	143.53
421.798	-165.71
422.01	-255.83
422.223	-51.03
422.435	-87.89
422.648	221.35
422.86	-225.11
423.073	-163.67
423.285	338.09
423.497	-268.11
423.71	-233.3
423.922	-245.59
424.134	196.78
424.347	399.52
424.559	-53.08
424.771	51.37
424.984	18.6
425.196	166.06
425.408	-427.85
425.621	-302.93
425.833	288.93
426.045	391.33
426.257	-343.89
426.47	-192.34
426.682	129.19
426.894	207.02
427.106	-178
427.318	-161.62
427.531	-145.24
427.743	221.35
427.955	-126.8
428.167	229.54
428.379	164.01
428.591	-22.36
428.804	-94.04
429.016	-202.58
429.228	30.89
429.44	69.8
429.652	14.51
429.864	-304.98
430.076	-61.27
430.288	-14.17
430.5	-208.72
430.712	-169.81
430.924	260.26
431.136	94.38
431.348	-321.36
431.56	-132.95
431.772	-18.26
431.984	-124.76
432.196	-280.4
432.408	-180.05
432.62	-75.6
432.832	190.63
433.044	18.6
433.256	-65.36
433.468	256.17
433.679	-257.87
433.891	-264.02
434.103	-1.88
434.315	432.29
434.527	250.02
434.739	-48.98
434.95	-124.76
435.162	258.21
435.374	-91.99
435.586	-81.75
435.798	-169.81
436.009	-218.96
436.221	-22.36
436.433	-214.87
436.645	-171.86
436.856	-81.75
437.068	288.93
437.28	-272.21
437.491	141.48
437.703	75.95
437.915	221.35
438.126	-192.34
438.338	75.95
438.55	8.36
438.761	182.44
438.973	-186.19
439.184	-161.62
439.396	-36.69
439.608	262.31
439.819	-329.55
440.031	-75.6
440.242	202.92
440.454	196.78
440.665	-186.19
440.877	-178
441.088	168.1
441.3	-48.98
441.511	-356.18
441.723	-208.72
441.934	127.14
442.146	43.18
442.357	-143.19
442.569	102.57
442.78	77.99
442.991	456.87
443.203	131.24
443.414	-266.07
443.626	327.85
443.837	-171.86
444.048	-319.31
444.26	-378.7
444.471	69.8
444.682	147.62
444.894	-345.94
445.105	-270.16
445.316	266.41
445.528	123.05
445.739	-114.52
445.95	-122.71
446.161	202.92
446.373	286.89
446.584	-135
446.795	-241.49
447.006	215.21
447.217	450.72
447.429	-382.8
447.64	-266.07
447.851	295.08
448.062	92.33
448.273	-413.52
448.484	-247.63
448.695	131.24
448.907	-5.97
449.118	-98.13
449.329	-36.69
449.54	-91.99
449.751	-157.52
449.962	-259.92
450.173	-214.87
450.384	256.17
450.595	290.98
450.806	-141.14
451.017	-145.24
451.228	350.37
451.439	207.02
451.65	-147.28
451.861	-399.18
452.072	-188.24
452.283	6.31
452.494	-5.97
452.705	-276.31
452.915	444.58
453.126	43.18
453.337	-198.48
453.548	-298.83
453.759	313.51
453.97	604.32
454.181	10.41
454.391	-204.63
454.602	2.22
454.813	161.96
455.024	-155.47
455.235	-210.77
455.445	57.51
455.656	186.54
455.867	-61.27
456.078	-268.11
456.288	-1.88
456.499	96.43
456.71	-214.87
456.921	55.47
457.131	112.81
457.342	8.36
457.553	-153.43
457.763	-241.49
457.974	272.55
458.184	268.45
458.395	-243.54
458.606	-368.46
458.816	338.09
459.027	456.87
459.237	-112.47
459.448	-448.33
459.659	311.46
459.869	563.36
460.08	-329.55
460.29	-26.45
460.501	475.3
460.711	-118.61
460.922	-313.17
461.132	-247.63
461.343	743.58
461.553	-300.88
461.764	-208.72
461.974	-235.35
462.184	264.36
462.395	32.94
462.605	-175.95
462.816	-288.59
463.026	104.62
463.236	346.28
463.447	-249.68
463.657	-235.35
463.867	262.31
464.078	-14.17
464.288	-190.29
464.498	-249.68
464.709	139.43
464.919	-12.12
465.129	-128.85
465.339	-223.06
465.55	174.25
465.76	262.31
465.97	-165.71
466.18	-261.97
466.391	180.39
466.601	147.62
466.811	-171.86
467.021	-321.36
467.231	90.28
467.441	368.81
467.651	-188.24
467.862	-444.24
468.072	24.75
468.282	268.45
468.492	-225.11
468.702	-149.33
468.912	-48.98
469.122	686.24
469.332	71.85
469.542	-227.15
469.752	229.54
469.962	75.95
470.172	-268.11
470.382	-264.02
470.592	227.5
470.802	313.51
471.012	-190.29
471.222	-243.54
471.432	204.97
471.642	149.67
471.852	-98.13
472.062	-325.46
472.272	-34.64
472.482	-253.78
472.691	-235.35
472.901	-276.31
473.111	143.53
473.321	528.55
473.531	-390.99
473.741	-81.75
473.95	98.47
474.16	233.64
474.37	-96.08
474.58	-302.93
474.79	497.83
474.999	157.86
475.209	-243.54
475.419	-208.72
475.628	-141.14
475.838	282.79
476.048	-104.28
476.258	-337.74
476.467	315.56
476.677	-65.36
476.886	-100.18
477.096	-110.42
477.306	-87.89
477.515	368.81
477.725	-120.66
477.935	-102.23
478.144	331.94
478.354	-48.98
478.563	-87.89
478.773	-321.36
478.982	129.19
479.192	282.79
479.401	-135
479.611	-272.21
479.82	-65.36
480.03	131.24
480.239	-221.01
480.449	-304.98
480.658	432.29
480.868	-153.43
481.077	-120.66
481.287	-270.16
481.496	190.63
481.705	409.76
481.915	96.43
482.124	10.41
482.333	149.67
482.543	444.58
482.752	-120.66
482.961	-253.78
483.171	194.73
483.38	67.75
483.589	-157.52
483.799	-255.83
484.008	34.99
484.217	354.47
484.426	-190.29
484.636	-364.37
484.845	96.43
485.054	-227.15
485.263	106.67
485.472	-157.52
485.682	487.59
485.891	157.86
486.1	-442.19
486.309	-341.84
486.518	184.49
486.727	424.1
486.936	-304.98
487.146	-153.43
487.355	522.4
487.564	-194.39
487.773	-132.95
487.982	-218.96
488.191	-79.7
488.4	47.27
488.609	-186.19
488.818	-194.39
489.027	546.98
489.236	415.91
489.445	-192.34
489.654	-194.39
489.863	329.89
490.072	129.19
490.281	149.67
490.49	-108.37
490.698	295.08
490.907	391.33
491.116	-190.29
491.325	-345.94
491.534	336.04
491.743	221.35
491.952	-91.99
492.16	-206.67
492.369	114.86
492.578	188.58
492.787	-102.23
492.996	-350.03
493.204	-51.03
493.413	479.4
493.622	-550.73
493.831	-356.18
494.039	444.58
494.248	-137.04
494.457	-247.63
494.665	-399.18
494.874	219.3
495.083	489.64
495.291	-194.39
495.5	-255.83
495.709	266.41
495.917	55.47
496.126	-147.28
496.335	-231.25
496.543	32.94
496.752	131.24
496.96	75.95
497.169	-370.51
497.377	10.41
497.586	399.52
497.794	-67.41
498.003	-415.57
498.211	71.85
498.42	458.92
498.628	-186.19
498.837	-327.5
499.045	182.44
499.254	77.99
499.462	-264.02
499.671	-313.17
499.879	415.91
500.087	319.65
500.296	-313.17
500.504	-157.52
500.713	141.48
500.921	581.79
501.129	-276.31
501.338	-261.97
501.546	190.63
501.754	180.39
501.962	-206.67
502.171	-313.17
502.379	252.07
502.587	452.77
502.795	-173.91
503.004	-186.19
503.212	110.76
503.42	276.65
503.628	-227.15
503.837	-75.6
504.045	188.58
504.253	430.24
504.461	-278.35
504.669	-372.56
504.877	252.07
505.085	430.24
505.294	-358.22
505.502	-51.03
505.71	145.58
505.918	262.31
506.126	-323.41
506.334	-259.92
506.542	34.99
506.75	143.53
506.958	-180.05
507.166	-210.77
507.374	-59.22
507.582	493.73
507.79	-18.26
507.998	-276.31
508.206	198.82
508.414	164.01
508.622	-245.59
508.83	-214.87
509.037	577.7
509.245	55.47
509.453	-255.83
509.661	-311.12
509.869	284.84
510.077	2.22
510.285	-108.37
510.492	-468.81
510.7	645.28
510.908	26.79
511.116	-149.33
511.324	-210.77
511.531	-22.36
511.739	141.48
511.947	-59.22
512.155	96.43
512.362	121
512.57	-280.4
512.778	-347.98
512.985	-442.19
513.193	358.57
513.401	370.85
513.608	-100.18
513.816	-270.16
514.024	233.64
514.231	483.49
514.439	-155.47
514.646	-223.06
514.854	319.65
515.061	401.57
515.269	-284.5
515.477	-284.5
515.684	-104.28
515.892	319.65
516.099	-272.21
516.307	-266.07
516.514	319.65
516.722	501.92
516.929	-198.48
517.136	-284.5
517.344	399.52
517.551	237.74
517.759	-225.11
517.966	-132.95
518.173	20.65
518.381	67.75
518.588	-132.95
518.796	-274.26
519.003	358.57
519.21	43.18
519.418	-268.11
519.625	80.04
519.832	121
520.039	135.34
520.247	-345.94
520.454	-221.01
520.661	399.52
520.868	350.37
521.076	-149.33
521.283	-135
521.49	655.52
521.697	139.43
521.904	-161.62
522.112	-159.57
522.319	377
522.526	164.01
522.733	-261.97
522.94	-171.86
523.147	65.71
523.354	305.32
523.561	-321.36
523.768	-87.89
523.975	252.07
524.183	227.5
524.39	-85.84
524.597	-352.08
524.804	51.37
525.011	-112.47
525.218	-165.71
525.425	-235.35
525.632	452.77
525.838	-59.22
526.045	-216.91
526.252	-270.16
526.459	1235.1
526.666	1007.77
526.873	-206.67
527.08	-208.72
527.287	483.49
527.494	239.78
527.701	-321.36
527.907	-216.91
528.114	252.07
528.321	28.84
528.528	-118.61
528.735	-235.35
528.941	-38.74
529.148	-3.93
529.355	-67.41
529.562	-167.76
529.768	610.47
529.975	73.9
530.182	-149.33
530.388	-231.25
530.595	288.93
530.802	-208.72
531.008	30.89
531.215	-108.37
531.422	485.54
531.628	886.94
531.835	-36.69
532.042	-87.89
532.248	30.89
532.455	186.54
532.661	-139.09
532.868	-132.95
533.074	194.73
533.281	340.13
533.487	-77.65
533.694	-278.35
533.9	-55.12
534.107	258.21
534.313	-243.54
534.52	-270.16
534.726	278.69
534.933	620.71
535.139	-264.02
535.345	-231.25
535.552	235.69
535.758	121
535.965	-130.9
536.171	-229.2
536.377	368.81
536.584	442.53
536.79	-190.29
536.996	-81.75
537.203	252.07
537.409	254.12
537.615	-159.57
537.821	55.47
538.028	196.78
538.234	313.51
538.44	-149.33
538.646	-61.27
538.853	274.6
539.059	92.33
539.265	293.03
539.471	-352.08
539.677	325.8
539.883	135.34
540.09	-208.72
540.296	272.55
540.502	129.19
540.708	-83.8
540.914	20.65
541.12	-153.43
541.326	293.03
541.532	131.24
541.738	-85.84
541.944	-34.64
542.15	415.91
542.356	118.95
542.562	-190.29
542.768	-116.56
542.974	755.87
543.18	596.13
543.386	-165.71
543.592	-345.94
543.798	555.17
544.004	403.62
544.21	-132.95
544.415	-65.36
544.621	166.06
544.827	465.06
545.033	-184.15
545.239	55.47
545.445	-57.17
545.651	280.74
545.856	-130.9
546.062	-151.38
546.268	59.56
546.474	161.96
546.679	-139.09
546.885	-36.69
547.091	16.55
547.297	735.39
547.502	-102.23
547.708	-296.78
547.914	14.51
548.119	272.55
548.325	-194.39
548.531	-255.83
548.736	575.65
548.942	-151.38
549.147	-137.04
549.353	71.85
549.559	424.1
549.764	252.07
549.97	-59.22
550.175	-75.6
550.381	385.19
550.586	98.47
550.792	-71.51
550.997	-128.85
551.203	200.87
551.408	381.09
551.614	-182.1
551.819	-128.85
552.025	546.98
552.23	620.71
552.435	-206.67
552.641	137.38
552.846	53.42
553.052	510.11
553.257	28.84
553.462	-151.38
553.668	-20.31
553.873	389.28
554.078	-163.67
554.283	-57.17
554.489	278.69
554.694	202.92
554.899	-155.47
555.105	92.33
555.31	354.47
555.515	409.76
555.72	39.08
555.925	-171.86
556.131	377
556.336	84.14
556.541	-167.76
556.746	-65.36
556.951	614.56
557.156	628.9
557.361	4.27
557.567	114.86
557.772	749.73
557.977	389.28
558.182	-36.69
558.387	-102.23
558.592	118.95
558.797	510.11
559.002	-77.65
559.207	84.14
559.412	151.72
559.617	694.43
559.822	-98.13
560.027	-91.99
560.232	303.27
560.437	366.76
560.642	-216.91
560.847	-198.48
561.051	245.93
561.256	362.66
561.461	-34.64
561.666	-169.81
561.871	241.83
562.076	420
562.281	2.22
562.485	-190.29
562.69	422.05
562.895	383.14
563.1	-5.97
563.305	-139.09
563.509	583.84
563.714	841.89
563.919	-149.33
564.123	-89.94
564.328	256.17
564.533	587.94
564.737	-71.51
564.942	-69.46
565.147	575.65
565.351	702.62
565.556	88.23
565.761	6.31
565.965	395.43
566.17	71.85
566.374	26.79
566.579	-128.85
566.784	288.93
566.988	145.58
567.193	-202.58
567.397	-126.8
567.602	-96.08
567.806	231.59
568.011	-48.98
568.215	4.27
568.42	116.9
568.624	196.78
568.828	-3.93
569.033	180.39
569.237	395.43
569.442	403.62
569.646	-196.43
569.85	-8.02
570.055	143.53
570.259	358.57
570.463	121
570.668	-3.93
570.872	233.64
571.076	215.21
571.281	92.33
571.485	108.71
571.689	286.89
571.893	469.16
572.098	88.23
572.302	-73.56
572.506	424.1
572.71	284.84
572.914	77.99
573.119	-51.03
573.323	673.95
573.527	645.28
573.731	-14.17
573.935	-10.07
574.139	448.68
574.343	53.42
574.547	-30.55
574.751	6.31
574.955	594.08
575.159	581.79
575.364	67.75
575.568	-75.6
575.772	327.85
575.976	581.79
576.18	14.51
576.383	-135
576.587	544.93
576.791	493.73
576.995	-175.95
577.199	-126.8
577.403	555.17
577.607	649.38
577.811	-75.6
578.015	104.62
578.219	383.14
578.422	555.17
578.626	114.86
578.83	284.84
579.034	522.4
579.238	354.47
579.442	-26.45
579.645	446.63
579.849	252.07
580.053	413.86
580.257	67.75
580.46	129.19
580.664	569.51
580.868	518.31
581.071	295.08
581.275	186.54
581.479	92.33
581.682	528.55
581.886	59.56
582.09	151.72
582.293	516.26
582.497	489.64
582.7	225.45
582.904	80.04
583.107	471.2
583.311	321.7
583.515	180.39
583.718	153.77
583.922	565.41
584.125	852.13
584.329	2.22
584.532	272.55
584.735	686.24
584.939	499.88
585.142	-32.6
585.346	61.61
585.549	444.58
585.753	264.36
585.956	82.09
586.159	194.73
586.363	790.69
586.566	510.11
586.769	-3.93
586.973	57.51
587.176	594.08
587.379	649.38
587.582	442.53
587.786	268.45
587.989	399.52
588.192	1110.17
588.395	213.16
588.599	432.29
588.802	577.7
589.005	536.74
589.208	141.48
589.411	112.81
589.615	616.61
589.818	845.98
590.021	401.57
590.224	274.6
590.427	583.84
590.63	696.48
590.833	-83.8
591.036	77.99
591.239	331.94
591.442	278.69
591.645	413.86
591.848	63.66
592.051	542.88
592.254	600.23
592.457	227.5
592.66	172.2
592.863	446.63
593.066	532.64
593.269	180.39
593.472	239.78
593.675	243.88
593.878	676
594.081	274.6
594.284	34.99
594.486	604.32
594.689	510.11
594.892	340.13
595.095	204.97
595.298	616.61
595.5	362.66
595.703	229.54
595.906	368.81
596.109	798.88
596.311	712.86
596.514	22.7
596.717	243.88
596.92	819.36
597.122	497.83
597.325	-32.6
597.528	155.82
597.73	845.98
597.933	594.08
598.136	141.48
598.338	41.13
598.541	602.27
598.743	872.61
598.946	284.84
599.148	243.88
599.351	813.21
599.554	649.38
599.756	366.76
599.959	311.46
600.161	766.11
600.363	997.53
600.566	530.59
600.768	383.14
600.971	833.69
601.173	782.49
601.376	211.11
601.578	301.22
601.78	624.8
601.983	1073.31
602.185	301.22
602.388	493.73
602.59	745.63
602.792	436.39
602.995	555.17
603.197	268.45
603.399	805.02
603.601	610.47
603.804	350.37
604.006	356.52
604.208	485.54
604.41	190.63
604.613	417.96
604.815	227.5
605.017	1132.7
605.219	544.93
605.421	669.86
605.623	223.4
605.826	886.94
606.028	1009.82
606.23	305.32
606.432	307.37
606.634	915.61
606.836	891.04
607.038	198.82
607.24	491.68
607.442	698.53
607.644	630.95
607.846	438.44
608.048	268.45
608.25	989.34
608.452	499.88
608.654	368.81
608.856	161.96
609.058	561.31
609.26	856.22
609.462	432.29
609.664	403.62
609.866	1151.13
610.067	809.12
610.269	514.21
610.471	350.37
610.673	553.12
610.875	768.16
611.077	233.64
611.278	450.72
611.48	624.8
611.682	1132.7
611.884	465.06
612.085	450.72
612.287	440.48
612.489	770.21
612.69	260.26
612.892	463.01
613.094	1020.06
613.295	792.73
613.497	223.4
613.699	454.82
613.9	1046.68
614.102	878.75
614.304	483.49
614.505	295.08
614.707	645.28
614.908	686.24
615.11	274.6
615.311	587.94
615.513	876.7
615.714	942.24
615.916	305.32
616.117	413.86
616.319	653.47
616.52	913.56
616.722	368.81
616.923	379.04
617.124	919.71
617.326	821.41
617.527	549.03
617.729	622.75
617.93	895.13
618.131	874.65
618.333	354.47
618.534	399.52
618.735	469.16
618.937	1116.31
619.138	379.04
619.339	383.14
619.54	813.21
619.742	575.65
619.943	657.57
620.144	526.5
620.345	999.58
620.546	907.42
620.748	432.29
620.949	477.35
621.15	825.5
621.351	807.07
621.552	432.29
621.753	278.69
621.954	409.76
622.155	1183.9
622.356	372.9
622.558	544.93
622.759	764.06
622.96	1204.38
623.161	516.26
623.362	614.56
623.563	817.31
623.764	872.61
623.965	551.07
624.166	708.77
624.366	743.58
624.567	764.06
624.768	186.54
624.969	487.59
625.17	729.25
625.371	915.61
625.572	637.09
625.773	456.87
625.973	1038.49
626.174	985.24
626.375	649.38
626.576	639.14
626.777	942.24
626.977	1400.98
627.178	561.31
627.379	614.56
627.58	678.05
627.78	686.24
627.981	628.9
628.182	694.43
628.382	1118.36
628.583	516.26
628.784	411.81
628.984	776.35
629.185	952.48
629.386	1020.06
629.586	649.38
629.787	473.25
629.987	956.57
630.188	831.65
630.388	581.79
630.589	680.1
630.79	1423.51
630.99	876.7
631.191	632.99
631.391	686.24
631.591	977.05
631.792	1202.33
631.992	723.1
632.193	690.34
632.393	1267.86
632.594	821.41
632.794	583.84
632.994	770.21
633.195	997.53
633.395	882.85
633.595	635.04
633.796	927.9
633.996	764.06
634.196	1161.37
634.397	448.68
634.597	788.64
634.797	735.39
634.997	1327.25
635.198	833.69
635.398	561.31
635.598	944.28
635.798	1261.72
635.998	1095.83
636.199	628.9
636.399	833.69
636.599	813.21
636.799	559.27
636.999	1042.59
637.199	1005.72
637.399	1228.95
637.599	567.46
637.799	753.82
637.999	665.76
638.199	1298.58
638.399	530.59
638.599	710.82
638.799	1216.66
638.999	1400.98
639.199	940.19
639.399	825.5
639.599	1251.48
639.799	940.19
639.999	639.14
640.199	626.85
640.399	1044.63
640.599	1190.04
640.799	874.65
640.998	929.95
641.198	1271.96
641.398	1136.79
641.598	903.32
641.798	747.68
641.997	1949.84
642.197	968.86
642.397	938.14
642.597	764.06
642.796	1169.56
642.996	1403.03
643.196	934.04
643.395	676
643.595	1149.08
643.795	647.33
643.994	817.31
644.194	907.42
644.394	1130.65
644.593	1194.14
644.793	678.05
644.992	905.37
645.192	1192.09
645.392	698.53
645.591	866.46
645.791	882.85
645.99	1169.56
646.19	1046.68
646.389	860.32
646.589	782.49
646.788	1220.76
646.987	1108.12
647.187	1048.73
647.386	1038.49
647.586	1136.79
647.785	1296.53
647.984	829.6
648.184	1065.11
648.383	940.19
648.582	981.15
648.782	925.85
648.981	1071.26
649.18	942.24
649.38	1159.32
649.579	962.72
649.778	833.69
649.977	1271.96
650.177	1210.52
650.376	854.17
650.575	891.04
650.774	1392.79
650.973	1022.11
651.173	665.76
651.372	983.2
651.571	1153.18
651.77	1321.11
651.969	929.95
652.168	1040.54
652.367	921.76
652.566	1345.69
652.765	932
652.964	1253.53
653.163	1650.83
653.362	1091.74
653.561	921.76
653.76	845.98
653.959	1140.89
654.158	1433.75
654.357	1204.38
654.556	1003.68
654.755	1337.49
654.954	1349.78
655.153	966.81
655.352	1108.12
655.551	1554.58
655.749	981.15
655.948	1128.6
656.147	1077.4
656.346	1308.82
656.545	1251.48
656.743	1097.88
656.942	1061.02
657.141	1220.76
657.34	1071.26
657.538	1108.12
657.737	952.48
657.936	1122.46
658.135	1329.3
658.333	1042.59
658.532	1079.45
658.731	1724.56
658.929	1417.37
659.128	1327.25
659.326	1009.82
659.525	1544.34
659.724	1306.77
659.922	813.21
660.121	895.13
660.319	1292.44
660.518	1104.03
660.716	977.05
660.915	923.8
661.113	1714.32
661.312	1108.12
661.51	1153.18
661.709	1032.35
661.907	1501.33
662.105	1753.23
662.304	1009.82
662.502	1177.75
662.701	1634.45
662.899	1226.9
663.097	1476.76
663.296	950.43
663.494	1525.91
663.692	1710.22
663.891	1120.41
664.089	966.81
664.287	1400.98
664.485	1607.83
664.684	1161.37
664.882	1187.99
665.08	1378.45
665.278	1310.87
665.476	923.8
665.675	1415.32
665.873	1826.96
666.071	1667.22
666.269	1097.88
666.467	1349.78
666.665	1321.11
666.863	1403.03
667.061	1345.69
667.259	1079.45
667.457	1368.21
667.655	1626.26
667.853	983.2
668.051	1288.34
668.249	1239.19
668.447	1577.11
668.645	1052.83
668.843	1405.08
669.041	1636.5
669.239	1286.3
669.437	1261.72
669.635	1321.11
669.833	1329.3
670.031	1611.92
670.229	1392.79
670.426	1271.96
670.624	1335.45
670.822	1394.84
671.02	1296.53
671.218	1278.1
671.415	1247.38
671.613	1427.6
671.811	1360.02
672.009	1192.09
672.206	1630.35
672.404	1415.32
672.602	1509.52
672.799	1327.25
672.997	1593.49
673.195	1869.97
673.392	1435.8
673.59	1104.03
673.788	1659.03
673.985	999.58
674.183	1274.01
674.38	1253.53
674.578	1712.27
674.775	1267.86
674.973	1192.09
675.17	1259.67
675.368	1931.41
675.565	1636.5
675.763	1226.9
675.96	1093.79
676.158	1788.05
676.355	1405.08
676.553	1284.25
676.75	1343.64
676.947	1544.34
677.145	1519.76
677.342	1489.04
677.539	1476.76
677.737	1624.21
677.934	1980.56
678.131	1579.15
678.329	1280.15
678.526	1915.02
678.723	1697.94
678.92	1482.9
679.118	1310.87
679.315	1302.68
679.512	1966.22
679.709	1417.37
679.906	1335.45
680.104	1998.99
680.301	1683.6
680.498	1155.23
680.695	1300.63
680.892	1433.75
681.089	1390.74
681.286	1376.41
681.483	1286.3
681.68	1720.46
681.877	1786
682.075	1343.64
682.272	1593.49
682.469	1691.79
682.665	1570.96
682.862	1271.96
683.059	1308.82
683.256	1628.31
683.453	1611.92
683.65	1527.96
683.847	1439.89
684.044	1706.13
684.241	1341.59
684.438	1484.95
684.635	1206.42
684.831	2146.44
685.028	2089.1
685.225	1443.99
685.422	1603.73
685.619	1669.27
685.815	1568.91
686.012	1566.87
686.209	1540.24
686.405	1454.23
686.602	1792.14
686.799	1292.44
686.996	1462.42
687.192	1325.21
687.389	2082.95
687.586	1331.35
687.782	1439.89
687.979	2054.28
688.175	2013.32
688.372	1474.71
688.568	1489.04
688.765	1525.91
688.962	1937.55
689.158	1620.11
689.355	1374.36
689.551	1861.77
689.748	1613.97
689.944	1603.73
690.14	1366.17
690.337	1884.3
690.533	1648.79
690.73	1685.65
690.926	1597.59
691.123	1773.71
691.319	1677.46
691.515	1325.21
691.712	1722.51
691.908	1884.3
692.104	1710.22
692.301	1607.83
692.497	1474.71
692.693	1990.8
692.889	2025.61
693.086	1677.46
693.282	1357.97
693.478	1755.28
693.674	2214.02
693.87	1605.78
694.067	1263.77
694.263	1730.7
694.459	1603.73
694.655	1685.65
694.851	1722.51
695.047	1984.65
695.243	1894.54
695.439	1714.32
695.635	1568.91
695.831	1955.98
696.027	1896.59
696.224	1587.35
696.42	1923.21
696.615	2130.06
696.811	2035.85
697.007	1368.21
697.203	1579.15
697.399	1843.34
697.595	2054.28
697.791	1577.11
697.987	1699.98
698.183	1435.8
698.379	1605.78
698.575	1714.32
698.77	1587.35
698.966	2156.68
699.162	2140.3
699.358	1597.59
699.554	1632.4
699.749	2052.24
699.945	2017.42
700.141	1783.95
700.337	1788.05
700.532	1878.16
700.728	1595.54
700.924	1697.94
701.119	1495.19
701.315	1947.79
701.511	1837.2
701.706	1716.37
701.902	1441.94
702.097	1716.37
702.293	2048.14
702.489	1677.46
702.684	1577.11
702.88	1933.45
703.075	1792.14
703.271	1706.13
703.466	1505.43
703.662	1898.64
703.857	2027.66
704.053	1562.77
704.248	1552.53
704.443	1968.27
704.639	2154.63
704.834	1812.62
705.03	1794.19
705.225	2066.57
705.42	2097.29
705.616	1818.77
705.811	1575.06
706.006	1910.93
706.202	1796.24
706.397	1792.14
706.592	1577.11
706.787	1865.87
706.983	1798.29
707.178	1886.35
707.373	1808.53
707.568	2128.01
707.763	2238.6
707.959	1663.12
708.154	1609.87
708.349	1986.7
708.544	2119.82
708.739	1919.12
708.934	1630.35
709.129	2099.34
709.324	2228.36
709.519	1681.55
709.714	1566.87
709.909	2205.83
710.104	2103.43
710.299	1740.94
710.494	1826.96
710.689	2177.16
710.884	2013.32
711.079	1814.67
711.274	1896.59
711.469	2089.1
711.664	1949.84
711.859	1687.7
712.054	1962.12
712.249	2162.83
712.443	2138.25
712.638	1613.97
712.833	1738.9
713.028	2064.52
713.223	2017.42
713.417	1960.08
713.612	1697.94
713.807	2144.39
714.002	2576.52
714.196	1998.99
714.391	1681.55
714.586	2250.89
714.78	1947.79
714.975	1906.83
715.17	1792.14
715.364	1976.46
715.559	2304.14
715.754	1595.54
715.948	1742.99
716.143	2480.26
716.337	2107.53
716.532	2238.6
716.726	1626.26
716.921	2199.69
717.115	2443.4
717.31	1718.42
717.504	2349.19
717.699	1949.84
717.893	2205.83
718.088	1853.58
718.282	1702.03
718.476	2060.43
718.671	2168.97
718.865	1808.53
719.059	1855.63
719.254	2142.35
719.448	2402.44
719.642	3348.6
719.837	1630.35
720.031	2328.71
720.225	2384.01
720.419	1988.75
720.614	1808.53
720.808	2224.26
721.002	1974.41
721.196	1822.86
721.39	1826.96
721.585	2402.44
721.779	2302.09
721.973	1890.45
722.167	1630.35
722.361	2162.83
722.555	2224.26
722.749	1874.06
722.943	1849.49
723.137	1808.53
723.331	2246.79
723.525	1988.75
723.719	1867.92
723.913	2195.59
724.107	2447.49
724.301	1806.48
724.495	2046.09
724.689	2506.88
724.883	2441.35
725.077	1861.77
725.271	1933.45
725.465	2375.81
725.659	2070.67
725.853	1990.8
726.046	1716.37
726.24	2023.56
726.434	2398.34
726.628	1740.94
726.822	1970.32
727.015	2500.74
727.209	2478.21
727.403	1955.98
727.596	1820.81
727.79	2414.73
727.984	2445.45
728.177	1874.06
728.371	2121.87
728.565	2463.88
728.758	1931.41
728.952	1849.49
729.146	1931.41
729.339	2459.78
729.533	2146.44
729.726	2005.13
729.92	1849.49
730.113	2472.07
730.307	2300.04
730.5	1888.4
730.694	1812.62
730.887	2091.15
731.081	2474.12
731.274	1906.83
731.468	2029.71
731.661	2271.37
731.854	2033.8
732.048	1910.93
732.241	1906.83
732.435	1964.17
732.628	2259.08
732.821	2103.43
733.014	1910.93
733.208	1949.84
733.401	2482.31
733.594	2058.38
733.788	1982.6
733.981	2531.46
734.174	2332.81
734.367	2066.57
734.56	2162.83
734.754	2515.08
734.947	2295.94
735.14	1921.17
735.333	1921.17
735.526	2373.77
735.719	2166.92
735.912	1990.8
736.105	1980.56
736.298	2250.89
736.491	2173.07
736.684	2009.23
736.877	1976.46
737.07	2349.19
737.263	2631.81
737.456	2019.47
737.649	1849.49
737.842	2201.74
738.035	2381.96
738.228	2068.62
738.421	2140.3
738.614	2553.99
738.807	2447.49
739	1923.21
739.192	1927.31
739.385	2427.01
739.578	2330.76
739.771	2279.56
739.964	2089.1
740.156	2482.31
740.349	2336.9
740.542	2277.51
740.735	1982.6
740.927	2046.09
741.12	2162.83
741.313	2080.91
741.505	2316.42
741.698	2463.88
741.891	2365.57
742.083	2318.47
742.276	2078.86
742.468	2287.75
742.661	2355.33
742.854	2193.55
743.046	2103.43
743.239	2916.48
743.431	2463.88
743.624	2099.34
743.816	2009.23
744.009	2287.75
744.201	2566.28
744.393	2310.28
744.586	2009.23
744.778	2615.43
744.971	2498.69
745.163	2146.44
745.355	2187.4
745.548	2316.42
745.74	2449.54
745.932	2271.37
746.125	2099.34
746.317	2881.66
746.509	2437.25
746.702	2359.43
746.894	2297.99
747.086	2588.8
747.278	2738.3
747.471	2361.48
747.663	2318.47
747.855	2293.9
748.047	2971.77
748.239	2125.96
748.431	2166.92
748.623	2908.29
748.815	2824.32
749.008	2044.04
749.2	1941.65
749.392	2644.1
749.584	2541.7
749.776	2254.98
749.968	2259.08
750.16	2840.7
750.352	2345.09
750.544	2175.11
750.736	2134.15
750.928	2553.99
751.12	2418.82
751.311	2160.78
751.503	2207.88
751.695	2488.45
751.887	2488.45
752.079	1992.84
752.271	2271.37
752.463	3158.14
752.654	2717.83
752.846	2193.55
753.038	2185.35
753.23	2254.98
753.421	2668.67
753.613	2238.6
753.805	2445.45
753.997	2775.17
754.188	2728.07
754.38	2259.08
754.572	2238.6
754.763	2392.2
754.955	2637.95
755.146	2381.96
755.338	2431.11
755.53	2631.81
755.721	2515.08
755.913	2085
756.104	2144.39
756.296	2420.87
756.487	2771.07
756.679	2152.59
756.87	2265.22
757.062	2437.25
757.253	2607.23
757.445	2324.62
757.636	2283.66
757.827	2558.08
758.019	3156.09
758.21	2248.84
758.401	2363.53
758.593	3041.4
758.784	2848.9
758.975	1949.84
759.167	2025.61
759.358	2556.04
759.549	2816.13
759.74	2128.01
759.932	2123.91
760.123	2760.83
760.314	2455.69
760.505	2447.49
760.696	2240.65
760.888	3055.74
761.079	2484.36
761.27	2302.09
761.461	2261.13
761.652	2932.86
761.843	2457.73
762.034	2228.36
762.225	2564.23
762.416	2381.96
762.607	2588.8
762.798	2437.25
762.989	2257.03
763.18	3356.79
763.371	2513.03
763.562	2263.18
763.753	2338.95
763.944	2855.04
764.135	2844.8
764.326	2513.03
764.517	2291.85
764.708	2797.7
764.899	2764.93
765.089	2160.78
765.28	2222.22
765.471	2594.95
765.662	2728.07
765.853	2320.52
766.043	2125.96
766.234	2777.22
766.425	2670.72
766.615	2310.28
766.806	2187.4
766.997	3039.36
767.187	2547.84
767.378	2195.59
767.569	2173.07
767.759	2754.69
767.95	2607.23
768.141	2549.89
768.331	2226.31
768.522	2635.91
768.712	2693.25
768.903	2338.95
769.093	2203.79
769.284	2947.2
769.474	2697.35
769.665	2181.26
769.855	2226.31
770.046	2705.54
770.236	2515.08
770.426	2490.5
770.617	2152.59
770.807	2693.25
770.998	2582.66
771.188	2517.12
771.378	2181.26
771.569	2814.08
771.759	2652.29
771.949	2220.17
772.139	2033.8
772.33	2584.71
772.52	2975.87
772.71	2332.81
772.9	2300.04
773.09	2955.39
773.281	3072.12
773.471	2234.5
773.661	2177.16
773.851	2818.18
774.041	2513.03
774.231	2193.55
774.421	2539.65
774.611	2918.53
774.802	2652.29
774.992	2453.64
775.182	2283.66
775.372	2572.42
775.562	2760.83
775.752	2320.52
775.942	2279.56
776.131	2949.25
776.321	2717.83
776.511	2285.7
776.701	2209.93
776.891	2805.89
777.081	2418.82
777.271	2353.29
777.461	2173.07
777.651	2699.39
777.84	2875.52
778.03	2418.82
778.22	2201.74
778.41	2832.51
778.599	2422.92
778.789	2271.37
778.979	2263.18
779.169	2670.72
779.358	2580.61
779.548	2646.15
779.738	1953.93
779.927	2709.63
780.117	2435.21
780.307	2252.94
780.496	2220.17
780.686	2771.07
780.875	2959.49
781.065	2152.59
781.254	2375.81
781.444	2699.39
781.633	2726.02
781.823	2218.12
782.012	2377.86
782.202	2519.17
782.391	2537.6
782.581	2203.79
782.77	2496.64
782.96	2721.92
783.149	2533.51
783.338	2345.09
783.528	2238.6
783.717	2912.38
783.906	2824.32
784.096	2547.84
784.285	2197.64
784.474	2502.79
784.663	2445.45
784.853	2351.24
785.042	2304.14
785.231	2406.53
785.42	2875.52
785.61	2402.44
785.799	2287.75
785.988	2586.76
786.177	2570.37
786.366	2465.93
786.555	2488.45
786.744	2857.09
786.933	2648.19
787.122	2295.94
787.312	2310.28
787.501	2392.2
787.69	2746.5
787.879	2310.28
788.068	2341
788.257	2381.96
788.445	2431.11
788.634	2224.26
788.823	2160.78
789.012	3131.51
789.201	2887.81
789.39	2328.71
789.579	2254.98
789.768	2474.12
789.957	2623.62
790.145	2330.76
790.334	2054.28
790.523	2566.28
790.712	2549.89
790.9	2324.62
791.089	2246.79
791.278	2873.47
791.467	2545.8
791.655	2615.43
791.844	2762.88
792.033	2357.38
792.221	2621.57
792.41	2441.35
792.599	2136.2
792.787	2750.59
792.976	2932.86
793.164	2332.81
793.353	2394.25
793.541	2834.56
793.73	2758.78
793.918	2531.46
794.107	2361.48
794.295	2629.76
794.484	2642.05
794.672	2312.33
794.861	2322.57
795.049	2785.41
795.238	3104.89
795.426	2308.23
795.614	2480.26
795.803	2807.94
795.991	2988.16
796.179	2371.72
796.368	2435.21
796.556	2834.56
796.744	2418.82
796.932	2252.94
797.121	2234.5
797.309	2490.5
797.497	2865.28
797.685	2394.25
797.874	2338.95
798.062	2635.91
798.25	2859.14
798.438	2324.62
798.626	2300.04
798.814	2736.26
799.002	3135.61
799.19	2590.85
799.378	2420.87
799.566	2883.71
799.755	3045.5
799.943	2683.01
800.131	2357.38
800.318	2650.24
800.506	2846.85
800.694	2384.01
800.882	2500.74
801.07	2926.72
801.258	2498.69
801.446	2242.7
801.634	2373.77
801.822	2676.87
802.01	2668.67
802.197	2371.72
802.385	2539.65
802.573	2769.02
802.761	2662.53
802.949	2410.63
803.136	2279.56
803.324	3000.44
803.512	2766.98
803.699	2480.26
803.887	2226.31
804.075	2996.35
804.262	2472.07
804.45	2390.15
804.638	2611.33
804.825	2515.08
805.013	2607.23
805.201	2443.4
805.388	2384.01
805.576	2791.55
805.763	3070.08
805.951	2443.4
806.138	2721.92
806.326	3213.43
806.513	2920.57
806.701	2578.56
806.888	2404.49
807.075	2795.65
807.263	3207.29
807.45	2246.79
807.638	2754.69
807.825	3287.16
808.012	2959.49
808.2	2533.51
808.387	2809.98
808.574	2779.26
808.761	3266.68
808.949	2525.32
809.136	2640
809.323	2887.81
809.51	2740.35
809.698	2801.79
809.885	2693.25
810.072	2904.19
810.259	3037.31
810.446	2666.63
810.633	2615.43
810.82	3016.83
811.008	3235.96
811.195	2785.41
811.382	2543.75
811.569	2898.05
811.756	2619.52
811.943	2752.64
812.13	2582.66
812.317	2758.78
812.504	2795.65
812.691	2701.44
812.878	2762.88
813.064	3324.02
813.251	2889.85
813.438	2556.04
813.625	2779.26
813.812	2807.94
813.999	2807.94
814.186	2750.59
814.372	2693.25
814.559	2834.56
814.746	3242.11
814.933	2676.87
815.12	2893.95
815.306	2859.14
815.493	2650.24
815.68	2678.91
815.866	2687.11
816.053	3106.94
816.24	3567.73
816.426	2828.42
816.613	2566.28
816.799	3127.42
816.986	3201.15
817.173	2746.5
817.359	2623.62
817.546	3020.92
817.732	2662.53
817.919	2412.68
818.105	2666.63
818.292	2693.25
818.478	3158.14
818.665	2947.2
818.851	2748.54
819.037	3491.96
819.224	3043.45
819.41	2562.18
819.597	2775.17
819.783	3321.98
819.969	3168.38
820.156	2723.97
820.342	2484.36
820.528	3823.73
820.714	2906.24
820.901	2949.25
821.087	2742.4
821.273	3475.57
821.459	2932.86
821.646	2689.15
821.832	2793.6
822.018	3022.97
822.204	2982.01
822.39	2769.02
822.576	2599.04
822.762	3178.62
822.948	2961.53
823.134	2926.72
823.32	2705.54
823.507	2934.91
823.693	3072.12
823.879	3172.47
824.065	2668.67
824.25	3000.44
824.436	2691.2
824.622	2668.67
824.808	2713.73
824.994	2832.51
825.18	2775.17
825.366	2541.7
825.552	2734.21
825.738	2893.95
825.923	3149.95
826.109	2912.38
826.295	2726.02
826.481	2893.95
826.667	2943.1
826.852	2855.04
827.038	2687.11
827.224	3440.76
827.409	3418.23
827.595	2539.65
827.781	2893.95
827.966	3139.71
828.152	3135.61
828.338	2840.7
828.523	2562.18
828.709	2758.78
828.894	3405.94
829.08	2771.07
829.266	2742.4
829.451	2777.22
829.637	3123.32
829.822	2818.18
830.008	2726.02
830.193	3270.78
830.378	3477.62
830.564	2902.14
830.749	2578.56
830.935	3217.53
831.12	3096.7
831.305	2619.52
831.491	2834.56
831.676	2756.74
831.861	3199.1
832.047	2857.09
832.232	2713.73
832.417	3367.03
832.602	2988.16
832.788	2627.71
832.973	2771.07
833.158	2932.86
833.343	2963.58
833.528	2885.76
833.714	2771.07
833.899	3151.99
834.084	3584.12
834.269	2914.43
834.454	2809.98
834.639	3201.15
834.824	2984.06
835.009	2873.47
835.194	2771.07
835.379	3043.45
835.564	3432.57
835.749	2920.57
835.934	2627.71
836.119	3192.95
836.304	3045.5
836.489	2683.01
836.674	2949.25
836.859	2683.01
837.044	3252.35
837.228	2783.36
837.413	2642.05
837.598	3131.51
837.783	3301.5
837.968	2769.02
838.152	2470.02
838.337	2586.76
838.522	3334.26
838.707	3221.63
838.891	2844.8
839.076	3123.32
839.261	3268.73
839.445	2742.4
839.63	2734.21
839.815	3397.75
839.999	2955.39
840.184	2709.63
840.368	2752.64
840.553	3104.89
840.737	3258.49
840.922	2558.08
841.106	2629.76
841.291	2711.68
841.475	3186.81
841.66	2705.54
841.844	2816.13
842.029	3702.9
842.213	2775.17
842.397	2633.86
842.582	2627.71
842.766	3299.45
842.951	3176.57
843.135	2785.41
843.319	2830.46
843.504	3004.54
843.688	3195
843.872	2492.55
844.056	2570.37
844.241	3016.83
844.425	2908.29
844.609	2916.48
844.793	2488.45
844.977	3213.43
845.161	3078.27
845.346	2590.85
845.53	2717.83
845.714	3022.97
845.898	3272.82
846.082	2533.51
846.266	2607.23
846.45	3035.26
846.634	3070.08
846.818	2607.23
847.002	2857.09
847.186	3176.57
847.37	2734.21
847.554	2627.71
847.738	2865.28
847.922	3025.02
848.106	3025.02
848.29	2689.15
848.473	2734.21
848.657	3160.19
848.841	2877.57
849.025	2660.48
849.209	2513.03
849.392	3037.31
849.576	2900.09
849.76	2351.24
849.944	2814.08
850.127	3381.37
850.311	2631.81
850.495	2605.19
850.678	2515.08
850.862	3203.19
851.046	3315.83
851.229	2914.43
851.413	2607.23
851.596	3068.03
851.78	2947.2
851.964	3053.69
852.147	2721.92
852.331	3635.32
852.514	3233.91
852.698	2601.09
852.881	2463.88
853.065	3096.7
853.248	2758.78
853.431	2850.94
853.615	2777.22
853.798	3481.72
853.982	2928.77
854.165	2932.86
854.348	2644.1
854.532	2683.01
854.715	2857.09
854.898	2648.19
855.081	2750.59
855.265	3455.09
855.448	3278.97
855.631	2508.93
855.814	2734.21
855.997	3051.64
856.181	2859.14
856.364	2787.46
856.547	2433.16
856.73	2959.49
856.913	3045.5
857.096	2601.09
857.279	2701.44
857.462	2730.11
857.645	3053.69
857.828	2732.16
858.011	2685.06
858.194	2809.98
858.377	3098.75
858.56	2590.85
858.743	2635.91
858.926	2660.48
859.109	3164.28
859.292	2523.27
859.475	2527.36
859.658	3096.7
859.841	2975.87
860.023	2504.84
860.206	2467.97
860.389	2836.61
860.572	3238.01
860.755	2701.44
860.937	2506.88
861.12	2822.27
861.303	2814.08
861.486	2703.49
861.668	2330.76
861.851	2910.33
862.034	2900.09
862.216	2703.49
862.399	2467.97
862.581	2859.14
862.764	3231.87
862.947	2674.82
863.129	2463.88
863.312	2656.39
863.494	3252.35
863.677	2928.77
863.859	2564.23
864.042	3111.04
864.224	3213.43
864.406	2629.76
864.589	2289.8
864.771	3025.02
864.954	2797.7
865.136	2539.65
865.318	2424.97
865.501	2969.73
865.683	2435.21
865.865	2578.56
866.048	2494.6
866.23	2789.5
866.412	2785.41
866.594	2441.35
866.777	2689.15
866.959	2873.47
867.141	2607.23
867.323	2746.5
867.505	2695.3
867.687	2797.7
867.869	2844.8
868.052	2429.06
868.234	2531.46
868.416	2750.59
868.598	2959.49
868.78	2553.99
868.962	2427.01
869.144	3020.92
869.326	2959.49
869.508	2457.73
869.69	2447.49
869.872	2619.52
870.054	3033.21
870.236	2332.81
870.417	2521.22
870.599	2775.17
870.781	3209.34
870.963	2840.7
871.145	2390.15
871.327	2482.31
871.508	3053.69
871.69	2640
871.872	2431.11
872.054	2900.09
872.235	2898.05
872.417	2650.24
872.599	2433.16
872.78	3203.19
872.962	2908.29
873.144	2293.9
873.325	2697.35
873.507	3090.56
873.689	3025.02
873.87	2429.06
874.052	2766.98
874.233	2748.54
874.415	3129.47
874.596	2586.76
874.778	2551.94
874.959	2846.85
875.141	3147.9
875.322	2642.05
875.503	2414.73
875.685	2936.96
875.866	2553.99
876.048	2496.64
876.229	2562.18
876.41	2783.36
876.592	2855.04
876.773	2562.18
876.954	2422.92
877.136	3139.71
877.317	2766.98
877.498	2400.39
877.679	2742.4
877.86	2887.81
878.042	2898.05
878.223	2541.7
878.404	2914.43
878.585	3211.39
878.766	3381.37
878.947	2883.71
879.128	2703.49
879.309	3129.47
879.49	3205.24
879.672	2781.31
879.853	2674.82
880.034	2726.02
880.215	2885.76
880.396	2779.26
880.576	2738.3
880.757	2771.07
880.938	3313.78
881.119	2572.42
881.3	2676.87
881.481	2848.9
881.662	3844.21
881.843	2701.44
882.023	2463.88
882.204	2984.06
882.385	2979.97
882.566	2766.98
882.747	2627.71
882.927	2961.53
883.108	2973.82
883.289	2730.11
883.469	2961.53
883.65	2975.87
883.831	3106.94
884.011	2936.96
884.192	2715.78
884.373	3258.49
884.553	3227.77
884.734	2877.57
884.914	3160.19
885.095	3827.82
885.275	3291.26
885.456	3129.47
885.636	2721.92
885.817	3065.98
885.997	2988.16
886.178	2752.64
886.358	2820.22
886.538	3049.6
886.719	4151.4
886.899	2879.61
887.08	2943.1
887.26	3412.09
887.44	2920.57
887.621	2805.89
887.801	3020.92
887.981	3848.3
888.161	3399.8
888.342	2881.66
888.522	3004.54
888.702	3512.44
888.882	3389.56
889.062	3041.4
889.242	2756.74
889.423	3524.72
889.603	3377.27
889.783	3104.89
889.963	2941.05
890.143	3471.48
890.323	3477.62
890.503	2924.67
890.683	3123.32
890.863	3197.05
891.043	3295.35
891.223	3055.74
891.403	3094.65
891.583	3250.3
891.763	3262.58
891.943	3111.04
892.122	2984.06
892.302	3162.23
892.482	3219.58
892.662	3137.66
892.842	3037.31
893.022	3385.46
893.201	3190.91
893.381	3207.29
893.561	2971.77
893.741	3565.68
893.92	3471.48
894.1	3180.67
894.28	3072.12
894.459	3569.78
894.639	3405.94
894.819	3022.97
894.998	3115.13
895.178	3332.22
895.357	3446.9
895.537	3080.32
895.716	2844.8
895.896	3272.82
896.075	3647.6
896.255	3061.88
896.434	2797.7
896.614	3618.93
896.793	3815.54
896.973	3317.88
897.152	3203.19
897.331	3379.32
897.511	3455.09
897.69	2898.05
897.87	3088.51
898.049	3426.42
898.228	3422.33
898.407	3223.67
898.587	3184.76
898.766	3201.15
898.945	3541.11
899.124	3362.94
899.304	3299.45
899.483	3463.29
899.662	3752.05
899.841	2979.97
900.02	2971.77
900.199	3559.54
900.378	3465.33
900.557	3061.88
900.737	2977.92
900.916	3369.08
901.095	3641.46
901.274	3321.98
901.453	2939.01
901.632	3111.04
901.811	3178.62
901.989	3176.57
902.168	2936.96
902.347	3438.71
902.526	3121.28
902.705	2979.97
902.884	3135.61
903.063	3688.56
903.242	3557.49
903.42	2965.63
903.599	3102.84
903.778	3551.35
903.957	3625.08
904.135	3201.15
904.314	3213.43
904.493	3414.13
904.672	3391.61
904.85	3047.55
905.029	3168.38
905.207	3520.63
905.386	3999.85
905.565	3004.54
905.743	3012.73
905.922	3125.37
906.1	3485.81
906.279	2910.33
906.457	3113.08
906.636	3127.42
906.814	3258.49
906.993	2975.87
907.171	2975.87
907.35	3487.86
907.528	3375.22
907.707	3270.78
907.885	3092.6
908.063	3661.94
908.242	3053.69
908.42	2936.96
908.598	2805.89
908.777	3293.3
908.955	3231.87
909.133	3037.31
909.311	2785.41
909.49	3086.46
909.668	3233.91
909.846	3029.12
910.024	2758.78
910.202	3369.08
910.38	3465.33
910.559	2771.07
910.737	2861.18
910.915	3336.31
911.093	3215.48
911.271	2957.44
911.449	3180.67
911.627	3215.48
911.805	3733.62
911.983	2879.61
912.161	2867.33
912.339	3131.51
912.517	3528.82
912.695	2994.3
912.872	2861.18
913.05	2791.55
913.228	3199.1
913.406	2820.22
913.584	2687.11
913.762	3215.48
913.939	2922.62
914.117	2771.07
914.295	2766.98
914.473	3272.82
914.65	3182.71
914.828	2719.87
915.006	2721.92
915.184	2834.56
915.361	3098.75
915.539	3000.44
915.716	3111.04
915.894	3137.66
916.072	3287.16
916.249	2930.81
916.427	2820.22
916.604	2865.28
916.782	3166.33
916.959	2766.98
917.137	2848.9
917.314	3061.88
917.492	3088.51
917.669	2906.24
917.847	2828.42
918.024	3115.13
918.201	2828.42
918.379	2824.32
918.556	2762.88
918.733	3285.11
918.911	3039.36
919.088	2875.52
919.265	2633.86
919.442	3043.45
919.62	2969.73
919.797	2781.31
919.974	2574.47
920.151	3047.55
920.328	2914.43
920.506	2701.44
920.683	2881.66
920.86	2685.06
921.037	2832.51
921.214	2670.72
921.391	2627.71
921.568	3051.64
921.745	2721.92
921.922	2713.73
922.099	2539.65
922.276	3201.15
922.453	2947.2
922.63	2582.66
922.807	2789.5
922.984	3037.31
923.161	2703.49
923.338	2674.82
923.514	2533.51
923.691	2842.75
923.868	2949.25
924.045	2472.07
924.222	2558.08
924.399	2967.68
924.575	3002.49
924.752	2644.1
924.929	2683.01
925.105	2881.66
925.282	2588.8
925.459	2553.99
925.635	2629.76
925.812	2674.82
925.989	2463.88
926.165	2570.37
926.342	2427.01
926.518	2445.45
926.695	2594.95
926.871	2490.5
927.048	2341
927.224	3014.78
927.401	2648.19
927.577	2588.8
927.754	2369.67
927.93	2996.35
928.107	2797.7
928.283	2332.81
928.459	2510.98
928.636	2805.89
928.812	2545.8
928.988	2322.57
929.165	2234.5
929.341	2488.45
929.517	2599.04
929.693	2562.18
929.87	2158.73
930.046	2570.37
930.222	2365.57
930.398	2207.88
930.574	2433.16
930.751	2482.31
930.927	2359.43
931.103	2211.98
931.279	2267.27
931.455	2138.25
931.631	2433.16
931.807	1986.7
931.983	2007.18
932.159	2109.58
932.335	2422.92
932.511	2300.04
932.687	2072.72
932.863	2498.69
933.039	2359.43
933.215	1994.89
933.391	1988.75
933.566	2318.47
933.742	2306.18
933.918	2146.44
934.094	1970.32
934.27	2193.55
934.445	2226.31
934.621	2168.97
934.797	1910.93
934.973	2273.42
935.148	2353.29
935.324	1755.28
935.5	1689.74
935.675	2295.94
935.851	2119.82
936.027	1882.25
936.202	1884.3
936.378	2064.52
936.553	1955.98
936.729	2236.55
936.904	1640.59
937.08	1685.65
937.255	1904.78
937.431	1710.22
937.606	1470.61
937.782	1730.7
937.957	1841.29
938.133	1669.27
938.308	1476.76
938.483	1792.14
938.659	1556.63
938.834	1480.85
939.009	1403.03
939.185	1663.12
939.36	1441.94
939.535	1034.39
939.71	1484.95
939.886	1853.58
940.061	1757.33
940.236	1505.43
940.411	1321.11
940.586	1609.87
940.761	1566.87
940.937	1339.54
941.112	1071.26
941.287	1622.16
941.462	1448.08
941.637	1153.18
941.812	1212.57
941.987	1550.48
942.162	1448.08
942.337	1319.06
942.512	1167.51
942.687	1665.17
942.862	1564.82
943.037	1122.46
943.212	936.09
943.386	1259.67
943.561	1480.85
943.736	1310.87
943.911	1366.17
944.086	1460.37
944.26	1423.51
944.435	1079.45
944.61	1226.9
944.785	1648.79
944.959	1720.46
945.134	1087.64
945.309	1056.92
945.483	1167.51
945.658	1595.54
945.833	778.4
946.007	895.13
946.182	1702.03
946.357	1200.28
946.531	962.72
946.706	1024.16
946.88	903.32
947.055	1345.69
947.229	1079.45
947.404	952.48
947.578	1407.13
947.752	1310.87
947.927	1005.72
948.101	841.89
948.276	1255.58
948.45	1357.97
948.624	1181.85
948.799	985.24
948.973	1357.97
949.147	1054.87
949.321	1124.51
949.496	1155.23
949.67	1523.86
949.844	1206.42
950.018	1095.83
950.193	1040.54
950.367	1800.34
950.541	1321.11
950.715	1153.18
950.889	1198.23
951.063	1161.37
951.237	1509.52
951.411	835.74
951.585	848.03
951.759	1439.89
951.933	1267.86
952.107	895.13
952.281	1155.23
952.455	1646.74
952.629	1538.2
952.803	985.24
952.977	981.15
953.151	1603.73
953.325	1429.65
953.499	1224.86
953.672	1011.87
953.846	1177.75
954.02	1235.1
954.194	983.2
954.368	1073.31
954.541	1392.79
954.715	1165.46
954.889	1183.9
955.062	968.86
955.236	1347.73
955.41	1278.1
955.583	1245.34
955.757	925.85
955.93	1251.48
956.104	1022.11
956.278	981.15
956.451	1095.83
956.625	1505.43
956.798	1714.32
956.972	1312.92
957.145	932
957.319	1169.56
957.492	1271.96
957.665	1140.89
957.839	923.8
958.012	1317.01
958.185	1142.94
958.359	1028.25
958.532	1194.14
958.705	1505.43
958.879	1390.74
959.052	1077.4
959.225	833.69
959.398	1183.9
959.572	1282.2
959.745	997.53
959.918	1149.08
960.091	1175.7
960.264	1325.21
960.438	878.75
960.611	944.28
960.784	1466.52
960.957	1120.41
961.13	1366.17
961.303	952.48
961.476	1284.25
961.649	1452.18
961.822	829.6
961.995	964.76
962.168	1411.22
962.341	1386.65
962.514	1026.2
962.686	1001.63
962.859	1259.67
963.032	1265.82
963.205	1040.54
963.378	921.76
963.551	1398.93
963.723	1276.06
963.896	1083.55
964.069	1087.64
964.242	1278.1
964.414	1398.93
964.587	1001.63
964.76	1165.46
964.932	1161.37
965.105	1284.25
965.278	1009.82
965.45	1013.92
965.623	1284.25
965.795	1331.35
965.968	999.58
966.14	960.67
966.313	1161.37
966.485	1271.96
966.658	905.37
966.83	964.76
967.003	1503.38
967.175	1355.93
967.348	997.53
967.52	1120.41
967.692	1538.2
967.865	1423.51
968.037	983.2
968.209	1278.1
968.382	1269.91
968.554	1456.28
968.726	1089.69
968.898	962.72
969.071	1362.07
969.243	1276.06
969.415	977.05
969.587	1042.59
969.759	1720.46
969.932	1519.76
970.104	958.62
970.276	753.82
970.448	1167.51
970.62	1073.31
970.792	1126.55
970.964	1091.74
971.136	1706.13
971.308	1345.69
971.48	940.19
971.652	876.7
971.824	1716.37
971.996	1124.51
972.168	1058.97
972.339	968.86
972.511	1521.81
972.683	1126.55
972.855	1171.61
973.027	925.85
973.199	1157.27
973.37	1321.11
973.542	1003.68
973.714	1091.74
973.886	1253.53
974.057	1374.36
974.229	811.17
974.401	876.7
974.572	1038.49
974.744	800.93
974.915	868.51
975.087	891.04
975.259	1519.76
975.43	1054.87
975.602	981.15
975.773	794.78
975.945	975
976.116	1290.39
976.288	843.93
976.459	1110.17
976.63	1132.7
976.802	1384.6
976.973	938.14
977.145	1087.64
977.316	1677.46
977.487	1581.2
977.659	1048.73
977.83	948.38
978.001	1532.05
978.172	1220.76
978.344	759.97
978.515	835.74
978.686	1007.77
978.857	1511.57
979.028	1054.87
979.2	837.79
979.371	1478.8
979.542	1054.87
979.713	1095.83
979.884	364.71
980.055	940.19
980.226	1046.68
980.397	817.31
980.568	751.78
980.739	1317.01
980.91	1095.83
981.081	934.04
981.252	817.31
981.423	1312.92
981.594	1300.63
981.765	864.41
981.936	952.48
982.106	1136.79
982.277	1366.17
982.448	858.27
982.619	1061.02
982.79	1015.96
982.96	1292.44
983.131	1015.96
983.302	626.85
983.472	927.9
983.643	1218.71
983.814	1030.3
983.984	850.08
984.155	1005.72
984.326	1233.05
984.496	989.34
984.667	936.09
984.837	1007.77
985.008	1349.78
985.178	1097.88
985.349	1013.92
985.519	1038.49
985.69	968.86
985.86	938.14
986.031	755.87
986.201	1171.61
986.371	1130.65
986.542	764.06
986.712	649.38
986.882	1157.27
987.053	1231
987.223	669.86
987.393	991.39
987.563	989.34
987.734	1237.14
987.904	1056.92
988.074	782.49
988.244	1155.23
988.414	864.41
988.585	719.01
988.755	837.79
988.925	1063.07
989.095	1407.13
989.265	729.25
989.435	895.13
989.605	1140.89
989.775	1050.78
989.945	1067.16
990.115	694.43
990.285	999.58
990.455	1040.54
990.625	852.13
990.795	637.09
990.965	1335.45
991.134	850.08
991.304	630.95
991.474	610.47
991.644	1110.17
991.814	1261.72
991.984	573.6
992.153	610.47
992.323	891.04
992.493	927.9
992.662	436.39
992.832	792.73
993.002	989.34
993.171	1097.88
993.341	567.46
993.511	866.46
993.68	825.5
993.85	1241.24
994.019	628.9
994.189	542.88
994.358	960.67
994.528	899.23
994.697	420
994.867	661.66
995.036	1161.37
995.206	825.5
995.375	653.47
995.544	936.09
995.714	1050.78
995.883	895.13
996.052	825.5
996.222	415.91
996.391	1437.84
996.56	964.76
996.73	495.78
996.899	508.07
997.068	1202.33
997.237	960.67
997.406	573.6
997.576	551.07
997.745	958.62
997.914	950.43
998.083	409.76
998.252	600.23
998.421	893.09
998.59	727.2
998.759	534.69
998.928	407.72
999.097	1239.19
999.266	1038.49
999.435	649.38
999.604	368.81
999.773	1360.02
999.942	706.72
1000.111	401.57
1000.28	383.14
1000.448	653.47
1000.617	528.55
1000.786	735.39
1000.955	444.58
1001.124	929.95
1001.292	1491.09
1001.461	542.88
1001.63	499.88
1001.798	1288.34
1001.967	1144.99
1002.136	456.87
1002.304	438.44
1002.473	977.05
1002.642	837.79
1002.81	632.99
1002.979	430.24
1003.147	1042.59
1003.316	1439.89
1003.484	624.8
1003.653	430.24
1003.821	1046.68
1003.99	805.02
1004.158	632.99
1004.327	565.41
1004.495	972.96
1004.663	616.61
1004.832	635.04
1005	286.89
1005.168	958.62
1005.337	884.89
1005.505	413.86
1005.673	596.13
1005.842	907.42
1006.01	919.71
1006.178	444.58
1006.346	463.01
1006.514	899.23
1006.683	956.57
1006.851	440.48
1007.019	280.74
1007.187	524.45
1007.355	360.61
1007.523	274.6
1007.691	303.27
1007.859	530.59
1008.027	1040.54
1008.195	415.91
1008.363	280.74
1008.531	905.37
1008.699	583.84
1008.867	245.93
1009.035	452.77
1009.203	1126.55
1009.37	759.97
1009.538	467.11
1009.706	870.56
1009.874	805.02
1010.042	587.94
1010.209	288.93
1010.377	346.28
1010.545	1022.11
1010.713	743.58
1010.88	338.09
1011.048	399.52
1011.216	698.53
1011.383	1056.92
1011.551	399.52
1011.718	336.04
1011.886	864.41
1012.054	725.15
1012.221	295.08
1012.389	264.36
1012.556	733.34
1012.724	1142.94
1012.891	493.73
1013.058	254.12
1013.226	805.02
1013.393	911.52
1013.561	172.2
1013.728	200.87
1013.895	817.31
1014.063	805.02
1014.23	219.3
1014.397	303.27
1014.565	845.98
1014.732	620.71
1014.899	327.85
1015.066	278.69
1015.233	735.39
1015.401	860.32
1015.568	377
1015.735	487.59
1015.902	712.86
1016.069	792.73
1016.236	327.85
1016.403	295.08
1016.57	446.63
1016.737	858.27
1016.904	379.04
1017.071	229.54
1017.238	524.45
1017.405	960.67
1017.572	327.85
1017.739	475.3
1017.906	845.98
1018.073	850.08
1018.24	180.39
1018.407	327.85
1018.573	987.29
1018.74	624.8
1018.907	309.41
1019.074	129.19
1019.241	727.2
1019.407	698.53
1019.574	215.21
1019.741	102.57
1019.907	651.42
1020.074	780.45
1020.241	65.71
1020.407	231.59
1020.574	764.06
1020.74	727.2
1020.907	297.13
1021.073	237.74
1021.24	1085.59
1021.406	972.96
1021.573	233.64
1021.739	182.44
1021.906	907.42
1022.072	655.52
1022.239	268.45
1022.405	256.17
1022.571	639.14
1022.738	377
1022.904	121
1023.07	182.44
1023.237	534.69
1023.403	862.37
1023.569	213.16
1023.735	264.36
1023.902	632.99
1024.068	686.24
1024.234	178.34
1024.4	254.12
1024.566	587.94
1024.732	686.24
1024.898	147.62
1025.065	-14.17
1025.231	792.73
1025.397	499.88
1025.563	172.2
1025.729	92.33
1025.895	188.58
1026.061	329.89
1026.227	41.13
1026.392	252.07
1026.558	835.74
1026.724	661.66
1026.89	231.59
1027.056	282.79
1027.222	688.29
1027.388	434.34
1027.553	190.63
1027.719	104.62
1027.885	968.86
1028.051	704.67
1028.216	14.51
1028.382	188.58
1028.548	663.71
1028.713	493.73
1028.879	53.42
1029.045	225.45
1029.21	837.79
1029.376	733.34
1029.541	215.21
1029.707	170.15
1029.873	661.66
1030.038	825.5
1030.204	141.48
1030.369	264.36
1030.534	778.4
1030.7	481.44
1030.865	268.45
1031.031	59.56
1031.196	698.53
1031.361	553.12
1031.527	112.81
1031.692	112.81
1031.857	215.21
1032.023	702.62
1032.188	137.38
1032.353	196.78
1032.518	915.61
1032.684	551.07
1032.849	8.36
1033.014	96.43
1033.179	710.82
1033.344	741.54
1033.509	247.97
1033.674	143.53
1033.839	784.54
1034.004	702.62
1034.17	137.38
1034.335	75.95
1034.5	456.87
1034.664	317.61
1034.829	71.85
1034.994	182.44
1035.159	577.7
1035.324	518.31
1035.489	98.47
1035.654	118.95
1035.819	866.46
1035.984	581.79
1036.148	170.15
1036.313	131.24
1036.478	714.91
1036.643	483.49
1036.807	8.36
1036.972	-1.88
1037.137	850.08
1037.301	516.26
1037.466	-63.32
1037.631	145.58
1037.795	743.58
1037.96	557.22
1038.124	321.7
1038.289	-55.12
1038.454	626.85
1038.618	630.95
1038.783	96.43
1038.947	153.77
1039.111	411.81
1039.276	424.1
1039.44	-42.84
1039.605	563.36
1039.769	428.2
1039.933	506.02
1040.098	123.05
1040.262	362.66
1040.426	692.38
1040.591	725.15
1040.755	92.33
1040.919	145.58
1041.083	528.55
1041.248	458.92
1041.412	-91.99
1041.576	-8.02
1041.74	422.05
1041.904	628.9
1042.068	30.89
1042.232	151.72
1042.397	647.33
1042.561	506.02
1042.725	-173.91
1042.889	321.7
1043.053	608.42
1043.217	610.47
1043.381	202.92
1043.544	-5.97
1043.708	735.39
1043.872	141.48
1044.036	-186.19
1044.2	-116.56
1044.364	743.58
1044.528	770.21
1044.691	3258.49
1044.855	-71.51
1045.019	714.91
1045.183	553.12
1045.346	88.23
1045.51	-26.45
1045.674	520.35
1045.837	579.75
1046.001	8.36
1046.165	-12.12
1046.328	950.43
1046.492	495.78
1046.655	256.17
1046.819	129.19
1046.983	297.13
1047.146	598.18
1047.31	114.86
1047.473	-186.19
1047.636	463.01
1047.8	198.82
1047.963	88.23
1048.127	28.84
1048.29	235.69
