Data from Ink_Intensity_USB4F045381__129__00129.txt Node

Date: Mon Jul 17 11:19:21 EDT 2023
User: mmckonesweet
Spectrometer: USB4F04538
Trigger mode: 4
Integration Time (sec): 9.000000E-1
Scans to average: 1
Electric dark correction enabled: true
Nonlinearity correction enabled: false
Boxcar width: 0
XAxis mode: Wavelengths
Number of Pixels in Spectrum: 3648
>>>>>Begin Spectral Data<<<<<
345.52	-972.27
345.736	-972.27
345.952	-972.27
346.168	-978.42
346.384	-1021.42
346.6	-146.94
346.816	-265.72
347.032	-216.57
347.248	266.75
347.464	-212.48
347.68	-151.04
347.896	127.49
348.112	432.63
348.328	-36.35
348.544	-120.32
348.76	4.61
348.975	317.95
349.191	-216.57
349.407	-192
349.623	74.24
349.839	-7.68
350.055	-116.22
350.27	82.43
350.486	197.12
350.702	365.05
350.918	320
351.133	-198.14
351.349	207.36
351.565	262.65
351.781	-241.15
351.996	14.85
352.212	379.39
352.428	-87.55
352.644	-261.63
352.859	-204.28
353.075	248.32
353.291	111.1
353.506	-93.69
353.722	-263.68
353.938	-56.83
354.153	455.16
354.369	219.64
354.584	-232.96
354.8	274.94
355.016	-196.09
355.231	-265.72
355.447	-77.31
355.662	64
355.878	893.43
356.093	-286.2
356.309	-3.58
356.524	-286.2
356.74	283.13
356.955	-220.67
357.171	66.05
357.386	201.21
357.602	-216.57
357.817	-95.74
358.033	-167.42
358.248	365.05
358.464	104.96
358.679	-126.46
358.895	-224.76
359.11	49.66
359.325	303.61
359.541	-5.63
359.756	16.9
359.972	-222.72
360.187	168.45
360.402	-118.27
360.618	-81.41
360.833	952.82
361.048	119.29
361.264	-214.52
361.479	-15.87
361.694	25.09
361.909	199.16
362.125	-210.43
362.34	-140.8
362.555	205.31
362.77	96.77
362.986	-263.68
363.201	-159.23
363.416	152.06
363.631	12.8
363.847	-153.09
364.062	-126.46
364.277	162.3
364.492	107.01
364.707	-103.93
364.922	-343.55
365.138	258.56
365.353	381.43
365.568	-185.85
365.783	-173.57
365.998	59.9
366.213	541.18
366.428	-196.09
366.643	47.62
366.858	317.95
367.073	238.08
367.288	-99.84
367.503	-278.01
367.718	82.43
367.933	338.43
368.148	-216.57
368.363	-83.45
368.578	-44.54
368.793	340.47
369.008	-183.81
369.223	-216.57
369.438	240.12
369.653	381.43
369.868	-175.61
370.083	-183.81
370.298	141.82
370.513	373.24
370.728	61.95
370.943	-134.65
371.157	-128.51
371.372	598.52
371.587	-192
371.802	-282.11
372.017	104.96
372.232	469.5
372.446	-58.88
372.661	-142.85
372.876	223.74
373.091	154.11
373.306	-159.23
373.52	-165.37
373.735	-173.57
373.95	487.93
374.165	-97.79
374.379	-136.7
374.594	-85.5
374.809	199.16
375.023	29.18
375.238	-204.28
375.453	242.17
375.667	-323.07
375.882	-110.08
376.097	-239.1
376.311	23.04
376.526	55.81
376.741	-218.62
376.955	70.14
377.17	586.23
377.384	530.94
377.599	-56.83
377.813	-235
378.028	666.1
378.242	254.46
378.457	-46.59
378.672	-185.85
378.886	98.81
379.101	-22.02
379.315	-335.35
379.53	-185.85
379.744	174.59
379.958	258.56
380.173	-171.52
380.387	-159.23
380.602	293.37
380.816	-46.59
381.031	-200.19
381.245	-81.41
381.459	246.27
381.674	2752.98
381.888	-136.7
382.103	41.47
382.317	-136.7
382.531	416.25
382.746	-116.22
382.96	-187.9
383.174	-30.21
383.388	408.06
383.603	45.57
383.817	-212.48
384.031	145.92
384.246	598.52
384.46	57.86
384.674	291.32
384.888	59.9
385.103	135.68
385.317	-175.61
385.531	-83.45
385.745	336.38
385.959	285.18
386.174	-161.28
386.388	-175.61
386.602	78.33
386.816	-110.08
387.03	-93.69
387.244	-46.59
387.458	82.43
387.672	369.15
387.887	-230.91
388.101	-273.92
388.315	418.3
388.529	143.87
388.743	-99.84
388.957	-247.29
389.171	365.05
389.385	-138.75
389.599	-118.27
389.813	127.49
390.027	250.36
390.241	668.15
390.455	-91.65
390.669	-77.31
390.883	-3.58
391.097	434.68
391.311	119.29
391.525	-153.09
391.738	193.02
391.952	135.68
392.166	23.04
392.38	-163.33
392.594	244.22
392.808	324.09
393.022	-58.88
393.236	-169.47
393.449	274.94
393.663	268.8
393.877	-222.72
394.091	-62.98
394.305	4.61
394.518	-126.46
394.732	-265.72
394.946	-194.05
395.16	410.11
395.373	49.66
395.587	-261.63
395.801	-151.04
396.015	256.51
396.228	225.79
396.442	-271.87
396.656	-218.62
396.869	389.63
397.083	461.3
397.297	23.04
397.51	-114.17
397.724	455.16
397.938	246.27
398.151	-257.53
398.365	-255.48
398.578	229.88
398.792	348.67
399.005	-114.17
399.219	-112.13
399.433	186.88
399.646	201.21
399.86	80.38
400.073	-26.11
400.287	217.6
400.5	-5.63
400.714	-60.93
400.927	-85.5
401.141	236.03
401.354	942.58
401.567	131.58
401.781	-216.57
401.994	356.86
402.208	643.57
402.421	-77.31
402.635	-65.02
402.848	78.33
403.061	328.19
403.275	-9.73
403.488	-183.81
403.701	543.22
403.915	336.38
404.128	8.7
404.341	-134.65
404.555	154.11
404.768	29.18
404.981	-32.26
405.195	-175.61
405.408	549.37
405.621	291.32
405.834	37.38
406.048	-194.05
406.261	369.15
406.474	471.54
406.687	-204.28
406.9	-15.87
407.114	92.67
407.327	274.94
407.54	-341.5
407.753	-263.68
407.966	-52.74
408.179	311.8
408.392	-177.66
408.605	-310.78
408.819	205.31
409.032	225.79
409.245	-118.27
409.458	70.14
409.671	238.08
409.884	313.85
410.097	-265.72
410.31	-5.63
410.523	199.16
410.736	98.81
410.949	-48.64
411.162	-114.17
411.375	365.05
411.588	367.1
411.801	45.57
412.014	-220.67
412.227	90.62
412.44	-46.59
412.653	-151.04
412.865	55.81
413.078	254.46
413.291	184.83
413.504	-110.08
413.717	-208.38
413.93	199.16
414.143	-126.46
414.356	-114.17
414.568	-294.4
414.781	270.84
414.994	176.64
415.207	-60.93
415.42	-56.83
415.632	317.95
415.845	522.74
416.058	-251.39
416.271	-263.68
416.483	92.67
416.696	549.37
416.909	-122.37
417.121	-151.04
417.334	256.51
417.547	557.56
417.759	-132.61
417.972	-165.37
418.185	4.61
418.397	291.32
418.61	-144.89
418.823	-75.26
419.035	418.3
419.248	115.2
419.46	-65.02
419.673	-56.83
419.885	186.88
420.098	12.8
420.311	-148.99
420.523	-308.73
420.736	307.71
420.948	-22.02
421.161	-52.74
421.373	-374.27
421.586	139.77
421.798	-36.35
422.01	-253.44
422.223	-69.12
422.435	-11.78
422.648	258.56
422.86	-140.8
423.073	-161.28
423.285	387.58
423.497	-226.81
423.71	-214.52
423.922	-228.86
424.134	111.1
424.347	420.35
424.559	45.57
424.771	174.59
424.984	-62.98
425.196	205.31
425.408	-298.49
425.621	-249.34
425.833	360.95
426.045	313.85
426.257	-196.09
426.47	-187.9
426.682	188.93
426.894	291.32
427.106	-114.17
427.318	-32.26
427.531	-67.07
427.743	229.88
427.955	-118.27
428.167	330.23
428.379	283.13
428.591	47.62
428.804	-105.98
429.016	-167.42
429.228	33.28
429.44	184.83
429.652	74.24
429.864	-224.76
430.076	78.33
430.288	66.05
430.5	-81.41
430.712	20.99
430.924	369.15
431.136	264.7
431.348	-355.83
431.56	-155.13
431.772	76.29
431.984	57.86
432.196	-210.43
432.408	-69.12
432.62	-42.5
432.832	250.36
433.044	80.38
433.256	-38.4
433.468	225.79
433.679	-206.33
433.891	-271.87
434.103	14.85
434.315	360.95
434.527	268.8
434.739	-77.31
434.95	-130.56
435.162	352.76
435.374	-17.92
435.586	-50.69
435.798	-126.46
436.009	-146.94
436.221	78.33
436.433	-167.42
436.645	-110.08
436.856	-99.84
437.068	367.1
437.28	-151.04
437.491	100.86
437.703	289.28
437.915	217.6
438.126	-183.81
438.338	104.96
438.55	61.95
438.761	197.12
438.973	-126.46
439.184	-138.75
439.396	145.92
439.608	274.94
439.819	-163.33
440.031	-110.08
440.242	221.69
440.454	307.71
440.665	-103.93
440.877	-81.41
441.088	279.04
441.3	61.95
441.511	-273.92
441.723	-181.76
441.934	131.58
442.146	31.23
442.357	-1.54
442.569	152.06
442.78	102.91
442.991	373.24
443.203	145.92
443.414	-253.44
443.626	418.3
443.837	-36.35
444.048	-208.38
444.26	-306.68
444.471	43.52
444.682	342.52
444.894	-339.45
445.105	-247.29
445.316	352.76
445.528	260.6
445.739	-52.74
445.95	-91.65
446.161	213.5
446.373	385.53
446.584	-44.54
446.795	-103.93
447.006	264.7
447.217	395.77
447.429	-292.35
447.64	-155.13
447.851	369.15
448.062	160.25
448.273	-316.92
448.484	-144.89
448.695	213.5
448.907	-11.78
449.118	-52.74
449.329	14.85
449.54	-15.87
449.751	-69.12
449.962	-196.09
450.173	-75.26
450.384	332.28
450.595	369.15
450.806	-181.76
451.017	-146.94
451.228	504.31
451.439	406.01
451.65	-110.08
451.861	-310.78
452.072	-153.09
452.283	72.19
452.494	-5.63
452.705	-194.05
452.915	406.01
453.126	137.73
453.337	-101.89
453.548	-230.91
453.759	256.51
453.97	580.09
454.181	111.1
454.391	-134.65
454.602	199.16
454.813	276.99
455.024	-146.94
455.235	-216.57
455.445	164.35
455.656	209.4
455.867	18.94
456.078	-177.66
456.288	-17.92
456.499	201.21
456.71	-210.43
456.921	94.72
457.131	184.83
457.342	176.64
457.553	-101.89
457.763	-175.61
457.974	299.52
458.184	262.65
458.395	-173.57
458.606	-286.2
458.816	395.77
459.027	492.02
459.237	-120.32
459.448	-321.02
459.659	379.39
459.869	729.59
460.08	-267.77
460.29	23.04
460.501	516.6
460.711	23.04
460.922	-208.38
461.132	-206.33
461.343	778.74
461.553	-228.86
461.764	-185.85
461.974	-169.47
462.184	303.61
462.395	119.29
462.605	-60.93
462.816	-196.09
463.026	176.64
463.236	348.67
463.447	-179.71
463.657	-148.99
463.867	416.25
464.078	-3.58
464.288	-151.04
464.498	-159.23
464.709	78.33
464.919	84.48
465.129	-89.6
465.339	-222.72
465.55	248.32
465.76	229.88
465.97	-179.71
466.18	-189.95
466.391	217.6
466.601	313.85
466.811	41.47
467.021	-226.81
467.231	205.31
467.441	393.72
467.651	-89.6
467.862	-409.08
468.072	121.34
468.282	430.59
468.492	-142.85
468.702	-122.37
468.912	86.53
469.122	676.34
469.332	164.35
469.542	-167.42
469.752	293.37
469.962	174.59
470.172	-148.99
470.382	-189.95
470.592	356.86
470.802	317.95
471.012	-5.63
471.222	-91.65
471.432	317.95
471.642	307.71
471.852	-30.21
472.062	-212.48
472.272	78.33
472.482	-97.79
472.691	-192
472.901	-214.52
473.111	301.56
473.321	612.85
473.531	-165.37
473.741	-105.98
473.95	203.26
474.16	295.42
474.37	-67.07
474.58	-161.28
474.79	504.31
474.999	303.61
475.209	-228.86
475.419	-144.89
475.628	-11.78
475.838	373.24
476.048	-122.37
476.258	-163.33
476.467	455.16
476.677	55.81
476.886	86.53
477.096	2.56
477.306	68.09
477.515	467.45
477.725	-9.73
477.935	-3.58
478.144	489.98
478.354	23.04
478.563	-83.45
478.773	-189.95
478.982	350.71
479.192	467.45
479.401	-138.75
479.611	-290.3
479.82	-81.41
480.03	162.3
480.239	-118.27
480.449	-235
480.658	555.51
480.868	-101.89
481.077	25.09
481.287	-5.63
481.496	213.5
481.705	573.94
481.915	86.53
482.124	102.91
482.333	264.7
482.543	504.31
482.752	-11.78
482.961	-202.24
483.171	430.59
483.38	129.53
483.589	-46.59
483.799	-198.14
484.008	137.73
484.217	399.87
484.426	-11.78
484.636	-214.52
484.845	221.69
485.054	-22.02
485.263	164.35
485.472	-36.35
485.682	604.66
485.891	207.36
486.1	-183.81
486.309	-130.56
486.518	324.09
486.727	578.04
486.936	-122.37
487.146	4.61
487.355	512.5
487.564	0.51
487.773	-77.31
487.982	-52.74
488.191	64
488.4	188.93
488.609	-28.16
488.818	-28.16
489.027	752.12
489.236	580.09
489.445	2.56
489.654	-77.31
489.863	549.37
490.072	209.4
490.281	268.8
490.49	-65.02
490.698	586.23
490.907	528.89
491.116	-26.11
491.325	-179.71
491.534	539.13
491.743	358.91
491.952	39.42
492.16	-56.83
492.369	295.42
492.578	508.41
492.787	74.24
492.996	-118.27
493.204	55.81
493.413	559.61
493.622	-183.81
493.831	-97.79
494.039	565.75
494.248	10.75
494.457	-85.5
494.665	-183.81
494.874	367.1
495.083	721.4
495.291	-65.02
495.5	-58.88
495.709	369.15
495.917	305.66
496.126	72.19
496.335	-26.11
496.543	129.53
496.752	360.95
496.96	246.27
497.169	-138.75
497.377	289.28
497.586	547.32
497.794	152.06
498.003	-224.76
498.211	264.7
498.42	643.57
498.628	61.95
498.837	-99.84
499.045	369.15
499.254	422.39
499.462	29.18
499.671	-54.78
499.879	729.59
500.087	545.27
500.296	-46.59
500.504	41.47
500.713	295.42
500.921	772.6
501.129	-67.07
501.338	64
501.546	381.43
501.754	401.91
501.962	-65.02
502.171	-144.89
502.379	502.26
502.587	639.48
502.795	98.81
503.004	33.28
503.212	324.09
503.42	573.94
503.628	-28.16
503.837	178.69
504.045	575.99
504.253	709.11
504.461	55.81
504.669	-183.81
504.877	463.35
505.085	711.16
505.294	-97.79
505.502	236.03
505.71	389.63
505.918	619
506.126	10.75
506.334	4.61
506.542	256.51
506.75	449.02
506.958	205.31
507.166	109.05
507.374	193.02
507.582	709.11
507.79	297.47
507.998	57.86
508.206	418.3
508.414	500.22
508.622	55.81
508.83	119.29
509.037	735.73
509.245	287.23
509.453	-42.5
509.661	33.28
509.869	498.17
510.077	367.1
510.285	176.64
510.492	-132.61
510.7	967.15
510.908	266.75
511.116	57.86
511.324	135.68
511.531	279.04
511.739	416.25
511.947	209.4
512.155	371.19
512.362	492.02
512.57	94.72
512.778	90.62
512.985	4.61
513.193	641.53
513.401	758.26
513.608	119.29
513.816	100.86
514.024	471.54
514.231	700.92
514.439	113.15
514.646	164.35
514.854	619
515.061	623.09
515.269	160.25
515.477	49.66
515.684	205.31
515.892	578.04
516.099	-116.22
516.307	10.75
516.514	539.13
516.722	793.08
516.929	156.16
517.136	117.25
517.344	788.98
517.551	498.17
517.759	113.15
517.966	240.12
518.173	289.28
518.381	451.07
518.588	215.55
518.796	39.42
519.003	682.49
519.21	510.46
519.418	127.49
519.625	449.02
519.832	371.19
520.039	549.37
520.247	-13.82
520.454	107.01
520.661	688.63
520.868	627.19
521.076	188.93
521.283	244.22
521.49	1063.41
521.697	670.2
521.904	72.19
522.112	307.71
522.319	684.53
522.526	717.3
522.733	51.71
522.94	186.88
523.147	444.92
523.354	741.88
523.561	164.35
523.768	346.62
523.975	778.74
524.183	524.79
524.39	283.13
524.597	59.9
524.804	434.68
525.011	250.36
525.218	223.74
525.425	197.12
525.632	795.12
525.838	424.44
526.045	117.25
526.252	190.97
526.459	1630.7
526.666	1333.74
526.873	147.97
527.08	203.26
527.287	883.19
527.494	670.2
527.701	170.49
527.907	188.93
528.114	721.4
528.321	487.93
528.528	334.33
528.735	225.79
528.941	516.6
529.148	344.57
529.355	459.26
529.562	246.27
529.768	852.47
529.975	541.18
530.182	332.28
530.388	215.55
530.595	842.23
530.802	348.67
531.008	451.07
531.215	330.23
531.422	954.87
531.628	1391.08
531.835	389.63
532.042	424.44
532.248	571.9
532.455	647.67
532.661	369.15
532.868	317.95
533.074	819.7
533.281	848.37
533.487	340.47
533.694	289.28
533.9	461.3
534.107	877.04
534.313	285.18
534.52	283.13
534.726	823.8
534.933	1049.07
535.139	201.21
535.345	240.12
535.552	725.49
535.758	680.44
535.965	356.86
536.171	342.52
536.377	860.66
536.584	1028.59
536.79	373.24
536.996	453.11
537.203	743.92
537.409	829.94
537.615	444.92
537.821	655.86
538.028	932.34
538.234	803.32
538.44	389.63
538.646	459.26
538.853	819.7
539.059	610.81
539.265	793.08
539.471	184.83
539.677	858.61
539.883	725.49
540.09	365.05
540.296	858.61
540.502	647.67
540.708	569.85
540.914	619
541.12	432.63
541.326	805.36
541.532	582.14
541.738	600.57
541.944	526.84
542.15	977.39
542.356	709.11
542.562	436.73
542.768	541.18
542.974	1364.46
543.18	1202.67
543.386	449.02
543.592	352.76
543.798	1130.99
544.004	1087.98
544.21	516.6
544.415	537.08
544.621	827.89
544.827	1053.17
545.033	481.78
545.239	825.84
545.445	602.61
545.651	981.49
545.856	485.88
546.062	524.79
546.268	801.27
546.474	782.84
546.679	545.27
546.885	682.49
547.091	698.87
547.297	1380.84
547.502	639.48
547.708	418.3
547.914	700.92
548.119	1047.02
548.325	516.6
548.531	422.39
548.736	1257.96
548.942	688.63
549.147	549.37
549.353	907.76
549.559	1208.81
549.764	930.29
549.97	694.77
550.175	737.78
550.381	1085.94
550.586	834.04
550.792	725.49
550.997	619
551.203	1026.54
551.408	1096.18
551.614	635.38
551.819	612.85
552.025	1395.18
552.23	1337.84
552.435	496.12
552.641	907.76
552.846	776.69
553.052	1266.16
553.257	797.17
553.462	655.86
553.668	815.6
553.873	1266.16
554.078	688.63
554.283	657.91
554.489	1061.36
554.694	1026.54
554.899	612.85
555.105	817.65
555.31	1092.08
555.515	1278.44
555.72	864.75
555.925	676.34
556.131	1288.68
556.336	913.91
556.541	731.64
556.746	643.57
556.951	1364.46
557.156	1462.76
557.361	877.04
557.567	848.37
557.772	1544.68
557.977	1200.62
558.182	803.32
558.387	791.03
558.592	903.67
558.797	1380.84
559.002	905.71
559.207	936.43
559.412	1061.36
559.617	1516.01
559.822	735.73
560.027	791.03
560.232	1249.77
560.437	1364.46
560.642	688.63
560.847	782.84
561.051	1204.72
561.256	1118.7
561.461	887.28
561.666	711.16
561.871	1110.51
562.076	1407.47
562.281	872.95
562.485	827.89
562.69	1505.77
562.895	1300.97
563.1	838.13
563.305	825.84
563.509	1499.63
563.714	1790.44
563.919	889.33
564.123	805.36
564.328	1126.89
564.533	1602.02
564.737	973.3
564.942	881.14
565.147	1636.84
565.351	1700.33
565.556	897.52
565.761	1055.22
565.965	1270.25
566.17	1118.7
566.374	922.1
566.579	850.42
566.784	1415.66
566.988	1186.29
567.193	883.19
567.397	924.15
567.602	936.43
567.806	1176.05
568.011	1036.78
568.215	1114.61
568.42	1292.78
568.624	1231.34
568.828	950.77
569.033	1217.01
569.237	1456.62
569.442	1464.81
569.646	807.41
569.85	1044.98
570.055	1200.62
570.259	1434.09
570.463	1276.4
570.668	1139.18
570.872	1339.88
571.076	1389.03
571.281	1042.93
571.485	1264.11
571.689	1489.39
571.893	1499.63
572.098	1223.15
572.302	1100.27
572.506	1556.97
572.71	1354.22
572.914	1126.89
573.119	1106.42
573.323	1802.72
573.527	1815.01
573.731	1161.71
573.935	1163.76
574.139	1528.3
574.343	1343.98
574.547	1210.86
574.751	1169.9
574.955	1833.44
575.159	1837.54
575.364	1133.04
575.568	1167.85
575.772	1462.76
575.976	1825.25
576.18	1149.42
576.383	922.1
576.587	1690.09
576.791	1614.31
576.995	946.67
577.199	995.82
577.403	1696.23
577.607	1772
577.811	1171.95
578.015	1284.59
578.219	1597.93
578.422	1724.9
578.626	1298.92
578.83	1589.74
579.034	1860.07
579.238	1532.39
579.442	1243.63
579.645	1718.76
579.849	1466.86
580.053	1632.74
580.257	1382.89
580.46	1343.98
580.664	1806.82
580.868	1675.75
581.071	1468.91
581.275	1462.76
581.479	1315.31
581.682	1724.9
581.886	1401.32
582.09	1460.71
582.293	1729
582.497	1800.68
582.7	1489.39
582.904	1227.25
583.107	1614.31
583.311	1659.37
583.515	1450.47
583.718	1442.28
583.922	1866.21
584.125	2058.72
584.329	1356.27
584.532	1579.5
584.735	2017.76
584.939	1962.47
585.142	1307.12
585.346	1253.87
585.549	1896.93
585.753	1638.89
585.956	1520.1
586.159	1577.45
586.363	2208.22
586.566	1808.87
586.769	1331.69
586.973	1464.81
587.176	1995.23
587.379	2011.62
587.582	1864.16
587.786	1694.18
587.989	1726.95
588.192	2419.16
588.395	1491.43
588.599	1774.05
588.802	2038.24
589.005	1888.74
589.208	1661.41
589.411	1597.93
589.615	2044.38
589.818	2339.29
590.021	1876.45
590.224	1765.86
590.427	2128.35
590.63	2052.58
590.833	1470.95
591.036	1569.26
591.239	1786.34
591.442	1804.77
591.645	1849.83
591.848	1706.47
592.051	1968.61
592.254	2284
592.457	1716.71
592.66	1800.68
592.863	1860.07
593.066	1970.66
593.269	1573.35
593.472	1735.14
593.675	1679.85
593.878	2161.12
594.081	1679.85
594.284	1659.37
594.486	2159.07
594.689	2028
594.892	1905.12
595.095	1798.63
595.298	2261.47
595.5	1884.64
595.703	1886.69
595.906	1937.89
596.109	2335.2
596.311	2263.52
596.514	1436.14
596.717	1866.21
596.92	2501.08
597.122	2255.33
597.325	1616.36
597.528	1784.29
597.73	2462.17
597.933	2034.14
598.136	1864.16
598.338	1688.04
598.541	2222.56
598.743	2394.59
598.946	1825.25
599.148	1905.12
599.351	2474.46
599.554	2433.5
599.756	2050.53
599.959	1898.98
600.161	2509.27
600.363	2855.38
600.566	2277.85
600.768	1882.6
600.971	2576.86
601.173	2404.83
601.376	1853.92
601.578	2001.38
601.78	2519.51
601.983	2767.32
602.185	1819.11
602.388	2236.89
602.59	2458.07
602.792	2200.03
602.995	2236.89
603.197	1931.75
603.399	2570.71
603.601	2359.77
603.804	2087.39
604.006	1948.13
604.208	2300.38
604.41	1845.73
604.613	2226.65
604.815	2068.96
605.017	2922.96
605.219	2103.78
605.421	2417.12
605.623	2003.43
605.826	2636.25
606.028	2763.22
606.23	2030.05
606.432	2077.15
606.634	2863.57
606.836	2714.07
607.038	1989.09
607.24	2273.76
607.442	2470.36
607.644	2421.21
607.846	2226.65
608.048	2083.3
608.25	2793.94
608.452	2212.32
608.654	2224.61
608.856	1927.65
609.058	2413.02
609.26	2626.01
609.462	2417.12
609.664	2392.54
609.866	2933.2
610.067	2669.02
610.269	2392.54
610.471	2267.61
610.673	2472.41
610.875	2742.74
611.077	2028
611.278	2361.82
611.48	2570.71
611.682	3187.15
611.884	2347.48
612.085	2441.69
612.287	2298.33
612.489	2646.49
612.69	2095.58
612.892	2318.81
613.094	2892.24
613.295	2806.23
613.497	2279.9
613.699	2316.76
613.9	2951.63
614.102	2920.92
614.304	2597.34
614.505	2167.26
614.707	2591.19
614.908	2693.59
615.11	2183.65
615.311	2494.94
615.513	2931.16
615.714	2927.06
615.916	2322.91
616.117	2335.2
616.319	2626.01
616.52	3021.27
616.722	2429.4
616.923	2421.21
617.124	2970.07
617.326	2869.72
617.527	2562.52
617.729	2613.72
617.93	2886.1
618.131	2929.11
618.333	2535.9
618.534	2621.91
618.735	2513.37
618.937	3189.2
619.138	2376.16
619.339	2421.21
619.54	2978.26
619.742	2658.78
619.943	2722.26
620.144	2474.46
620.345	2879.96
620.546	3088.85
620.748	2519.51
620.949	2521.56
621.15	2877.91
621.351	2947.54
621.552	2470.36
621.753	2378.2
621.954	2513.37
622.155	3389.9
622.356	2470.36
622.558	2718.17
622.759	2877.91
622.96	3293.65
623.161	2691.54
623.362	2574.81
623.563	2961.87
623.764	3002.83
623.965	2716.12
624.166	2943.44
624.366	2920.92
624.567	3232.21
624.768	2404.83
624.969	2603.48
625.17	2855.38
625.371	3078.61
625.572	2771.41
625.773	2548.19
625.973	3176.91
626.174	3017.17
626.375	2767.32
626.576	2816.47
626.777	3150.29
626.977	3576.27
627.178	2632.15
627.379	2949.59
627.58	3008.98
627.78	3166.67
627.981	2937.3
628.182	2927.06
628.382	3396.04
628.583	2773.46
628.784	2683.35
628.984	3082.7
629.185	3228.11
629.386	3307.98
629.586	2769.37
629.787	2793.94
629.987	3269.07
630.188	3281.36
630.388	2972.11
630.589	2945.49
630.79	3707.34
630.99	3170.77
631.191	2974.16
631.391	2939.35
631.591	3455.44
631.792	3533.26
631.992	3054.03
632.193	2935.25
632.393	3568.07
632.594	3215.82
632.794	2953.68
632.994	3193.3
633.195	3387.85
633.395	3240.4
633.595	2900.44
633.796	3172.82
633.996	3033.55
634.196	3633.61
634.397	2879.96
634.597	3242.45
634.797	3074.51
634.997	3781.06
635.198	3236.3
635.398	2970.07
635.598	3533.26
635.798	3639.75
635.998	3578.31
636.199	3086.8
636.399	3240.4
636.599	3023.31
636.799	3051.99
636.999	3367.37
637.199	3606.98
637.399	3609.03
637.599	3088.85
637.799	3301.84
637.999	3375.56
638.199	3727.82
638.399	2990.55
638.599	3187.15
638.799	3545.55
638.999	3918.28
639.199	3492.3
639.399	3336.65
639.599	3848.65
639.799	3224.01
639.999	3240.4
640.199	3150.29
640.399	3555.79
640.599	3670.47
640.799	3324.37
640.998	3381.71
641.198	3809.73
641.398	3670.47
641.598	3439.05
641.798	3305.93
641.997	4485.56
642.197	3645.9
642.397	3437
642.597	3365.32
642.796	3736.01
642.996	3871.17
643.196	3533.26
643.395	3289.55
643.595	3563.98
643.795	3201.49
643.994	3432.91
644.194	3463.63
644.394	3805.64
644.593	3709.38
644.793	3207.63
644.992	3539.4
645.192	3766.73
645.392	3406.28
645.591	3539.4
645.791	3494.35
645.99	3813.83
646.19	3625.42
646.389	3547.59
646.589	3602.89
646.788	3920.32
646.987	3848.65
647.187	3805.64
647.386	3809.73
647.586	3723.72
647.785	3957.19
647.984	3494.35
648.184	3600.84
648.383	3621.32
648.582	3678.66
648.782	3566.03
648.981	3637.7
649.18	3674.57
649.38	3846.6
649.579	3699.14
649.778	3486.15
649.977	4143.55
650.177	3891.65
650.376	3756.49
650.575	3654.09
650.774	4178.37
650.973	3705.29
651.173	3568.07
651.372	3813.83
651.571	3994.05
651.77	4223.42
651.969	3584.46
652.168	3873.22
652.367	3785.16
652.566	3930.56
652.765	3674.57
652.964	4069.83
653.163	4473.28
653.362	3946.95
653.561	3699.14
653.76	3838.41
653.959	3819.97
654.158	4213.18
654.357	4045.25
654.556	3813.83
654.755	4202.94
654.954	4297.15
655.153	3799.49
655.352	3912.13
655.551	4540.86
655.749	3838.41
655.948	4022.72
656.147	3965.38
656.346	4288.96
656.545	3973.57
656.743	4030.91
656.942	3987.91
657.141	4307.39
657.34	3942.85
657.538	4057.54
657.737	3992
657.936	4065.73
658.135	4354.49
658.333	3924.42
658.532	4198.85
658.731	4762.04
658.929	4356.54
659.128	4231.62
659.326	4008.39
659.525	4477.37
659.724	4235.71
659.922	3779.01
660.121	3736.01
660.319	4284.86
660.518	3981.76
660.716	3985.86
660.915	3795.4
661.113	4643.26
661.312	4100.55
661.51	4286.91
661.709	3949
661.907	4434.36
662.105	4612.54
662.304	4016.58
662.502	4051.39
662.701	4665.78
662.899	4272.57
663.097	4440.51
663.296	3723.72
663.494	4661.69
663.692	4956.6
663.891	4078.02
664.089	3965.38
664.287	4501.95
664.485	4825.53
664.684	4229.57
664.882	4219.33
665.08	4430.27
665.278	4536.76
665.476	4016.58
665.675	4465.08
665.873	4921.78
666.071	4688.31
666.269	4112.83
666.467	4397.5
666.665	4790.71
666.863	4233.66
667.061	4391.36
667.259	4157.89
667.457	4659.64
667.655	4678.07
667.853	4153.79
668.051	4370.88
668.249	4250.05
668.447	4735.42
668.645	4293.05
668.843	4626.87
669.041	4731.32
669.239	4493.76
669.437	4444.6
669.635	4309.44
669.833	4514.24
670.031	4780.47
670.229	4510.14
670.426	4383.17
670.624	4428.22
670.822	4368.83
671.02	4358.59
671.218	4530.62
671.415	4276.67
671.613	4678.07
671.811	4538.81
672.009	4440.51
672.206	4870.58
672.404	4454.84
672.602	4618.68
672.799	4594.11
672.997	4915.64
673.195	4876.73
673.392	4682.17
673.59	4264.38
673.788	4868.53
673.985	4256.19
674.183	4592.06
674.38	4520.38
674.578	4921.78
674.775	4544.95
674.973	4299.2
675.17	4415.93
675.368	5063.09
675.565	4919.73
675.763	4528.57
675.96	4442.56
676.158	4983.22
676.355	4714.94
676.553	4512.19
676.75	4544.95
676.947	4723.13
677.145	4743.61
677.342	4764.09
677.539	4684.22
677.737	4944.31
677.934	5214.64
678.131	4876.73
678.329	4547
678.526	5247.41
678.723	5001.65
678.92	4661.69
679.118	4698.55
679.315	4475.32
679.512	5063.09
679.709	4712.89
679.906	4694.46
680.104	5222.83
680.301	4827.57
680.498	4420.03
680.695	4452.8
680.892	4800.95
681.089	4696.5
681.286	4852.15
681.483	4510.14
681.68	4927.92
681.877	5077.43
682.075	4604.35
682.272	4743.61
682.469	5110.19
682.665	4780.47
682.862	4542.91
683.059	4551.1
683.256	5116.34
683.453	4972.98
683.65	4755.9
683.847	4819.38
684.044	4917.68
684.241	4739.51
684.438	4905.4
684.635	4544.95
684.831	5458.35
685.028	5511.6
685.225	4579.77
685.422	4796.85
685.619	4929.97
685.815	5003.7
686.012	4897.21
686.209	4833.72
686.405	4714.94
686.602	5278.13
686.799	4616.63
686.996	4821.43
687.192	4702.65
687.389	5536.17
687.586	4745.66
687.782	4780.47
687.979	5349.81
688.175	5351.85
688.372	4889.01
688.568	4852.15
688.765	4993.46
688.962	5271.98
689.158	5106.1
689.355	4641.21
689.551	5407.15
689.748	4854.2
689.944	5054.9
690.14	4635.07
690.337	5419.44
690.533	4925.88
690.73	5028.28
690.926	4860.34
691.123	5321.13
691.319	5083.57
691.515	4641.21
691.712	5071.28
691.908	5200.3
692.104	5124.53
692.301	5067.19
692.497	4788.66
692.693	5333.42
692.889	5171.63
693.086	5138.87
693.282	4663.74
693.478	5206.45
693.674	5542.32
693.87	4964.79
694.067	4868.53
694.263	5423.53
694.459	5063.09
694.655	5018.04
694.851	5124.53
695.047	5325.23
695.243	5312.94
695.439	5198.26
695.635	5036.47
695.831	5388.72
696.027	5292.46
696.224	4878.77
696.42	5347.76
696.615	5423.53
696.811	5403.05
697.007	4790.71
697.203	4940.21
697.399	5300.66
697.595	5605.8
697.791	4956.6
697.987	5050.8
698.183	5009.84
698.379	5030.32
698.575	5169.59
698.77	5120.43
698.966	5452.2
699.162	5478.83
699.358	5083.57
699.554	5077.43
699.749	5288.37
699.945	5511.6
700.141	5134.77
700.337	5052.85
700.532	5132.72
700.728	5102
700.924	4878.77
701.119	4882.87
701.315	5358
701.511	5271.98
701.706	5165.49
701.902	4846.01
702.097	5210.54
702.293	5419.44
702.489	5124.53
702.684	5118.39
702.88	5446.06
703.075	5196.21
703.271	5083.57
703.466	4964.79
703.662	5325.23
703.857	5245.36
704.053	5110.19
704.248	5157.3
704.443	5554.6
704.639	5532.08
704.834	5175.73
705.03	5136.82
705.225	5538.22
705.42	5740.97
705.616	5280.18
705.811	5073.33
706.006	5308.85
706.202	5296.56
706.397	5255.6
706.592	5118.39
706.787	5415.34
706.983	5423.53
707.178	5444.01
707.373	5456.3
707.568	5695.91
707.763	5794.22
707.959	5122.48
708.154	5173.68
708.349	5421.49
708.544	5476.78
708.739	5489.07
708.934	5112.24
709.129	5579.18
709.324	5765.54
709.519	5169.59
709.714	5140.91
709.909	5869.99
710.104	5581.23
710.299	5265.84
710.494	5353.9
710.689	5683.63
710.884	5534.12
711.079	5370.29
711.274	5495.21
711.469	5566.89
711.664	5609.9
711.859	5132.72
712.054	5386.67
712.249	5679.53
712.443	5826.98
712.638	5157.3
712.833	5079.47
713.028	5439.92
713.223	5558.7
713.417	5587.37
713.612	5255.6
713.807	5710.25
714.002	6162.85
714.196	5546.41
714.391	5251.5
714.586	5894.57
714.78	5642.67
714.975	5323.18
715.17	5288.37
715.364	5511.6
715.559	5888.42
715.754	4917.68
715.948	5185.97
716.143	6033.83
716.337	5628.33
716.532	5691.82
716.726	5429.68
716.921	5765.54
717.115	5951.91
717.31	5306.8
717.504	5798.31
717.699	5435.82
717.893	5874.09
718.088	5263.79
718.282	5145.01
718.476	5749.16
718.671	5648.81
718.865	5345.71
719.059	5335.47
719.254	5626.28
719.448	6003.11
719.642	6683.03
719.837	5089.71
720.031	5822.89
720.225	5759.4
720.419	5396.91
720.614	5317.04
720.808	5878.18
721.002	5484.97
721.196	5446.06
721.39	5372.33
721.585	5759.4
721.779	5663.15
721.973	5312.94
722.167	5091.76
722.361	5724.58
722.555	5898.66
722.749	5394.86
722.943	5411.25
723.137	5456.3
723.331	5534.12
723.525	5286.32
723.719	5317.04
723.913	5956.01
724.107	6019.49
724.301	5405.1
724.495	5505.45
724.689	6091.17
724.883	6033.83
725.077	5415.34
725.271	5429.68
725.465	6078.88
725.659	5511.6
725.853	5507.5
726.046	5312.94
726.24	5372.33
726.434	5968.29
726.628	5523.88
726.822	5507.5
727.015	6050.21
727.209	5929.38
727.403	5396.91
727.596	5538.22
727.79	6050.21
727.984	5933.48
728.177	5667.24
728.371	5636.52
728.565	5898.66
728.758	5480.88
728.952	5321.13
729.146	5626.28
729.339	5984.68
729.533	5849.51
729.726	5591.47
729.92	5380.53
730.113	6021.54
730.307	5937.57
730.5	5493.16
730.694	5462.44
730.887	5738.92
731.081	5839.27
731.274	5439.92
731.468	5605.8
731.661	5820.84
731.854	5607.85
732.048	5454.25
732.241	5542.32
732.435	5706.15
732.628	5937.57
732.821	5657
733.014	5472.68
733.208	5484.97
733.401	5855.65
733.594	5642.67
733.788	5568.94
733.981	6187.43
734.174	5964.2
734.367	5683.63
734.56	5659.05
734.754	6023.59
734.947	5902.76
735.14	5786.02
735.333	5601.71
735.526	6048.16
735.719	5747.11
735.912	5601.71
736.105	5570.99
736.298	5876.13
736.491	5902.76
736.684	5716.39
736.877	5693.87
737.07	5765.54
737.263	6300.06
737.456	5722.54
737.649	5603.75
737.842	5968.29
738.035	5898.66
738.228	5628.33
738.421	5845.41
738.614	6267.3
738.807	6093.22
739	5579.18
739.192	5525.93
739.385	6029.73
739.578	6076.84
739.771	5929.38
739.964	5745.06
740.156	6097.31
740.349	5894.57
740.542	5800.36
740.735	5552.56
740.927	5800.36
741.12	5722.54
741.313	5515.69
741.505	5964.2
741.698	6205.86
741.891	6197.67
742.083	5865.89
742.276	5906.85
742.468	6189.47
742.661	5964.2
742.854	5693.87
743.046	5773.74
743.239	6326.69
743.431	5892.52
743.624	5935.53
743.816	5640.62
744.009	6156.71
744.201	6076.84
744.393	5919.14
744.586	5743.02
744.778	6316.45
744.971	5886.37
745.163	5917.09
745.355	5935.53
745.548	6070.69
745.74	6015.4
745.932	5839.27
746.125	5869.99
746.317	6732.19
746.509	6166.95
746.702	5796.26
746.894	5859.75
747.086	6273.44
747.278	6238.62
747.471	6021.54
747.663	5869.99
747.855	6070.69
748.047	6412.7
748.239	5869.99
748.431	5751.21
748.623	6484.38
748.815	6427.04
749.008	6042.02
749.2	5886.37
749.392	6255.01
749.584	6338.98
749.776	5855.65
749.968	6197.67
750.16	6631.83
750.352	6171.04
750.544	6023.59
750.736	5872.04
750.928	6310.3
751.12	6166.95
751.311	5845.41
751.503	6070.69
751.695	6353.31
751.887	6107.55
752.079	5601.71
752.271	5861.8
752.463	6967.7
752.654	6341.02
752.846	5939.62
753.038	5779.88
753.23	6062.5
753.421	6408.61
753.613	5972.39
753.805	6160.8
753.997	6381.98
754.188	6511
754.38	5732.78
754.572	5874.09
754.763	6044.07
754.955	6269.34
755.146	6179.23
755.338	5839.27
755.53	6271.39
755.721	6123.94
755.913	5693.87
756.104	5788.07
756.296	6234.53
756.487	6369.69
756.679	5857.7
756.87	5867.94
757.062	6029.73
757.253	6476.19
757.445	5886.37
757.636	6089.12
757.827	6187.43
758.019	6822.3
758.21	5769.64
758.401	5929.38
758.593	6734.23
758.784	6418.85
758.975	5820.84
759.167	5833.13
759.358	6220.19
759.549	6406.56
759.74	5927.33
759.932	5921.19
760.123	6396.32
760.314	6054.31
760.505	5869.99
760.696	5886.37
760.888	6625.69
761.079	6060.45
761.27	5906.85
761.461	5826.98
761.652	6605.21
761.843	6080.93
762.034	5792.17
762.225	6082.98
762.416	6187.43
762.607	6099.36
762.798	5788.07
762.989	5771.69
763.18	6953.37
763.371	5913
763.562	5818.79
763.753	5886.37
763.944	6306.21
764.135	6418.85
764.326	6074.79
764.517	5869.99
764.708	6341.02
764.899	6332.83
765.089	5855.65
765.28	5667.24
765.471	6076.84
765.662	6142.37
765.853	5796.26
766.043	5755.3
766.234	6496.67
766.425	6287.78
766.615	5804.46
766.806	5646.76
766.997	6533.53
767.187	6128.03
767.378	5857.7
767.569	5818.79
767.759	6054.31
767.95	6175.14
768.141	6009.25
768.331	5783.98
768.522	6140.32
768.712	6336.93
768.903	5757.35
769.093	5786.02
769.284	6429.09
769.474	6166.95
769.665	5683.63
769.855	5548.46
770.046	6171.04
770.236	6091.17
770.426	6044.07
770.617	5861.8
770.807	6123.94
770.998	5958.05
771.188	5826.98
771.378	5685.67
771.569	6168.99
771.759	6355.36
771.949	5712.3
772.139	5626.28
772.33	6058.4
772.52	6392.22
772.71	5749.16
772.9	5622.19
773.09	6500.76
773.281	6248.86
773.471	5722.54
773.661	5759.4
773.851	6351.26
774.041	5974.44
774.231	5681.58
774.421	5833.13
774.611	6508.96
774.802	6220.19
774.992	5906.85
775.182	5607.85
775.372	6140.32
775.562	6255.01
775.752	5972.39
775.942	5841.32
776.131	6375.84
776.321	6287.78
776.511	5841.32
776.701	5857.7
776.891	6377.89
777.081	5781.93
777.271	5665.19
777.461	5732.78
777.651	6222.24
777.84	6433.18
778.03	5794.22
778.22	5708.2
778.41	6365.6
778.599	5902.76
778.789	5880.23
778.979	5663.15
779.169	6226.34
779.358	6062.5
779.548	6005.16
779.738	5613.99
779.927	6123.94
780.117	5775.78
780.307	5845.41
780.496	5484.97
780.686	6150.56
780.875	6369.69
781.065	5876.13
781.254	5814.7
781.444	6144.42
781.633	5996.96
781.823	5736.87
782.012	5648.81
782.202	5996.96
782.391	5833.13
782.581	5464.49
782.77	5800.36
782.96	6273.44
783.149	5949.86
783.338	5616.04
783.528	5398.96
783.717	6144.42
783.906	6257.06
784.096	5833.13
784.285	5788.07
784.474	5882.28
784.663	5605.8
784.853	5640.62
785.042	5874.09
785.231	5949.86
785.42	6238.62
785.61	5837.22
785.799	5714.34
785.988	5736.87
786.177	5886.37
786.366	5644.71
786.555	5874.09
786.744	6326.69
786.933	5861.8
787.122	5620.14
787.312	5566.89
787.501	5859.75
787.69	6197.67
787.879	5743.02
788.068	5525.93
788.257	5585.32
788.445	5659.05
788.634	5579.18
788.823	5513.64
789.012	6461.85
789.201	6146.47
789.39	5718.44
789.579	5478.83
789.768	5939.62
789.957	6091.17
790.145	5628.33
790.334	5278.13
790.523	5833.13
790.712	5988.77
790.9	5689.77
791.089	5460.4
791.278	6103.46
791.467	5657
791.655	5861.8
791.844	6115.75
792.033	5720.49
792.221	5767.59
792.41	5820.84
792.599	5337.52
792.787	5996.96
792.976	6066.6
793.164	5618.09
793.353	5566.89
793.541	6132.13
793.73	6123.94
793.918	5792.17
794.107	5597.61
794.295	5894.57
794.484	6048.16
794.672	5611.95
794.861	5716.39
795.049	6017.44
795.238	6345.12
795.426	5591.47
795.614	5642.67
795.803	5999.01
795.991	6279.58
796.179	5661.1
796.368	5548.46
796.556	6140.32
796.744	5544.36
796.932	5505.45
797.121	5462.44
797.309	5869.99
797.497	6283.68
797.685	5593.51
797.874	5527.98
798.062	5743.02
798.25	6291.87
798.438	5570.99
798.626	5562.8
798.814	5904.81
799.002	6424.99
799.19	6007.2
799.378	5755.3
799.566	6236.58
799.755	6099.36
799.943	5896.61
800.131	5517.74
800.318	6009.25
800.506	6046.12
800.694	5466.54
800.882	5849.51
801.07	6232.48
801.258	5972.39
801.446	5624.23
801.634	5642.67
801.822	6068.64
802.01	5915.05
802.197	5603.75
802.385	6007.2
802.573	5964.2
802.761	5982.63
802.949	5734.82
803.136	5493.16
803.324	6238.62
803.512	6078.88
803.699	5747.11
803.887	5517.74
804.075	6308.26
804.262	5904.81
804.45	5609.9
804.638	5697.96
804.825	5884.33
805.013	5835.17
805.201	5775.78
805.388	5624.23
805.576	6109.6
805.763	6314.4
805.951	5855.65
806.138	5980.58
806.326	6703.51
806.513	6355.36
806.701	5894.57
806.888	5978.53
807.075	6259.1
807.263	6605.21
807.45	5683.63
807.638	6218.15
807.825	6621.59
808.012	6324.64
808.2	5822.89
808.387	6107.55
808.574	6392.22
808.761	6480.29
808.949	6035.88
809.136	6099.36
809.323	5910.95
809.51	6197.67
809.698	6322.59
809.885	6107.55
810.072	6480.29
810.259	6527.39
810.446	6009.25
810.633	6001.06
810.82	6558.11
811.008	6758.81
811.195	6257.06
811.382	5976.48
811.569	6347.17
811.756	6162.85
811.943	6027.68
812.13	6261.15
812.317	6140.32
812.504	6175.14
812.691	6259.1
812.878	6185.38
813.064	6838.68
813.251	6465.95
813.438	5951.91
813.625	6308.26
813.812	6166.95
813.999	6347.17
814.186	6279.58
814.372	6255.01
814.559	6435.23
814.746	6781.34
814.933	5945.77
815.12	6535.58
815.306	6279.58
815.493	6166.95
815.68	6121.89
815.866	6142.37
816.053	6635.93
816.24	6963.61
816.426	6422.94
816.613	6064.55
816.799	6607.26
816.986	6695.32
817.173	6132.13
817.359	6031.78
817.546	6332.83
817.732	6158.75
817.919	5773.74
818.105	6252.96
818.292	6283.68
818.478	6281.63
818.665	6369.69
818.851	6105.51
819.037	6820.25
819.224	6500.76
819.41	6056.36
819.597	6095.27
819.783	6881.69
819.969	6531.48
820.156	6181.28
820.342	6121.89
820.528	7229.84
820.714	6279.58
820.901	6453.66
821.087	6181.28
821.273	6939.03
821.459	6267.3
821.646	5855.65
821.832	6068.64
822.018	6437.28
822.204	6422.94
822.39	6140.32
822.576	6058.4
822.762	6519.2
822.948	6453.66
823.134	6353.31
823.32	6007.2
823.507	6214.05
823.693	6582.68
823.879	6568.35
824.065	6183.33
824.25	6451.61
824.436	6044.07
824.622	6015.4
824.808	6023.59
824.994	6166.95
825.18	6230.43
825.366	6021.54
825.552	6168.99
825.738	6341.02
825.923	6867.35
826.109	6353.31
826.295	6117.79
826.481	6295.97
826.667	6191.52
826.852	6189.47
827.038	5927.33
827.224	6824.34
827.409	6775.19
827.595	5945.77
827.781	6265.25
827.966	6676.89
828.152	6545.82
828.338	6085.03
828.523	5980.58
828.709	6388.13
828.894	6652.31
829.08	6119.84
829.266	6085.03
829.451	6255.01
829.637	6406.56
829.822	6099.36
830.008	5919.14
830.193	6574.49
830.378	6629.79
830.564	6037.92
830.749	6115.75
830.935	6511
831.12	6439.33
831.305	5863.85
831.491	6361.5
831.676	6011.3
831.861	6513.05
832.047	5966.24
832.232	5665.19
832.417	6470.05
832.602	6078.88
832.788	5890.47
832.973	5718.44
833.158	6154.66
833.343	6185.38
833.528	6263.2
833.714	6027.68
833.899	6386.08
834.084	6572.44
834.269	6142.37
834.454	5894.57
834.639	6386.08
834.824	6377.89
835.009	6123.94
835.194	6166.95
835.379	6582.68
835.564	6574.49
835.749	6232.48
835.934	5839.27
836.119	6392.22
836.304	6119.84
836.489	5962.15
836.674	6207.91
836.859	6066.6
837.044	6601.12
837.228	5890.47
837.413	5820.84
837.598	6324.64
837.783	6476.19
837.968	5972.39
838.152	5773.74
838.337	5808.55
838.522	6488.48
838.707	6353.31
838.891	6001.06
839.076	6289.82
839.261	6414.75
839.445	5767.59
839.63	5941.67
839.815	6390.17
839.999	6082.98
840.184	5788.07
840.368	5788.07
840.553	6289.82
840.737	6537.63
840.922	5855.65
841.106	5609.9
841.291	5896.61
841.475	6185.38
841.66	5800.36
841.844	5886.37
842.029	6926.74
842.213	5974.44
842.397	5792.17
842.582	5812.65
842.766	6465.95
842.951	6451.61
843.135	5804.46
843.319	5820.84
843.504	6289.82
843.688	6349.22
843.872	5634.47
844.056	5681.58
844.241	6353.31
844.425	6058.4
844.609	6080.93
844.793	5536.17
844.977	6312.35
845.161	6150.56
845.346	5806.5
845.53	5779.88
845.714	5923.24
845.898	6605.21
846.082	5591.47
846.266	5757.35
846.45	6082.98
846.634	6066.6
846.818	5792.17
847.002	5861.8
847.186	6224.29
847.37	5734.82
847.554	5736.87
847.738	5824.94
847.922	6035.88
848.106	6193.57
848.29	5577.13
848.473	5605.8
848.657	6142.37
848.841	6064.55
849.025	5767.59
849.209	5878.18
849.392	6130.08
849.576	5738.92
849.76	5444.01
849.944	5685.67
850.127	6324.64
850.311	5681.58
850.495	5472.68
850.678	5538.22
850.862	6209.95
851.046	6332.83
851.229	5841.32
851.413	5493.16
851.596	5835.17
851.78	6046.12
851.964	5788.07
852.147	5757.35
852.331	6515.1
852.514	6234.53
852.698	5669.29
852.881	5288.37
853.065	6125.99
853.248	5804.46
853.431	5634.47
853.615	5697.96
853.798	6351.26
853.982	5882.28
854.165	5771.69
854.348	5497.26
854.532	5710.25
854.715	5851.56
854.898	5745.06
855.081	5435.82
855.265	6201.76
855.448	6402.46
855.631	5378.48
855.814	5665.19
855.997	6085.03
856.181	5718.44
856.364	5573.03
856.547	5353.9
856.73	5929.38
856.913	5829.03
857.096	5231.02
857.279	5648.81
857.462	5472.68
857.645	5829.03
857.828	5687.72
858.011	5847.46
858.194	5788.07
858.377	5853.61
858.56	5444.01
858.743	5489.07
858.926	5802.41
859.109	5880.23
859.292	5448.11
859.475	5269.94
859.658	5976.48
859.841	6025.64
860.023	5437.87
860.206	5366.19
860.389	5839.27
860.572	5898.66
860.755	5444.01
860.937	5511.6
861.12	5788.07
861.303	5773.74
861.486	5353.9
861.668	5292.46
861.851	5886.37
862.034	5702.06
862.216	5370.29
862.399	5194.16
862.581	5714.34
862.764	6017.44
862.947	5456.3
863.129	5331.37
863.312	5337.52
863.494	6058.4
863.677	5558.7
863.859	5179.82
864.042	5710.25
864.224	5757.35
864.406	5452.2
864.589	5009.84
864.771	5657
864.954	5386.67
865.136	5210.54
865.318	5214.64
865.501	5573.03
865.683	5190.06
865.865	5147.06
866.048	5306.8
866.23	5401.01
866.412	5503.4
866.594	5052.85
866.777	5302.7
866.959	5738.92
867.141	5366.19
867.323	5454.25
867.505	5343.66
867.687	5605.8
867.869	5462.44
868.052	5314.99
868.234	5325.23
868.416	5513.64
868.598	5632.43
868.78	5005.75
868.962	5167.54
869.144	5884.33
869.326	5648.81
869.508	5196.21
869.69	5175.73
869.872	5388.72
870.054	5767.59
870.236	5247.41
870.417	5036.47
870.599	5401.01
870.781	5816.74
870.963	5267.89
871.145	4983.22
871.327	5116.34
871.508	5708.2
871.69	5161.39
871.872	5349.81
872.054	5431.73
872.235	5599.66
872.417	5312.94
872.599	4975.03
872.78	5878.18
872.962	5558.7
873.144	5224.88
873.325	5177.78
873.507	5687.72
873.689	5599.66
873.87	5253.55
874.052	5382.57
874.233	5405.1
874.415	5654.95
874.596	5296.56
874.778	5202.35
874.959	5435.82
875.141	5638.57
875.322	5136.82
875.503	5120.43
875.685	5609.9
875.866	5050.8
876.048	5165.49
876.229	5130.67
876.41	5439.92
876.592	5730.73
876.773	5208.5
876.954	5089.71
877.136	5845.41
877.317	5435.82
877.498	5075.38
877.679	5444.01
877.86	5704.1
878.042	5484.97
878.223	5128.63
878.404	5624.23
878.585	5689.77
878.766	6062.5
878.947	5673.39
879.128	5550.51
879.309	5796.26
879.49	5931.43
879.672	5462.44
879.853	5296.56
880.034	5314.99
880.215	5847.46
880.396	5439.92
880.576	5396.91
880.757	5476.78
880.938	5976.48
881.119	5304.75
881.3	5380.53
881.481	5603.75
881.662	6511
881.843	5501.36
882.023	5419.44
882.204	5837.22
882.385	5808.55
882.566	5476.78
882.747	5618.09
882.927	5968.29
883.108	5706.15
883.289	5626.28
883.469	5806.5
883.65	5654.95
883.831	5779.88
884.011	5855.65
884.192	5609.9
884.373	6207.91
884.553	6037.92
884.734	5706.15
884.914	5908.9
885.095	6752.66
885.275	6257.06
885.456	6054.31
885.636	5720.49
885.817	5992.87
885.997	5992.87
886.178	5587.37
886.358	5753.26
886.538	5974.44
886.719	6982.04
886.899	5687.72
887.08	5829.03
887.26	6439.33
887.44	5710.25
887.621	5714.34
887.801	5773.74
887.981	6726.04
888.161	6384.03
888.342	5894.57
888.522	5765.54
888.702	6302.11
888.882	6373.79
889.062	5896.61
889.242	5800.36
889.423	6564.25
889.603	6369.69
889.783	6201.76
889.963	5880.23
890.143	6365.6
890.323	6543.77
890.503	5923.24
890.683	6007.2
890.863	6197.67
891.043	6093.22
891.223	5976.48
891.403	6044.07
891.583	6212
891.763	6060.45
891.943	5960.1
892.122	5779.88
892.302	6070.69
892.482	6007.2
892.662	6070.69
892.842	6001.06
893.022	6193.57
893.201	6160.8
893.381	6148.51
893.561	6101.41
893.741	6547.87
893.92	6320.54
894.1	6160.8
894.28	6111.65
894.459	6289.82
894.639	6308.26
894.819	6017.44
894.998	6125.99
895.178	6531.48
895.357	6326.69
895.537	5841.32
895.716	5847.46
895.896	6314.4
896.075	6740.38
896.255	6177.19
896.434	5960.1
896.614	6584.73
896.793	6709.66
896.973	6195.62
897.152	6068.64
897.331	6314.4
897.511	6597.02
897.69	6025.64
897.87	6128.03
898.049	6400.41
898.228	6363.55
898.407	6216.1
898.587	6066.6
898.766	6107.55
898.945	6431.13
899.124	6220.19
899.304	6168.99
899.483	6394.27
899.662	6670.75
899.841	5999.01
900.02	5913
900.199	6521.24
900.378	6302.11
900.557	5988.77
900.737	5837.22
900.916	6439.33
901.095	6377.89
901.274	6238.62
901.453	5874.09
901.632	6146.47
901.811	6087.08
901.989	5974.44
902.168	5951.91
902.347	6476.19
902.526	6189.47
902.705	5804.46
902.884	5927.33
903.063	6490.52
903.242	6560.16
903.42	5829.03
903.599	6101.41
903.778	6611.36
903.957	6592.92
904.135	6023.59
904.314	5976.48
904.493	6162.85
904.672	6248.86
904.85	5947.81
905.029	5755.3
905.207	6328.74
905.386	6666.65
905.565	5747.11
905.743	5683.63
905.922	5847.46
906.1	6214.05
906.279	5702.06
906.457	5632.43
906.636	6033.83
906.814	6068.64
906.993	5816.74
907.171	5853.61
907.35	6203.81
907.528	6320.54
907.707	5988.77
907.885	5566.89
908.063	6431.13
908.242	5927.33
908.42	5769.64
908.598	5468.59
908.777	6193.57
908.955	5816.74
909.133	5878.18
909.311	5626.28
909.49	5847.46
909.668	5837.22
909.846	5568.94
910.024	5403.05
910.202	5945.77
910.38	6158.75
910.559	5521.84
910.737	5636.52
910.915	5906.85
911.093	5931.43
911.271	5679.53
911.449	5812.65
911.627	5992.87
911.805	6363.55
911.983	5548.46
912.161	5591.47
912.339	5839.27
912.517	6091.17
912.695	5671.34
912.872	5552.56
913.05	5573.03
913.228	5796.26
913.406	5554.6
913.584	5421.49
913.762	5857.7
913.939	5382.57
914.117	5298.61
914.295	5157.3
914.473	5706.15
914.65	5820.84
914.828	5431.73
915.006	5419.44
915.184	5368.24
915.361	5640.62
915.539	5659.05
915.716	5476.78
915.894	5730.73
916.072	6044.07
916.249	5642.67
916.427	5458.35
916.604	5366.19
916.782	5632.43
916.959	5061.04
917.137	5210.54
917.314	5681.58
917.492	5644.71
917.669	5343.66
917.847	5239.22
918.024	5542.32
918.201	5231.02
918.379	5226.93
918.556	5280.18
918.733	5671.34
918.911	5280.18
919.088	5155.25
919.265	5233.07
919.442	5423.53
919.62	5364.14
919.797	4934.07
919.974	4907.45
920.151	5403.05
920.328	5456.3
920.506	4962.74
920.683	5312.94
920.86	4952.5
921.037	4956.6
921.214	5161.39
921.391	4778.42
921.568	5527.98
921.745	4997.56
921.922	5071.28
922.099	4901.3
922.276	5452.2
922.453	5274.03
922.63	4813.24
922.807	5220.78
922.984	5226.93
923.161	5005.75
923.338	4880.82
923.514	4807.09
923.691	5085.62
923.868	5173.68
924.045	4776.38
924.222	4612.54
924.399	4921.78
924.575	5294.51
924.752	4792.76
924.929	4608.44
925.105	5093.81
925.282	4671.93
925.459	4680.12
925.635	4663.74
925.812	4944.31
925.989	4739.51
926.165	4782.52
926.342	4428.22
926.518	4637.11
926.695	4727.22
926.871	4420.03
927.048	4311.49
927.224	5136.82
927.401	4782.52
927.577	4637.11
927.754	4268.48
927.93	4889.01
928.107	4934.07
928.283	4450.75
928.459	4479.42
928.636	4932.02
928.812	4624.83
928.988	4221.38
929.165	4227.52
929.341	4643.26
929.517	4555.19
929.693	4594.11
929.87	4155.84
930.046	4567.48
930.222	4352.45
930.398	4280.77
930.574	4340.16
930.751	4372.93
930.927	4403.64
931.103	4192.7
931.279	4030.91
931.455	4043.2
931.631	4282.81
931.807	3862.98
931.983	4026.82
932.159	4059.59
932.335	4325.82
932.511	4133.31
932.687	4002.24
932.863	4460.99
933.039	4252.1
933.215	3912.13
933.391	3703.24
933.566	4075.97
933.742	3957.19
933.918	3764.68
934.094	3541.45
934.27	3979.72
934.445	4061.63
934.621	3875.27
934.797	3404.24
934.973	4073.92
935.148	3981.76
935.324	3518.92
935.5	3232.21
935.675	3959.24
935.851	3723.72
936.027	3441.1
936.202	3486.15
936.378	3572.17
936.553	3486.15
936.729	3625.42
936.904	3215.82
937.08	3105.23
937.255	3152.34
937.431	2986.45
937.606	2933.2
937.782	3105.23
937.957	3283.41
938.133	2949.59
938.308	2834.9
938.483	2941.4
938.659	2843.09
938.834	2744.79
939.009	2560.47
939.185	2855.38
939.36	2687.45
939.535	2230.75
939.71	2552.28
939.886	3070.42
940.061	2994.64
940.236	2564.57
940.411	2478.55
940.586	2810.33
940.761	2896.34
940.937	2290.14
941.112	2370.01
941.287	2617.82
941.462	2486.75
941.637	2103.78
941.812	2191.84
941.987	2533.85
942.162	2314.72
942.337	2349.53
942.512	2130.4
942.687	2566.62
942.862	2548.19
943.037	1896.93
943.212	1796.58
943.386	2228.7
943.561	2327
943.736	2142.69
943.911	2476.51
944.086	2361.82
944.26	2306.52
944.435	1976.8
944.61	2234.85
944.785	2576.86
944.959	2716.12
945.134	2044.38
945.309	1933.79
945.483	1987.04
945.658	2494.94
945.833	1634.79
946.007	1882.6
946.182	2630.1
946.357	2034.14
946.531	1937.89
946.706	1925.6
946.88	1823.2
947.055	2228.7
947.229	1933.79
947.404	1952.23
947.578	2488.79
947.752	2101.73
947.927	1888.74
948.101	1778.15
948.276	2189.79
948.45	2261.47
948.624	2087.39
948.799	1866.21
948.973	2331.1
949.147	1888.74
949.321	2105.82
949.496	1952.23
949.67	2441.69
949.844	2253.28
950.018	2023.91
950.193	2177.5
950.367	2642.39
950.541	2109.92
950.715	2101.73
950.889	2095.58
951.063	2179.55
951.237	2458.07
951.411	1757.67
951.585	1978.85
951.759	2327
951.933	2179.55
952.107	1927.65
952.281	2159.07
952.455	2519.51
952.629	2453.98
952.803	1987.04
952.977	1905.12
953.151	2382.3
953.325	2175.45
953.499	2107.87
953.672	1872.36
953.846	1946.08
954.02	2052.58
954.194	1919.46
954.368	1909.22
954.541	2392.54
954.715	2142.69
954.889	2060.77
955.062	1905.12
955.236	2120.16
955.41	2134.5
955.583	2105.82
955.757	1901.03
955.93	2126.3
956.104	2007.52
956.278	1944.03
956.451	2091.49
956.625	2284
956.798	2736.6
956.972	2286.05
957.145	1804.77
957.319	2138.59
957.492	2118.11
957.665	2193.89
957.839	1995.23
958.012	2257.37
958.185	1974.75
958.359	1901.03
958.532	2095.58
958.705	2365.92
958.879	2304.48
959.052	2013.67
959.225	1774.05
959.398	2066.91
959.572	2167.26
959.745	1919.46
959.918	1917.41
960.091	2077.15
960.264	2388.44
960.438	1939.94
960.611	1939.94
960.784	2304.48
960.957	1980.9
961.13	2331.1
961.303	1825.25
961.476	2118.11
961.649	2384.35
961.822	1798.63
961.995	2005.47
962.168	2339.29
962.341	2200.03
962.514	1872.36
962.686	1872.36
962.859	2288.09
963.032	2367.96
963.205	1982.95
963.378	1792.48
963.551	2240.99
963.723	2171.36
963.896	1997.28
964.069	2023.91
964.242	2105.82
964.414	2277.85
964.587	1980.9
964.76	1901.03
964.932	2271.71
965.105	2015.71
965.278	1993.19
965.45	1812.96
965.623	2122.21
965.795	2177.5
965.968	1800.68
966.14	1855.97
966.313	2009.57
966.485	2163.17
966.658	1913.31
966.83	1759.72
967.003	2447.83
967.175	2304.48
967.348	1780.2
967.52	1794.53
967.692	2494.94
967.865	2173.41
968.037	1853.92
968.209	2075.1
968.382	1962.47
968.554	2316.76
968.726	1909.22
968.898	1827.3
969.071	2134.5
969.243	2167.26
969.415	1874.4
969.587	1896.93
969.759	2585.05
969.932	2232.8
970.104	1931.75
970.276	1520.1
970.448	1780.2
970.62	1999.33
970.792	1972.71
970.964	1954.27
971.136	2476.51
971.308	2167.26
971.48	1755.62
971.652	1724.9
971.824	2296.28
971.996	1847.78
972.168	1792.48
972.339	1923.55
972.511	2163.17
972.683	1888.74
972.855	1976.8
973.027	1802.72
973.199	1911.27
973.37	2079.2
973.542	1921.51
973.714	1851.88
973.886	1966.56
974.057	2337.24
974.229	1659.37
974.401	1741.29
974.572	1790.44
974.744	1645.03
974.915	1620.46
975.087	1667.56
975.259	2257.37
975.43	1888.74
975.602	1675.75
975.773	1567.21
975.945	1755.62
976.116	2132.45
976.288	1647.08
976.459	1815.01
976.63	1872.36
976.802	1944.03
976.973	1606.12
977.145	1827.3
977.316	2392.54
977.487	2298.33
977.659	1905.12
977.83	1825.25
978.001	2263.52
978.172	2040.29
978.344	1589.74
978.515	1655.27
978.686	1737.19
978.857	2204.13
979.028	1731.05
979.2	1573.35
979.371	2214.37
979.542	1847.78
979.713	1718.76
979.884	1176.05
980.055	1751.53
980.226	1819.11
980.397	1571.3
980.568	1505.77
980.739	2130.4
980.91	1704.42
981.081	1757.67
981.252	1528.3
981.423	1987.04
981.594	2040.29
981.765	1436.14
981.936	1794.53
982.106	1751.53
982.277	2142.69
982.448	1491.43
982.619	1751.53
982.79	1683.94
982.96	2109.92
983.131	1769.96
983.302	1360.36
983.472	1718.76
983.643	1909.22
983.814	1745.38
983.984	1481.19
984.155	1753.57
984.326	1982.95
984.496	1675.75
984.667	1593.83
984.837	1618.41
985.008	1952.23
985.178	1663.46
985.349	1604.07
985.519	1731.05
985.69	1677.8
985.86	1638.89
986.031	1403.37
986.201	1831.4
986.371	1925.6
986.542	1382.89
986.712	1196.53
986.882	1937.89
987.053	1901.03
987.223	1305.07
987.393	1663.46
987.563	1688.04
987.734	1823.2
987.904	1788.39
988.074	1466.86
988.244	1700.33
988.414	1403.37
988.585	1354.22
988.755	1550.82
988.925	1620.46
989.095	1946.08
989.265	1366.51
989.435	1417.71
989.605	1747.43
989.775	1765.86
989.945	1683.94
990.115	1311.21
990.285	1669.61
990.455	1729
990.625	1460.71
990.795	1298.92
990.965	1819.11
991.134	1450.47
991.304	1415.66
991.474	1354.22
991.644	1839.59
991.814	1999.33
991.984	1241.58
992.153	1217.01
992.323	1554.92
992.493	1632.74
992.662	1167.85
992.832	1485.29
993.002	1606.12
993.171	1618.41
993.341	1294.83
993.511	1505.77
993.68	1434.09
993.85	1722.85
994.019	1124.85
994.189	1235.44
994.358	1624.55
994.528	1417.71
994.697	965.11
994.867	1276.4
995.036	1739.24
995.206	1446.38
995.375	1108.46
995.544	1372.65
995.714	1642.98
995.883	1440.23
996.052	1356.27
996.222	954.87
996.391	1939.94
996.56	1481.19
996.73	1081.84
996.899	1073.65
997.068	1774.05
997.237	1454.57
997.406	1104.37
997.576	1042.93
997.745	1675.75
997.914	1538.54
998.083	909.81
998.252	1098.22
998.421	1460.71
998.59	1389.03
998.759	1044.98
998.928	995.82
999.097	1804.77
999.266	1350.12
999.435	1192.43
999.604	1020.4
999.773	1999.33
999.942	1307.12
1000.111	938.48
1000.28	1012.21
1000.448	1169.9
1000.617	1055.22
1000.786	1323.5
1000.955	979.44
1001.124	1382.89
1001.292	2142.69
1001.461	1135.09
1001.63	1128.94
1001.798	1741.29
1001.967	1667.56
1002.136	883.19
1002.304	866.8
1002.473	1483.24
1002.642	1415.66
1002.81	1047.02
1002.979	936.43
1003.147	1470.95
1003.316	1872.36
1003.484	1006.06
1003.653	913.91
1003.821	1628.65
1003.99	1327.6
1004.158	1163.76
1004.327	1098.22
1004.495	1528.3
1004.663	1176.05
1004.832	1051.12
1005	932.34
1005.168	1454.57
1005.337	1305.07
1005.505	926.19
1005.673	1128.94
1005.842	1429.99
1006.01	1339.88
1006.178	750.07
1006.346	893.43
1006.514	1419.75
1006.683	1497.58
1006.851	864.75
1007.019	858.61
1007.187	1055.22
1007.355	872.95
1007.523	877.04
1007.691	801.27
1007.859	872.95
1008.027	1530.34
1008.195	977.39
1008.363	778.74
1008.531	1409.51
1008.699	1042.93
1008.867	823.8
1009.035	932.34
1009.203	1483.24
1009.37	1241.58
1009.538	993.78
1009.706	1278.44
1009.874	1300.97
1010.042	1077.74
1010.209	662.01
1010.377	872.95
1010.545	1348.08
1010.713	1221.1
1010.88	834.04
1011.048	913.91
1011.216	1047.02
1011.383	1507.82
1011.551	840.18
1011.718	725.49
1011.886	1348.08
1012.054	1133.04
1012.221	774.64
1012.389	717.3
1012.556	1042.93
1012.724	1503.72
1012.891	915.95
1013.058	698.87
1013.226	1331.69
1013.393	1264.11
1013.561	662.01
1013.728	619
1013.895	1278.44
1014.063	1253.87
1014.23	688.63
1014.397	733.68
1014.565	1360.36
1014.732	1075.7
1014.899	702.97
1015.066	647.67
1015.233	1159.66
1015.401	1184.24
1015.568	774.64
1015.735	844.28
1015.902	1102.32
1016.069	1137.13
1016.236	686.58
1016.403	680.44
1016.57	860.66
1016.737	1221.1
1016.904	881.14
1017.071	588.28
1017.238	872.95
1017.405	1280.49
1017.572	729.59
1017.739	938.48
1017.906	1161.71
1018.073	1235.44
1018.24	614.9
1018.407	786.93
1018.573	1278.44
1018.74	1028.59
1018.907	725.49
1019.074	449.02
1019.241	1206.77
1019.407	1024.5
1019.574	641.53
1019.741	510.46
1019.907	1092.08
1020.074	1219.05
1020.241	494.07
1020.407	614.9
1020.574	911.86
1020.74	1053.17
1020.907	653.81
1021.073	553.46
1021.24	1503.72
1021.406	1327.6
1021.573	598.52
1021.739	692.73
1021.906	1130.99
1022.072	938.48
1022.239	635.38
1022.405	645.62
1022.571	985.58
1022.738	848.37
1022.904	551.42
1023.07	647.67
1023.237	1032.69
1023.403	1120.75
1023.569	477.69
1023.735	629.24
1023.902	901.62
1024.068	1075.7
1024.234	467.45
1024.4	496.12
1024.566	1004.02
1024.732	1030.64
1024.898	586.23
1025.065	403.96
1025.231	1083.89
1025.397	831.99
1025.563	520.7
1025.729	381.43
1025.895	457.21
1026.061	662.01
1026.227	363
1026.392	532.98
1026.558	1102.32
1026.724	971.25
1026.89	414.2
1027.056	610.81
1027.222	905.71
1027.388	754.16
1027.553	498.17
1027.719	475.64
1027.885	1307.12
1028.051	958.96
1028.216	320
1028.382	508.41
1028.548	975.35
1028.713	799.22
1028.879	363
1029.045	647.67
1029.21	1217.01
1029.376	1133.04
1029.541	571.9
1029.707	471.54
1029.873	852.47
1030.038	1028.59
1030.204	498.17
1030.369	535.03
1030.534	1001.97
1030.7	664.05
1030.865	489.98
1031.031	385.53
1031.196	897.52
1031.361	811.51
1031.527	301.56
1031.692	365.05
1031.857	336.38
1032.023	913.91
1032.188	344.57
1032.353	477.69
1032.518	1151.47
1032.684	860.66
1032.849	219.64
1033.014	408.06
1033.179	999.92
1033.344	856.56
1033.509	483.83
1033.674	440.83
1033.839	864.75
1034.004	995.82
1034.17	446.97
1034.335	254.46
1034.5	612.85
1034.664	717.3
1034.829	311.8
1034.994	410.11
1035.159	784.88
1035.324	815.6
1035.489	385.53
1035.654	336.38
1035.819	1030.64
1035.984	750.07
1036.148	383.48
1036.313	383.48
1036.478	934.39
1036.643	729.59
1036.807	313.85
1036.972	315.9
1037.137	1036.78
1037.301	756.21
1037.466	231.93
1037.631	367.1
1037.795	975.35
1037.96	801.27
1038.124	498.17
1038.289	197.12
1038.454	903.67
1038.618	829.94
1038.783	274.94
1038.947	498.17
1039.111	709.11
1039.276	573.94
1039.44	330.23
1039.605	788.98
1039.769	584.18
1039.933	651.77
1040.098	344.57
1040.262	604.66
1040.426	909.81
1040.591	793.08
1040.755	332.28
1040.919	369.15
1041.083	752.12
1041.248	604.66
1041.412	100.86
1041.576	217.6
1041.74	590.33
1041.904	834.04
1042.068	156.16
1042.232	317.95
1042.397	799.22
1042.561	741.88
1042.725	127.49
1042.889	430.59
1043.053	846.32
1043.217	725.49
1043.381	309.76
1043.544	184.83
1043.708	840.18
1043.872	442.87
1044.036	53.76
1044.2	125.44
1044.364	958.96
1044.528	928.24
1044.691	3197.39
1044.855	201.21
1045.019	850.42
1045.183	760.31
1045.346	332.28
1045.51	121.34
1045.674	709.11
1045.837	770.55
1046.001	250.36
1046.165	113.15
1046.328	1135.09
1046.492	754.16
1046.655	446.97
1046.819	297.47
1046.983	410.11
1047.146	653.81
1047.31	322.04
1047.473	94.72
1047.636	657.91
1047.8	393.72
1047.963	324.09
1048.127	170.49
1048.29	494.07
