Data from Ink_Intensity_USB4F045381__49__00049.txt Node

Date: Mon Jul 17 10:13:16 EDT 2023
User: mmckonesweet
Spectrometer: USB4F04538
Trigger mode: 4
Integration Time (sec): 9.000000E-1
Scans to average: 1
Electric dark correction enabled: true
Nonlinearity correction enabled: false
Boxcar width: 0
XAxis mode: Wavelengths
Number of Pixels in Spectrum: 3648
>>>>>Begin Spectral Data<<<<<
345.52	-904.86
345.736	-904.86
345.952	-904.86
346.168	-988.83
346.384	-954.01
346.6	-167.59
346.816	-210.6
347.032	-247.46
347.248	237.91
347.464	-245.41
347.68	-32.43
347.896	80.21
348.112	436.56
348.328	-77.48
348.544	-87.72
348.76	10.58
348.975	303.44
349.191	-196.26
349.407	-188.07
349.623	26.96
349.839	-114.34
350.055	-202.41
350.27	76.12
350.486	176.47
350.702	321.87
350.918	166.23
351.133	-169.64
351.349	162.13
351.565	444.75
351.781	-214.7
351.996	-20.14
352.212	231.76
352.428	-95.91
352.644	-147.11
352.859	-265.89
353.075	192.85
353.291	-1.71
353.506	-128.68
353.722	-210.6
353.938	-104.11
354.153	416.08
354.369	172.37
354.584	-190.12
354.8	194.9
355.016	-358.05
355.231	-251.56
355.447	-104.11
355.662	137.56
355.878	897.35
356.093	-263.85
356.309	14.68
356.524	-247.46
356.74	184.66
356.955	-216.74
357.171	-22.19
357.386	141.65
357.602	-249.51
357.817	-177.83
358.033	-196.26
358.248	395.6
358.464	239.95
358.679	-120.49
358.895	-325.29
359.11	-118.44
359.325	291.15
359.541	63.83
359.756	-24.23
359.972	-302.76
360.187	174.42
360.402	-202.41
360.618	-188.07
360.833	862.54
361.048	141.65
361.264	-167.59
361.479	-85.67
361.694	-67.24
361.909	231.76
362.125	-339.62
362.34	-108.2
362.555	184.66
362.77	20.82
362.986	-323.24
363.201	-167.59
363.416	170.32
363.631	-32.43
363.847	-218.79
364.062	-52.91
364.277	47.44
364.492	22.87
364.707	-173.74
364.922	-417.44
365.138	235.86
365.353	346.45
365.568	-181.93
365.783	-200.36
365.998	2.39
366.213	579.92
366.428	-241.32
366.643	49.49
366.858	268.63
367.073	153.94
367.288	-204.46
367.503	-196.26
367.718	20.82
367.933	262.48
368.148	-358.05
368.363	-3.75
368.578	43.35
368.793	405.84
369.008	-143.02
369.223	-216.74
369.438	209.23
369.653	332.11
369.868	-288.42
370.083	-317.09
370.298	10.58
370.513	409.94
370.728	16.73
370.943	-210.6
371.157	-229.03
371.372	489.81
371.587	-249.51
371.802	-325.29
372.017	-1.71
372.232	428.37
372.446	24.92
372.661	-284.33
372.876	86.36
373.091	168.27
373.306	-97.96
373.52	-267.94
373.735	-257.7
373.95	407.89
374.165	-122.54
374.379	-171.69
374.594	-204.46
374.809	123.22
375.023	-26.28
375.238	-198.31
375.453	221.52
375.667	-251.56
375.882	-87.72
376.097	-208.55
376.311	-48.81
376.526	-24.23
376.741	-353.96
376.955	141.65
377.17	584.01
377.384	541.01
377.599	-38.57
377.813	-286.37
378.028	543.05
378.242	184.66
378.457	-126.63
378.672	-423.59
378.886	88.4
379.101	4.44
379.315	-378.53
379.53	-169.64
379.744	192.85
379.958	203.09
380.173	-173.74
380.387	-206.5
380.602	98.64
380.816	-69.29
381.031	-91.82
381.245	-183.98
381.459	182.61
381.674	2617.65
381.888	-247.46
382.103	63.83
382.317	-165.54
382.531	436.56
382.746	-75.43
382.96	-198.31
383.174	-79.53
383.388	418.13
383.603	6.49
383.817	-265.89
384.031	104.79
384.246	479.57
384.46	-16.04
384.674	334.16
384.888	-30.38
385.103	16.73
385.317	-243.37
385.531	-20.14
385.745	219.47
385.959	299.34
386.174	-155.3
386.388	-284.33
386.602	-50.86
386.816	-136.87
387.03	-9.9
387.244	-130.73
387.458	35.16
387.672	342.35
387.887	-405.16
388.101	-226.98
388.315	291.15
388.529	108.88
388.743	-163.5
388.957	-186.02
389.171	297.3
389.385	-200.36
389.599	-222.89
389.813	-28.33
390.027	115.03
390.241	579.92
390.455	-106.15
390.669	-140.97
390.883	-100.01
391.097	285.01
391.311	29.01
391.525	-196.26
391.738	106.84
391.952	133.46
392.166	-75.43
392.38	-286.37
392.594	244.05
392.808	291.15
393.022	-63.15
393.236	-126.63
393.449	155.99
393.663	172.37
393.877	-321.19
394.091	-44.71
394.305	-149.16
394.518	-167.59
394.732	-245.41
394.946	-173.74
395.16	465.23
395.373	39.25
395.587	-245.41
395.801	-177.83
396.015	307.54
396.228	123.22
396.442	-229.03
396.656	-353.96
396.869	338.26
397.083	407.89
397.297	-59.05
397.51	-128.68
397.724	350.54
397.938	92.5
398.151	-345.77
398.365	-304.81
398.578	90.45
398.792	362.83
399.005	4.44
399.219	-153.26
399.433	96.6
399.646	145.75
399.86	88.4
400.073	-95.91
400.287	133.46
400.5	-20.14
400.714	-44.71
400.927	-73.39
401.141	182.61
401.354	1104.2
401.567	162.13
401.781	-323.24
401.994	248.15
402.208	588.11
402.421	-95.91
402.635	-118.44
402.848	45.4
403.061	297.3
403.275	-24.23
403.488	-229.03
403.701	424.27
403.915	256.34
404.128	2.39
404.341	-257.7
404.555	162.13
404.768	-30.38
404.981	18.77
405.195	-143.02
405.408	485.71
405.621	86.36
405.834	-16.04
406.048	-202.41
406.261	385.36
406.474	457.04
406.687	-202.41
406.9	-30.38
407.114	-18.09
407.327	31.06
407.54	-345.77
407.753	-284.33
407.966	-157.35
408.179	182.61
408.392	-239.27
408.605	-358.05
408.819	198.99
409.032	143.7
409.245	-229.03
409.458	-57
409.671	229.71
409.884	237.91
410.097	-292.52
410.31	-5.8
410.523	108.88
410.736	-63.15
410.949	-192.17
411.162	-155.3
411.375	330.06
411.588	233.81
411.801	14.68
412.014	-294.57
412.227	-22.19
412.44	-130.73
412.653	-126.63
412.865	-24.23
413.078	198.99
413.291	170.32
413.504	-79.53
413.717	-120.49
413.93	227.67
414.143	-188.07
414.356	-120.49
414.568	-370.34
414.781	186.71
414.994	104.79
415.207	-67.24
415.42	-52.91
415.632	194.9
415.845	532.81
416.058	-272.04
416.271	-292.52
416.483	-52.91
416.696	495.95
416.909	-151.21
417.121	-296.61
417.334	108.88
417.547	487.76
417.759	-257.7
417.972	-235.18
418.185	-63.15
418.397	221.52
418.61	-235.18
418.823	-255.65
419.035	436.56
419.248	-34.47
419.46	-153.26
419.673	-75.43
419.885	166.23
420.098	-26.28
420.311	-282.28
420.523	-433.83
420.736	162.13
420.948	37.2
421.161	-186.02
421.373	-353.96
421.586	61.78
421.798	-280.23
422.01	-353.96
422.223	-59.05
422.435	-46.76
422.648	250.19
422.86	-126.63
423.073	-124.58
423.285	266.58
423.497	-245.41
423.71	-226.98
423.922	-212.65
424.134	80.21
424.347	385.36
424.559	-1.71
424.771	37.2
424.984	-24.23
425.196	205.14
425.408	-294.57
425.621	-251.56
425.833	368.98
426.045	233.81
426.257	-349.86
426.47	-224.94
426.682	51.54
426.894	125.27
427.106	-120.49
427.318	-153.26
427.531	-102.06
427.743	96.6
427.955	-229.03
428.167	293.2
428.379	131.41
428.591	26.96
428.804	-161.45
429.016	-255.65
429.228	-118.44
429.44	174.42
429.652	-18.09
429.864	-321.19
430.076	8.53
430.288	4.44
430.5	-116.39
430.712	-163.5
430.924	239.95
431.136	90.45
431.348	-450.21
431.56	-177.83
431.772	45.4
431.984	-136.87
432.196	-286.37
432.408	-108.2
432.62	-26.28
432.832	170.32
433.044	39.25
433.256	-59.05
433.468	190.8
433.679	-325.29
433.891	-294.57
434.103	80.21
434.315	325.97
434.527	74.07
434.739	-81.58
434.95	-198.31
435.162	268.63
435.374	-108.2
435.586	-153.26
435.798	-247.46
436.009	-296.61
436.221	-46.76
436.433	-122.54
436.645	-128.68
436.856	-65.19
437.068	330.06
437.28	-226.98
437.491	-24.23
437.703	112.98
437.915	102.74
438.126	-114.34
438.338	67.92
438.55	-40.62
438.761	188.75
438.973	-233.13
439.184	-81.58
439.396	-22.19
439.608	237.91
439.819	-282.28
440.031	-34.47
440.242	186.71
440.454	141.65
440.665	-188.07
440.877	-57
441.088	100.69
441.3	-5.8
441.511	-386.72
441.723	-255.65
441.934	141.65
442.146	-32.43
442.357	2.39
442.569	76.12
442.78	24.92
442.991	442.7
443.203	121.17
443.414	-276.13
443.626	344.4
443.837	-179.88
444.048	-222.89
444.26	-321.19
444.471	80.21
444.682	268.63
444.894	-388.77
445.105	-370.34
445.316	149.84
445.528	149.84
445.739	-95.91
445.95	-183.98
446.161	31.06
446.373	184.66
446.584	-110.25
446.795	-186.02
447.006	121.17
447.217	352.59
447.429	-335.53
447.64	-237.22
447.851	354.64
448.062	-46.76
448.273	-407.2
448.484	-259.75
448.695	219.47
448.907	-71.34
449.118	-65.19
449.329	61.78
449.54	-100.01
449.751	-267.94
449.962	-222.89
450.173	-128.68
450.384	248.15
450.595	317.78
450.806	-231.08
451.017	-192.17
451.228	348.5
451.439	104.79
451.65	-145.06
451.861	-407.2
452.072	-196.26
452.283	33.11
452.494	-18.09
452.705	-276.13
452.915	354.64
453.126	211.28
453.337	-237.22
453.548	-206.5
453.759	235.86
453.97	504.14
454.181	12.63
454.391	-241.32
454.602	14.68
454.813	94.55
455.024	-100.01
455.235	-222.89
455.445	39.25
455.656	147.8
455.867	45.4
456.078	-151.21
456.288	-42.67
456.499	49.49
456.71	-288.42
456.921	63.83
457.131	65.88
457.342	31.06
457.553	-132.78
457.763	-186.02
457.974	215.38
458.184	166.23
458.395	-235.18
458.606	-286.37
458.816	231.76
459.027	446.8
459.237	-63.15
459.448	-370.34
459.659	321.87
459.869	645.45
460.08	-396.96
460.29	-38.57
460.501	547.15
460.711	-102.06
460.922	-304.81
461.132	-251.56
461.343	657.74
461.553	-226.98
461.764	-253.61
461.974	-237.22
462.184	217.43
462.395	184.66
462.605	-155.3
462.816	-231.08
463.026	145.75
463.236	358.74
463.447	-239.27
463.657	-249.51
463.867	233.81
464.078	-57
464.288	-128.68
464.498	-159.4
464.709	61.78
464.919	31.06
465.129	-130.73
465.339	-321.19
465.55	164.18
465.76	307.54
465.97	-198.31
466.18	-190.12
466.391	321.87
466.601	123.22
466.811	-198.31
467.021	-282.28
467.231	188.75
467.441	401.74
467.651	-188.07
467.862	-472.74
468.072	-9.9
468.282	332.11
468.492	-216.74
468.702	-220.84
468.912	8.53
469.122	579.92
469.332	162.13
469.542	-229.03
469.752	227.67
469.962	24.92
470.172	-272.04
470.382	-269.99
470.592	260.43
470.802	305.49
471.012	-16.04
471.222	-245.41
471.432	254.29
471.642	227.67
471.852	-85.67
472.062	-208.55
472.272	20.82
472.482	-286.37
472.691	-325.29
472.901	-349.86
473.111	182.61
473.321	573.77
473.531	-331.43
473.741	-34.47
473.95	149.84
474.16	166.23
474.37	-126.63
474.58	-351.91
474.79	479.57
474.999	268.63
475.209	-237.22
475.419	-188.07
475.628	-36.52
475.838	303.44
476.048	-192.17
476.258	-386.72
476.467	297.3
476.677	-73.39
476.886	-9.9
477.096	-194.22
477.306	-147.11
477.515	383.31
477.725	-118.44
477.935	-91.82
478.144	338.26
478.354	-83.63
478.563	-226.98
478.773	-157.35
478.982	203.09
479.192	307.54
479.401	-181.93
479.611	-288.42
479.82	-112.3
480.03	133.46
480.239	-226.98
480.449	-296.61
480.658	424.27
480.868	-151.21
481.077	-89.77
481.287	-188.07
481.496	162.13
481.705	426.32
481.915	129.36
482.124	162.13
482.333	84.31
482.543	375.12
482.752	-161.45
482.961	-175.78
483.171	237.91
483.38	16.73
483.589	-229.03
483.799	-218.79
484.008	67.92
484.217	303.44
484.426	-173.74
484.636	-229.03
484.845	22.87
485.054	-147.11
485.263	6.49
485.472	-77.48
485.682	457.04
485.891	45.4
486.1	-384.68
486.309	-186.02
486.518	182.61
486.727	418.13
486.936	-212.65
487.146	14.68
487.355	471.37
487.564	-173.74
487.773	-190.12
487.982	-200.36
488.191	-81.58
488.4	137.56
488.609	-122.54
488.818	-165.54
489.027	657.74
489.236	405.84
489.445	-124.58
489.654	-231.08
489.863	285.01
490.072	92.5
490.281	108.88
490.49	-83.63
490.698	518.48
490.907	414.03
491.116	-206.5
491.325	-356.01
491.534	407.89
491.743	131.41
491.952	-67.24
492.16	-83.63
492.369	155.99
492.578	250.19
492.787	-71.34
492.996	-284.33
493.204	-67.24
493.413	545.1
493.622	-360.1
493.831	-290.47
494.039	512.33
494.248	-210.6
494.457	-210.6
494.665	-216.74
494.874	303.44
495.083	608.59
495.291	-114.34
495.5	-169.64
495.709	362.83
495.917	268.63
496.126	-40.62
496.335	-222.89
496.543	-26.28
496.752	198.99
496.96	76.12
497.169	-345.77
497.377	133.46
497.586	407.89
497.794	-71.34
498.003	-292.52
498.211	72.02
498.42	504.14
498.628	-59.05
498.837	-151.21
499.045	256.34
499.254	217.43
499.462	-181.93
499.671	-210.6
499.879	436.56
500.087	278.87
500.296	-83.63
500.504	-91.82
500.713	244.05
500.921	692.55
501.129	-122.54
501.338	-77.48
501.546	260.43
501.754	168.27
501.962	-61.1
502.171	-177.83
502.379	237.91
502.587	600.4
502.795	-132.78
503.004	-110.25
503.212	84.31
503.42	420.17
503.628	-157.35
503.837	61.78
504.045	407.89
504.253	627.02
504.461	-136.87
504.669	-241.32
504.877	321.87
505.085	536.91
505.294	-278.18
505.502	74.07
505.71	192.85
505.918	342.35
506.126	-186.02
506.334	-136.87
506.542	133.46
506.75	131.41
506.958	39.25
507.166	-28.33
507.374	-42.67
507.582	627.02
507.79	-79.53
507.998	-85.67
508.206	274.77
508.414	242
508.622	-147.11
508.83	-52.91
509.037	495.95
509.245	151.89
509.453	-149.16
509.661	-231.08
509.869	325.97
510.077	104.79
510.285	-71.34
510.492	-349.86
510.7	827.72
510.908	43.35
511.116	-11.95
511.324	-136.87
511.531	72.02
511.739	158.03
511.947	186.71
512.155	280.91
512.362	168.27
512.57	-100.01
512.778	-167.59
512.985	-286.37
513.193	409.94
513.401	538.96
513.608	2.39
513.816	-81.58
514.024	373.07
514.231	481.61
514.439	-112.3
514.646	4.44
514.854	330.06
515.061	409.94
515.269	-38.57
515.477	-81.58
515.684	-59.05
515.892	418.13
516.099	-308.9
516.307	-204.46
516.514	379.22
516.722	518.48
516.929	-69.29
517.136	-126.63
517.344	489.81
517.551	328.02
517.759	-149.16
517.966	-114.34
518.173	102.74
518.381	174.42
518.588	35.16
518.796	-124.58
519.003	313.68
519.21	188.75
519.418	-26.28
519.625	264.53
519.832	213.33
520.039	272.72
520.247	-216.74
520.454	-85.67
520.661	434.51
520.868	328.02
521.076	-67.24
521.283	-81.58
521.49	774.47
521.697	276.82
521.904	-40.62
522.112	-75.43
522.319	397.65
522.526	366.93
522.733	-54.95
522.94	-124.58
523.147	231.76
523.354	428.37
523.561	-206.5
523.768	-54.95
523.975	506.19
524.183	334.16
524.39	35.16
524.597	-175.78
524.804	227.67
525.011	63.83
525.218	-118.44
525.425	-69.29
525.632	637.26
525.838	96.6
526.045	-77.48
526.252	-59.05
526.459	1265.99
526.666	1102.15
526.873	-124.58
527.08	18.77
527.287	684.36
527.494	385.36
527.701	-192.17
527.907	-204.46
528.114	344.4
528.321	223.57
528.528	35.16
528.735	-44.71
528.941	178.51
529.148	172.37
529.355	33.11
529.562	-85.67
529.768	776.52
529.975	268.63
530.182	-1.71
530.388	-44.71
530.595	450.89
530.802	14.68
531.008	158.03
531.215	-42.67
531.422	938.31
531.628	909.64
531.835	86.36
532.042	135.51
532.248	78.16
532.455	358.74
532.661	84.31
532.868	-16.04
533.074	317.78
533.281	522.57
533.487	31.06
533.694	-75.43
533.9	80.21
534.107	418.13
534.313	-34.47
534.52	-100.01
534.726	483.66
534.933	819.53
535.139	-16.04
535.345	-81.58
535.552	336.21
535.758	303.44
535.965	55.64
536.171	2.39
536.377	528.72
536.584	559.44
536.79	74.07
536.996	12.63
537.203	352.59
537.409	336.21
537.615	59.73
537.821	207.19
538.028	473.42
538.234	403.79
538.44	-16.04
538.646	102.74
538.853	407.89
539.059	295.25
539.265	407.89
539.471	-100.01
539.677	522.57
539.883	194.9
540.09	-16.04
540.296	502.09
540.502	338.26
540.708	170.32
540.914	266.58
541.12	22.87
541.326	383.31
541.532	270.67
541.738	215.38
541.944	172.37
542.15	506.19
542.356	293.2
542.562	35.16
542.768	53.59
542.974	938.31
543.18	817.48
543.386	14.68
543.592	-100.01
543.798	641.36
544.004	598.35
544.21	72.02
544.415	196.95
544.621	438.61
544.827	616.78
545.033	-40.62
545.239	323.92
545.445	63.83
545.651	352.59
545.856	72.02
546.062	26.96
546.268	215.38
546.474	325.97
546.679	172.37
546.885	125.27
547.091	227.67
547.297	846.15
547.502	158.03
547.708	-126.63
547.914	145.75
548.119	577.87
548.325	4.44
548.531	0.34
548.736	674.12
548.942	141.65
549.147	53.59
549.353	334.16
549.559	624.97
549.764	538.96
549.97	166.23
550.175	104.79
550.381	467.28
550.586	332.11
550.792	174.42
550.997	104.79
551.203	567.63
551.408	526.67
551.614	8.53
551.819	72.02
552.025	811.34
552.23	885.06
552.435	67.92
552.641	301.39
552.846	162.13
553.052	729.42
553.257	237.91
553.462	137.56
553.668	158.03
553.873	616.78
554.078	94.55
554.283	78.16
554.489	395.6
554.694	342.35
554.899	0.34
555.105	430.41
555.31	534.86
555.515	563.53
555.72	184.66
555.925	31.06
556.131	682.31
556.336	328.02
556.541	149.84
556.746	94.55
556.951	731.47
557.156	774.47
557.361	256.34
557.567	272.72
557.772	977.22
557.977	608.59
558.182	133.46
558.387	217.43
558.592	227.67
558.797	741.71
559.002	219.47
559.207	278.87
559.412	401.74
559.617	805.19
559.822	112.98
560.027	69.97
560.232	467.28
560.437	643.4
560.642	26.96
560.847	108.88
561.051	446.8
561.256	520.53
561.461	151.89
561.666	63.83
561.871	498
562.076	635.21
562.281	252.24
562.485	84.31
562.69	631.12
562.895	772.43
563.1	176.47
563.305	88.4
563.509	741.71
563.714	1012.04
563.919	121.17
564.123	115.03
564.328	487.76
564.533	743.75
564.737	309.58
564.942	160.08
565.147	846.15
565.351	954.69
565.556	227.67
565.761	219.47
565.965	584.01
566.17	356.69
566.374	205.14
566.579	94.55
566.784	543.05
566.988	317.78
567.193	125.27
567.397	201.04
567.602	194.9
567.806	436.56
568.011	215.38
568.215	215.38
568.42	354.64
568.624	444.75
568.828	293.2
569.033	344.4
569.237	645.45
569.442	612.68
569.646	55.64
569.85	297.3
570.055	422.22
570.259	616.78
570.463	405.84
570.668	252.24
570.872	526.67
571.076	500.05
571.281	399.7
571.485	377.17
571.689	461.13
571.893	698.7
572.098	448.85
572.302	258.39
572.506	596.3
572.71	524.62
572.914	307.54
573.119	248.15
573.323	885.06
573.527	887.11
573.731	285.01
573.935	145.75
574.139	639.31
574.343	391.5
574.547	311.63
574.751	344.4
574.955	870.73
575.159	768.33
575.364	229.71
575.568	147.8
575.772	557.39
575.976	874.82
576.18	344.4
576.383	106.84
576.587	827.72
576.791	633.16
576.995	69.97
577.199	76.12
577.403	813.38
577.607	844.1
577.811	100.69
578.015	375.12
578.219	639.31
578.422	749.9
578.626	407.89
578.83	442.7
579.034	852.3
579.238	653.64
579.442	272.72
579.645	686.41
579.849	624.97
580.053	661.84
580.257	438.61
580.46	303.44
580.664	766.28
580.868	690.51
581.071	493.9
581.275	500.05
581.479	346.45
581.682	690.51
581.886	176.47
582.09	502.09
582.293	860.49
582.497	897.35
582.7	545.1
582.904	321.87
583.107	667.98
583.311	553.29
583.515	448.85
583.718	364.88
583.922	657.74
584.125	1067.33
584.329	285.01
584.532	508.24
584.735	889.16
584.939	768.33
585.142	203.09
585.346	321.87
585.549	633.16
585.753	581.96
585.956	405.84
586.159	522.57
586.363	1020.23
586.566	809.29
586.769	385.36
586.973	235.86
587.176	766.28
587.379	899.4
587.582	696.65
587.786	584.01
587.989	674.12
588.192	1159.49
588.395	551.24
588.599	633.16
588.802	878.92
589.005	913.74
589.208	358.74
589.411	420.17
589.615	942.41
589.818	1089.86
590.021	653.64
590.224	573.77
590.427	962.89
590.63	858.44
590.833	282.96
591.036	346.45
591.239	674.12
591.442	551.24
591.645	563.53
591.848	520.53
592.051	737.61
592.254	844.1
592.457	477.52
592.66	512.33
592.863	749.9
593.066	811.34
593.269	426.32
593.472	608.59
593.675	547.15
593.878	932.17
594.081	600.4
594.284	325.97
594.486	907.59
594.689	768.33
594.892	604.49
595.095	581.96
595.298	788.81
595.5	719.18
595.703	543.05
595.906	565.58
596.109	1067.33
596.311	985.41
596.514	223.57
596.717	639.31
596.92	1026.37
597.122	817.48
597.325	225.62
597.528	444.75
597.73	1075.52
597.933	829.77
598.136	364.88
598.338	272.72
598.541	827.72
598.743	1022.28
598.946	522.57
599.148	598.35
599.351	1020.23
599.554	966.98
599.756	602.44
599.959	555.34
600.161	1001.8
600.363	1368.38
600.566	792.91
600.768	489.81
600.971	1130.82
601.173	962.89
601.376	551.24
601.578	565.58
601.78	883.02
601.983	1403.2
602.185	653.64
602.388	710.99
602.59	866.63
602.792	772.43
602.995	790.86
603.197	573.77
603.399	1050.95
603.601	1012.04
603.804	571.72
604.006	524.62
604.208	760.14
604.41	407.89
604.613	698.7
604.815	448.85
605.017	1415.49
605.219	725.32
605.421	956.74
605.623	557.39
605.826	1083.72
606.028	1167.68
606.23	504.14
606.432	586.06
606.634	1220.93
606.836	1259.84
607.038	510.29
607.24	756.04
607.442	1016.13
607.644	803.15
607.846	700.75
608.048	575.82
608.25	1147.2
608.452	698.7
608.654	672.08
608.856	330.06
609.058	860.49
609.26	985.41
609.462	698.7
609.664	633.16
609.866	1440.06
610.067	1071.43
610.269	797
610.471	680.27
610.673	780.62
610.875	1048.9
611.077	430.41
611.278	788.81
611.48	917.83
611.682	1407.3
611.884	682.31
612.085	745.8
612.287	743.75
612.489	977.22
612.69	547.15
612.892	706.89
613.094	1159.49
613.295	966.98
613.497	584.01
613.699	637.26
613.9	1204.55
614.102	1083.72
614.304	633.16
614.505	600.4
614.707	891.21
614.908	930.12
615.11	506.19
615.311	649.55
615.513	1016.13
615.714	1198.4
615.916	471.37
616.117	684.36
616.319	854.34
616.52	1055.05
616.722	598.35
616.923	598.35
617.124	1151.3
617.326	1108.29
617.527	835.91
617.729	991.56
617.93	1132.87
618.131	1134.92
618.333	708.94
618.534	706.89
618.735	829.77
618.937	1296.71
619.138	534.86
619.339	653.64
619.54	1046.85
619.742	868.68
619.943	801.1
620.144	647.5
620.345	1155.4
620.546	1282.37
620.748	604.49
620.949	645.45
621.15	915.78
621.351	1100.1
621.552	739.66
621.753	545.1
621.954	645.45
622.155	1288.51
622.356	602.44
622.558	772.43
622.759	1005.89
622.96	1468.73
623.161	776.52
623.362	686.41
623.563	973.13
623.764	1104.2
623.965	756.04
624.166	905.54
624.366	997.7
624.567	997.7
624.768	409.94
624.969	817.48
625.17	891.21
625.371	1134.92
625.572	831.82
625.773	696.65
625.973	1227.07
626.174	1179.97
626.375	790.86
626.576	782.67
626.777	1104.2
626.977	1493.31
627.178	799.05
627.379	942.41
627.58	952.65
627.78	1026.37
627.981	893.26
628.182	999.75
628.382	1329.47
628.583	674.12
628.784	704.84
628.984	899.4
629.185	1364.29
629.386	1311.04
629.586	819.53
629.787	729.42
629.987	1327.43
630.188	1073.48
630.388	825.67
630.589	893.26
630.79	1452.35
630.99	1151.3
631.191	946.5
631.391	848.2
631.591	1345.86
631.792	1497.41
631.992	973.13
632.193	913.74
632.393	1370.43
632.594	1057.09
632.794	792.91
632.994	923.98
633.195	1149.25
633.395	1132.87
633.595	792.91
633.796	1009.99
633.996	874.82
634.196	1438.02
634.397	577.87
634.597	921.93
634.797	848.2
634.997	1444.16
635.198	1034.57
635.398	682.31
635.598	1202.5
635.798	1511.74
635.998	1268.03
636.199	805.19
636.399	1122.63
636.599	905.54
636.799	807.24
636.999	1182.02
637.199	1212.74
637.399	1272.13
637.599	926.02
637.799	1040.71
637.999	1007.94
638.199	1456.45
638.399	819.53
638.599	848.2
638.799	1210.69
638.999	1677.63
639.199	1040.71
639.399	1055.05
639.599	1460.54
639.799	883.02
639.999	897.35
640.199	776.52
640.399	1087.81
640.599	1347.9
640.799	1032.52
640.998	1057.09
641.198	1433.92
641.398	1317.19
641.598	1059.14
641.798	932.17
641.997	2130.23
642.197	1167.68
642.397	1098.05
642.597	864.58
642.796	1259.84
642.996	1483.07
643.196	1102.15
643.395	825.67
643.595	1214.79
643.795	815.43
643.994	952.65
644.194	1014.09
644.394	1425.73
644.593	1382.72
644.793	784.71
644.992	1126.72
645.192	1403.2
645.392	909.64
645.591	1061.19
645.791	1020.23
645.99	1352
646.19	1202.5
646.389	1012.04
646.589	1071.43
646.788	1444.16
646.987	1403.2
647.187	1288.51
647.386	1169.73
647.586	1255.75
647.785	1538.37
647.984	1110.34
648.184	1098.05
648.383	1188.16
648.582	1071.43
648.782	1032.52
648.981	1145.16
649.18	969.03
649.38	1374.53
649.579	938.31
649.778	993.61
649.977	1358.14
650.177	1323.33
650.376	1024.33
650.575	1030.47
650.774	1739.07
650.973	1057.09
651.173	846.15
651.372	1167.68
651.571	1382.72
651.77	1452.35
651.969	917.83
652.168	1237.31
652.367	989.51
652.566	1237.31
652.765	981.32
652.964	1278.27
653.163	1800.51
653.362	1198.4
653.561	1087.81
653.76	1026.37
653.959	1280.32
654.158	1448.26
654.357	1321.28
654.556	1081.67
654.755	1349.95
654.954	1419.58
655.153	1061.19
655.352	1196.36
655.551	1638.72
655.749	1110.34
655.948	1216.83
656.147	1159.49
656.346	1435.97
656.545	1308.99
656.743	1075.52
656.942	1292.61
657.141	1454.4
657.34	1112.39
657.538	1225.03
657.737	1030.47
657.936	1227.07
658.135	1456.45
658.333	1096
658.532	1241.41
658.731	1771.83
658.929	1665.34
659.128	1413.44
659.326	1026.37
659.525	1702.2
659.724	1452.35
659.922	946.5
660.121	960.84
660.319	1446.21
660.518	1120.58
660.716	1159.49
660.915	1040.71
661.113	1653.05
661.312	1007.94
661.51	1161.54
661.709	1089.86
661.907	1685.82
662.105	1790.27
662.304	1257.79
662.502	1163.59
662.701	1700.16
662.899	1390.91
663.097	1540.41
663.296	997.7
663.494	1632.57
663.692	1728.83
663.891	1069.38
664.089	1032.52
664.287	1528.13
664.485	1800.51
664.684	1177.92
664.882	1272.13
665.08	1491.26
665.278	1423.68
665.476	989.51
665.675	1421.63
665.873	1861.94
666.071	1698.11
666.269	1145.16
666.467	1458.5
666.665	1442.11
666.863	1323.33
667.061	1425.73
667.259	1190.21
667.457	1372.48
667.655	1466.69
667.853	1128.77
668.051	1306.95
668.249	1282.37
668.447	1605.95
668.645	1077.57
668.843	1409.34
669.041	1552.7
669.239	1345.86
669.437	1317.19
669.635	1335.62
669.833	1415.49
670.031	1651
670.229	1347.9
670.426	1366.34
670.624	1341.76
670.822	1255.75
671.02	1196.36
671.218	1325.38
671.415	1302.85
671.613	1366.34
671.811	1202.5
672.009	1272.13
672.206	1646.91
672.404	1491.26
672.602	1392.96
672.799	1374.53
672.997	1550.65
673.195	1691.96
673.392	1333.57
673.59	1126.72
673.788	1608
673.985	1046.85
674.183	1288.51
674.38	1233.22
674.578	1694.01
674.775	1253.7
674.973	1085.76
675.17	1050.95
675.368	1820.99
675.565	1569.09
675.763	1212.74
675.96	1155.4
676.158	1773.88
676.355	1399.1
676.553	1220.93
676.75	1263.94
676.947	1466.69
677.145	1413.44
677.342	1255.75
677.539	1339.71
677.737	1505.6
677.934	1993.01
678.131	1431.87
678.329	1313.09
678.526	1845.56
678.723	1679.68
678.92	1440.06
679.118	1222.98
679.315	1227.07
679.512	1814.84
679.709	1247.55
679.906	1374.53
680.104	1622.33
680.301	1704.25
680.498	1206.59
680.695	1278.27
680.892	1304.9
681.089	1376.58
681.286	1390.91
681.483	1157.44
681.68	1714.49
681.877	1773.88
682.075	1347.9
682.272	1513.79
682.469	1511.74
682.665	1577.28
682.862	1188.16
683.059	1016.13
683.256	1550.65
683.453	1622.33
683.65	1376.58
683.847	1333.57
684.044	1552.7
684.241	1388.86
684.438	1485.12
684.635	1259.84
684.831	1958.2
685.028	2113.85
685.225	1292.61
685.422	1374.53
685.619	1526.08
685.815	1542.46
686.012	1454.4
686.209	1397.06
686.405	1282.37
686.602	1829.18
686.799	1167.68
686.996	1286.47
687.192	1268.03
687.389	1919.29
687.586	1245.51
687.782	1333.57
687.979	1859.9
688.175	1728.83
688.372	1347.9
688.568	1401.15
688.765	1450.3
688.962	1921.34
689.158	1411.39
689.355	1194.31
689.551	1642.81
689.748	1444.16
689.944	1384.77
690.14	1114.44
690.337	1786.17
690.533	1390.91
690.73	1710.4
690.926	1472.83
691.123	1677.63
691.319	1499.45
691.515	1214.79
691.712	1499.45
691.908	1669.44
692.104	1675.58
692.301	1438.02
692.497	1257.79
692.693	1808.7
692.889	1790.27
693.086	1440.06
693.282	1177.92
693.478	1538.37
693.674	1962.3
693.87	1255.75
694.067	1186.12
694.263	1562.94
694.459	1460.54
694.655	1528.13
694.851	1538.37
695.047	1661.24
695.243	1767.74
695.439	1511.74
695.635	1296.71
695.831	1792.31
696.027	1624.38
696.224	1272.13
696.42	1702.2
696.615	1909.05
696.811	1653.05
697.007	1272.13
697.203	1364.29
697.399	1560.89
697.595	1868.09
697.791	1347.9
697.987	1515.84
698.183	1321.28
698.379	1468.73
698.575	1368.38
698.77	1321.28
698.966	1820.99
699.162	1863.99
699.358	1448.26
699.554	1403.2
699.749	1718.59
699.945	1890.62
700.141	1415.49
700.337	1513.79
700.532	1624.38
700.728	1331.52
700.924	1290.56
701.119	1325.38
701.315	1782.07
701.511	1667.39
701.706	1597.76
701.902	1225.03
702.097	1704.25
702.293	1691.96
702.489	1417.54
702.684	1364.29
702.88	1489.21
703.075	1507.65
703.271	1454.4
703.466	1233.22
703.662	1745.21
703.857	1810.75
704.053	1358.14
704.248	1397.06
704.443	1855.8
704.639	1747.26
704.834	1462.59
705.03	1331.52
705.225	1757.5
705.42	1911.1
705.616	1608
705.811	1308.99
706.006	1517.89
706.202	1440.06
706.397	1546.56
706.592	1382.72
706.787	1612.09
706.983	1642.81
707.178	1681.72
707.373	1499.45
707.568	1759.55
707.763	1921.34
707.959	1288.51
708.154	1245.51
708.349	1769.79
708.544	1653.05
708.739	1724.73
708.934	1343.81
709.129	1702.2
709.324	1839.42
709.519	1270.08
709.714	1360.19
709.909	1968.44
710.104	1605.95
710.299	1337.66
710.494	1489.21
710.689	1878.33
710.884	1624.38
711.079	1489.21
711.274	1630.52
711.469	1755.45
711.664	1775.93
711.859	1222.98
712.054	1558.85
712.249	1759.55
712.443	1935.67
712.638	1306.95
712.833	1374.53
713.028	1644.86
713.223	1708.35
713.417	1558.85
713.612	1413.44
713.807	1851.71
714.002	2335.03
714.196	1634.62
714.391	1382.72
714.586	1831.23
714.78	1646.91
714.975	1425.73
715.17	1411.39
715.364	1595.71
715.559	1907
715.754	1075.52
715.948	1397.06
716.143	2025.78
716.337	1759.55
716.532	1782.07
716.726	1274.18
716.921	1874.23
717.115	2193.72
717.31	1292.61
717.504	1874.23
717.699	1466.69
717.893	1825.08
718.088	1407.3
718.282	1380.67
718.476	1755.45
718.671	1737.02
718.865	1327.43
719.059	1366.34
719.254	1595.71
719.448	1980.73
719.642	2740.52
719.837	1163.59
720.031	1990.97
720.225	1974.58
720.419	1595.71
720.614	1374.53
720.808	1853.75
721.002	1626.43
721.196	1411.39
721.39	1415.49
721.585	1974.58
721.779	1769.79
721.973	1386.82
722.167	1345.86
722.361	1773.88
722.555	1876.28
722.749	1497.41
722.943	1321.28
723.137	1431.87
723.331	1866.04
723.525	1466.69
723.719	1454.4
723.913	1841.47
724.107	1980.73
724.301	1435.97
724.495	1538.37
724.689	2146.61
724.883	1913.14
725.077	1378.62
725.271	1589.57
725.465	1827.13
725.659	1593.66
725.853	1542.46
726.046	1288.51
726.24	1542.46
726.434	1812.79
726.628	1499.45
726.822	1550.65
727.015	2017.59
727.209	2001.21
727.403	1450.3
727.596	1202.5
727.79	1978.68
727.984	1943.86
728.177	1470.78
728.371	1562.94
728.565	1964.34
728.758	1419.58
728.952	1542.46
729.146	1544.51
729.339	1982.78
729.533	1612.09
729.726	1468.73
729.92	1329.47
730.113	2056.5
730.307	1773.88
730.5	1487.17
730.694	1521.98
730.887	1554.75
731.081	1841.47
731.274	1423.68
731.468	1519.93
731.661	1806.65
731.854	1556.8
732.048	1485.12
732.241	1397.06
732.435	1603.9
732.628	1806.65
732.821	1524.03
733.014	1489.21
733.208	1493.31
733.401	1796.41
733.594	1538.37
733.788	1390.91
733.981	2025.78
734.174	1874.23
734.367	1409.34
734.56	1509.69
734.754	1943.86
734.947	1706.3
735.14	1544.51
735.333	1685.82
735.526	1888.57
735.719	1677.63
735.912	1450.3
736.105	1489.21
736.298	1599.8
736.491	1755.45
736.684	1474.88
736.877	1438.02
737.07	1870.14
737.263	1956.15
737.456	1308.99
737.649	1397.06
737.842	1558.85
738.035	1726.78
738.228	1550.65
738.421	1679.68
738.614	2042.17
738.807	1986.87
739	1411.39
739.192	1433.92
739.385	1872.18
739.578	1790.27
739.771	1741.11
739.964	1478.97
740.156	1763.64
740.349	1706.3
740.542	1646.91
740.735	1341.76
740.927	1386.82
741.12	1509.69
741.313	1423.68
741.505	1595.71
741.698	1902.9
741.891	1765.69
742.083	1603.9
742.276	1487.17
742.468	1661.24
742.661	1589.57
742.854	1577.28
743.046	1521.98
743.239	2246.96
743.431	1730.87
743.624	1495.36
743.816	1272.13
744.009	1757.5
744.201	1841.47
744.393	1669.44
744.586	1521.98
744.778	2074.93
744.971	1810.75
745.163	1689.92
745.355	1632.57
745.548	1853.75
745.74	1700.16
745.932	1581.37
746.125	1534.27
746.317	2226.48
746.509	1751.35
746.702	1540.41
746.894	1587.52
747.086	1833.27
747.278	1950.01
747.471	1706.3
747.663	1630.52
747.855	1759.55
748.047	2177.33
748.239	1429.82
748.431	1544.51
748.623	2099.51
748.815	2177.33
749.008	1454.4
749.2	1532.22
749.392	1952.06
749.584	1939.77
749.776	1564.99
749.968	1554.75
750.16	2314.55
750.352	1716.54
750.544	1521.98
750.736	1413.44
750.928	1980.73
751.12	1870.14
751.311	1550.65
751.503	1591.61
751.695	1935.67
751.887	1714.49
752.079	1485.12
752.271	1517.89
752.463	2464.05
752.654	1909.05
752.846	1587.52
753.038	1481.02
753.23	1718.59
753.421	1868.09
753.613	1646.91
753.805	1671.48
753.997	2013.49
754.188	1986.87
754.38	1460.54
754.572	1521.98
754.763	1671.48
754.955	1972.54
755.146	1546.56
755.338	1651
755.53	1886.52
755.721	1653.05
755.913	1392.96
756.104	1487.17
756.296	1749.31
756.487	1954.1
756.679	1395.01
756.87	1513.79
757.062	1620.28
757.253	1863.99
757.445	1399.1
757.636	1782.07
757.827	1698.11
758.019	2351.41
758.21	1472.83
758.401	1542.46
758.593	2181.43
758.784	2185.52
758.975	1366.34
759.167	1401.15
759.358	1837.37
759.549	1968.44
759.74	1552.7
759.932	1466.69
760.123	2050.36
760.314	1616.19
760.505	1734.97
760.696	1503.55
760.888	2214.2
761.079	1591.61
761.27	1409.34
761.461	1296.71
761.652	2095.41
761.843	1630.52
762.034	1395.01
762.225	1765.69
762.416	1679.68
762.607	1734.97
762.798	1530.17
762.989	1345.86
763.18	2494.77
763.371	1601.85
763.562	1585.47
763.753	1538.37
763.944	2046.26
764.135	1993.01
764.326	1634.62
764.517	1507.65
764.708	1761.59
764.899	1960.25
765.089	1456.45
765.28	1286.47
765.471	1751.35
765.662	1851.71
765.853	1462.59
766.043	1401.15
766.234	1874.23
766.425	1886.52
766.615	1558.85
766.806	1337.66
766.997	2013.49
767.187	1751.35
767.378	1509.69
767.569	1298.75
767.759	1802.55
767.95	1780.03
768.141	1816.89
768.331	1456.45
768.522	1704.25
768.712	1993.01
768.903	1452.35
769.093	1458.5
769.284	2128.18
769.474	1798.46
769.665	1227.07
769.855	1247.55
770.046	1810.75
770.236	1644.86
770.426	1560.89
770.617	1524.03
770.807	1831.23
770.998	1712.44
771.188	1601.85
771.378	1450.3
771.569	1808.7
771.759	1761.59
771.949	1368.38
772.139	1210.69
772.33	1788.22
772.52	1947.96
772.71	1444.16
772.9	1337.66
773.09	2021.69
773.281	2029.88
773.471	1358.14
773.661	1435.97
773.851	1960.25
774.041	1556.8
774.231	1395.01
774.421	1554.75
774.611	2050.36
774.802	1667.39
774.992	1526.08
775.182	1268.03
775.372	1696.06
775.562	1759.55
775.752	1509.69
775.942	1417.54
776.131	1958.2
776.321	1866.04
776.511	1476.93
776.701	1440.06
776.891	2003.25
777.081	1505.6
777.271	1423.68
777.461	1325.38
777.651	1941.82
777.84	1993.01
778.03	1585.47
778.22	1452.35
778.41	1976.63
778.599	1433.92
778.789	1532.22
778.979	1409.34
779.169	1751.35
779.358	1759.55
779.548	1648.96
779.738	1278.27
779.927	1728.83
780.117	1425.73
780.307	1403.2
780.496	1290.56
780.686	1751.35
780.875	2079.03
781.065	1390.91
781.254	1366.34
781.444	1591.61
781.633	1622.33
781.823	1390.91
782.012	1395.01
782.202	1513.79
782.391	1591.61
782.581	1270.08
782.77	1544.51
782.96	1892.66
783.149	1571.13
783.338	1290.56
783.528	1186.12
783.717	1935.67
783.906	1870.14
784.096	1483.07
784.285	1376.58
784.474	1653.05
784.663	1530.17
784.853	1489.21
785.042	1397.06
785.231	1481.02
785.42	1859.9
785.61	1509.69
785.799	1251.65
785.988	1435.97
786.177	1644.86
786.366	1407.3
786.555	1595.71
786.744	1896.76
786.933	1683.77
787.122	1358.14
787.312	1308.99
787.501	1454.4
787.69	1763.64
787.879	1263.94
788.068	1481.02
788.257	1370.43
788.445	1517.89
788.634	1450.3
788.823	1272.13
789.012	2242.87
789.201	1931.58
789.39	1530.17
789.579	1401.15
789.768	1786.17
789.957	1653.05
790.145	1415.49
790.334	1194.31
790.523	1665.34
790.712	1636.67
790.9	1526.08
791.089	1231.17
791.278	1964.34
791.467	1691.96
791.655	1673.53
791.844	1902.9
792.033	1476.93
792.221	1562.94
792.41	1489.21
792.599	1188.16
792.787	1706.3
792.976	1794.36
793.164	1233.22
793.353	1517.89
793.541	1755.45
793.73	1698.11
793.918	1401.15
794.107	1409.34
794.295	1569.09
794.484	1538.37
794.672	1450.3
794.861	1237.31
795.049	1773.88
795.238	1964.34
795.426	1218.88
795.614	1370.43
795.803	1780.03
795.991	1964.34
796.179	1444.16
796.368	1401.15
796.556	1978.68
796.744	1360.19
796.932	1245.51
797.121	1325.38
797.309	1552.7
797.497	1810.75
797.685	1470.78
797.874	1388.86
798.062	1521.98
798.25	1945.91
798.438	1259.84
798.626	1257.79
798.814	1679.68
799.002	2050.36
799.19	1534.27
799.378	1413.44
799.566	1820.99
799.755	2040.12
799.943	1665.34
800.131	1417.54
800.318	1706.3
800.506	1562.94
800.694	1411.39
800.882	1552.7
801.07	1843.51
801.258	1593.66
801.446	1399.1
801.634	1423.68
801.822	1648.96
802.01	1618.24
802.197	1345.86
802.385	1499.45
802.573	1706.3
802.761	1421.63
802.949	1487.17
803.136	1200.45
803.324	1859.9
803.512	1714.49
803.699	1444.16
803.887	1278.27
804.075	1902.9
804.262	1573.18
804.45	1243.46
804.638	1440.06
804.825	1384.77
805.013	1497.41
805.201	1429.82
805.388	1358.14
805.576	1505.6
805.763	2083.13
805.951	1413.44
806.138	1612.09
806.326	2144.56
806.513	1804.6
806.701	1399.1
806.888	1372.48
807.075	1825.08
807.263	2099.51
807.45	1390.91
807.638	1577.28
807.825	2218.29
808.012	1798.46
808.2	1425.73
808.387	1708.35
808.574	1700.16
808.761	2021.69
808.949	1378.62
809.136	1487.17
809.323	1515.84
809.51	1562.94
809.698	1771.83
809.885	1648.96
810.072	1839.42
810.259	1988.92
810.446	1444.16
810.633	1454.4
810.82	1956.15
811.008	1982.78
811.195	1763.64
811.382	1507.65
811.569	1741.11
811.756	1417.54
811.943	1567.04
812.13	1577.28
812.317	1558.85
812.504	1534.27
812.691	1583.42
812.878	1571.13
813.064	2064.69
813.251	1798.46
813.438	1458.5
813.625	1634.62
813.812	1671.48
813.999	1710.4
814.186	1546.56
814.372	1591.61
814.559	1863.99
814.746	2042.17
814.933	1550.65
815.12	1681.72
815.306	1702.2
815.493	1485.12
815.68	1485.12
815.866	1503.55
816.053	2099.51
816.24	2228.53
816.426	1591.61
816.613	1411.39
816.799	1929.53
816.986	2007.35
817.173	1448.26
817.359	1397.06
817.546	1874.23
817.732	1429.82
817.919	1313.09
818.105	1546.56
818.292	1757.5
818.478	1921.34
818.665	1694.01
818.851	1464.64
819.037	2378.03
819.224	1788.22
819.41	1397.06
819.597	1409.34
819.783	2181.43
819.969	1831.23
820.156	1630.52
820.342	1454.4
820.528	2431.28
820.714	1714.49
820.901	1808.7
821.087	1536.32
821.273	2197.81
821.459	1679.68
821.646	1435.97
821.832	1321.28
822.018	1681.72
822.204	1741.11
822.39	1540.41
822.576	1435.97
822.762	1915.19
822.948	1939.77
823.134	1859.9
823.32	1497.41
823.507	1601.85
823.693	1794.36
823.879	1870.14
824.065	1419.58
824.25	1798.46
824.436	1513.79
824.622	1435.97
824.808	1466.69
824.994	1526.08
825.18	1515.84
825.366	1407.3
825.552	1466.69
825.738	1663.29
825.923	1925.43
826.109	1765.69
826.295	1448.26
826.481	1640.76
826.667	1642.81
826.852	1620.28
827.038	1360.19
827.224	1964.34
827.409	2103.61
827.595	1364.29
827.781	1644.86
827.966	1927.48
828.152	1890.62
828.338	1638.72
828.523	1378.62
828.709	1536.32
828.894	2160.95
829.08	1417.54
829.266	1376.58
829.451	1614.14
829.637	1933.62
829.822	1558.85
830.008	1395.01
830.193	1857.85
830.378	2056.5
830.564	1474.88
830.749	1431.87
830.935	1812.79
831.12	1933.62
831.305	1308.99
831.491	1612.09
831.676	1384.77
831.861	1958.2
832.047	1493.31
832.232	1421.63
832.417	2025.78
832.602	1669.44
832.788	1493.31
832.973	1388.86
833.158	1554.75
833.343	1698.11
833.528	1550.65
833.714	1579.33
833.899	1902.9
834.084	2128.18
834.269	1571.13
834.454	1499.45
834.639	1923.38
834.824	1763.64
835.009	1478.97
835.194	1669.44
835.379	1845.56
835.564	2160.95
835.749	1624.38
835.934	1347.9
836.119	1915.19
836.304	1681.72
836.489	1440.06
836.674	1628.48
836.859	1491.26
837.044	2085.17
837.228	1374.53
837.413	1487.17
837.598	1765.69
837.783	1907
837.968	1558.85
838.152	1263.94
838.337	1304.9
838.522	1941.82
838.707	1788.22
838.891	1675.58
839.076	1845.56
839.261	1929.53
839.445	1415.49
839.63	1501.5
839.815	2163
839.999	1669.44
840.184	1392.96
840.368	1429.82
840.553	1804.6
840.737	1921.34
840.922	1261.89
841.106	1300.8
841.291	1407.3
841.475	1706.3
841.66	1370.43
841.844	1624.38
842.029	2400.56
842.213	1417.54
842.397	1366.34
842.582	1184.07
842.766	2097.46
842.951	1808.7
843.135	1456.45
843.319	1460.54
843.504	1761.59
843.688	1820.99
843.872	1374.53
844.056	1257.79
844.241	1890.62
844.425	1634.62
844.609	1569.09
844.793	1288.51
844.977	1933.62
845.161	1743.16
845.346	1265.99
845.53	1401.15
845.714	1636.67
845.898	1956.15
846.082	1261.89
846.266	1376.58
846.45	1679.68
846.634	1683.77
846.818	1347.9
847.002	1507.65
847.186	1763.64
847.37	1474.88
847.554	1237.31
847.738	1638.72
847.922	1689.92
848.106	1739.07
848.29	1384.77
848.473	1327.43
848.657	1829.18
848.841	1659.2
849.025	1544.51
849.209	1220.93
849.392	1710.4
849.576	1616.19
849.76	1096
849.944	1556.8
850.127	1939.77
850.311	1298.75
850.495	1251.65
850.678	1112.39
850.862	1886.52
851.046	2054.45
851.229	1720.64
851.413	1384.77
851.596	1573.18
851.78	1669.44
851.964	1466.69
852.147	1372.48
852.331	2261.3
852.514	1945.91
852.698	1415.49
852.881	1202.5
853.065	1958.2
853.248	1454.4
853.431	1493.31
853.615	1423.68
853.798	2187.57
853.982	1636.67
854.165	1550.65
854.348	1364.29
854.532	1425.73
854.715	1481.02
854.898	1278.27
855.081	1440.06
855.265	1886.52
855.448	2025.78
855.631	1268.03
855.814	1405.25
855.997	1749.31
856.181	1532.22
856.364	1448.26
856.547	1177.92
856.73	1659.2
856.913	1638.72
857.096	1165.64
857.279	1395.01
857.462	1546.56
857.645	1859.9
857.828	1352
858.011	1478.97
858.194	1446.21
858.377	1812.79
858.56	1225.03
858.743	1288.51
858.926	1354.05
859.109	1741.11
859.292	1306.95
859.475	1159.49
859.658	1808.7
859.841	1765.69
860.023	1184.07
860.206	1136.96
860.389	1546.56
860.572	1968.44
860.755	1251.65
860.937	1337.66
861.12	1511.74
861.303	1554.75
861.486	1372.48
861.668	1335.62
861.851	1745.21
862.034	1698.11
862.216	1399.1
862.399	1175.88
862.581	1732.92
862.764	1825.08
862.947	1315.14
863.129	1212.74
863.312	1241.41
863.494	1888.57
863.677	1614.14
863.859	1100.1
864.042	1728.83
864.224	1939.77
864.406	1339.71
864.589	1077.57
864.771	1706.3
864.954	1276.23
865.136	1206.59
865.318	1169.73
865.501	1657.15
865.683	1096
865.865	1292.61
866.048	1227.07
866.23	1595.71
866.412	1458.5
866.594	1063.24
866.777	1237.31
866.959	1696.06
867.141	1315.14
867.323	1509.69
867.505	1421.63
867.687	1491.26
867.869	1489.21
868.052	1368.38
868.234	1057.09
868.416	1560.89
868.598	1628.48
868.78	1276.23
868.962	1100.1
869.144	1669.44
869.326	1708.35
869.508	1292.61
869.69	1300.8
869.872	1296.71
870.054	1696.06
870.236	1089.86
870.417	1247.55
870.599	1440.06
870.781	1935.67
870.963	1378.62
871.145	1122.63
871.327	1321.28
871.508	1646.91
871.69	1214.79
871.872	1272.13
872.054	1435.97
872.235	1608
872.417	1290.56
872.599	1153.35
872.78	1855.8
872.962	1472.83
873.144	1171.78
873.325	1229.12
873.507	1775.93
873.689	1608
873.87	1112.39
874.052	1366.34
874.233	1431.87
874.415	1677.63
874.596	1263.94
874.778	1198.4
874.959	1591.61
875.141	1802.55
875.322	1247.55
875.503	1249.6
875.685	1620.28
875.866	1114.44
876.048	1096
876.229	1163.59
876.41	1558.85
876.592	1517.89
876.773	1247.55
876.954	1073.48
877.136	1917.24
877.317	1339.71
877.498	962.89
877.679	1356.1
877.86	1677.63
878.042	1485.12
878.223	1268.03
878.404	1542.46
878.585	1567.04
878.766	1935.67
878.947	1562.94
879.128	1419.58
879.309	1577.28
879.49	1767.74
879.672	1470.78
879.853	1311.04
880.034	1284.42
880.215	1556.8
880.396	1382.72
880.576	1220.93
880.757	1419.58
880.938	1913.14
881.119	1104.2
881.3	1300.8
881.481	1462.59
881.662	2462
881.843	1184.07
882.023	1116.48
882.204	1634.62
882.385	1448.26
882.566	1311.04
882.747	1276.23
882.927	1542.46
883.108	1524.03
883.289	1308.99
883.469	1415.49
883.65	1456.45
883.831	1532.22
884.011	1435.97
884.192	1335.62
884.373	1806.65
884.553	1714.49
884.734	1472.83
884.914	1569.09
885.095	2238.77
885.275	1993.01
885.456	1509.69
885.636	1265.99
885.817	1564.99
885.997	1499.45
886.178	1288.51
886.358	1474.88
886.538	1659.2
886.719	2507.06
886.899	1286.47
887.08	1489.21
887.26	1837.37
887.44	1392.96
887.621	1239.36
887.801	1407.3
887.981	2242.87
888.161	1868.09
888.342	1474.88
888.522	1466.69
888.702	1855.8
888.882	1972.54
889.062	1493.31
889.242	1122.63
889.423	1945.91
889.603	1759.55
889.783	1438.02
889.963	1505.6
890.143	1749.31
890.323	1943.86
890.503	1327.43
890.683	1347.9
890.863	1636.67
891.043	1562.94
891.223	1427.78
891.403	1564.99
891.583	1720.64
891.763	1599.8
891.943	1317.19
892.122	1311.04
892.302	1659.2
892.482	1663.29
892.662	1536.32
892.842	1431.87
893.022	1761.59
893.201	1487.17
893.381	1503.55
893.561	1384.77
893.741	1759.55
893.92	1790.27
894.1	1540.41
894.28	1450.3
894.459	1909.05
894.639	1751.35
894.819	1419.58
894.998	1581.37
895.178	1859.9
895.357	1818.94
895.537	1435.97
895.716	1243.46
895.896	1702.2
896.075	2009.4
896.255	1493.31
896.434	1190.21
896.614	1849.66
896.793	2046.26
896.973	1599.8
897.152	1464.64
897.331	1808.7
897.511	1894.71
897.69	1333.57
897.87	1509.69
898.049	1829.18
898.228	1605.95
898.407	1618.24
898.587	1683.77
898.766	1544.51
898.945	1837.37
899.124	1644.86
899.304	1603.9
899.483	1694.01
899.662	2238.77
899.841	1395.01
900.02	1395.01
900.199	1933.62
900.378	1843.51
900.557	1407.3
900.737	1288.51
900.916	1730.87
901.095	1878.33
901.274	1644.86
901.453	1257.79
901.632	1491.26
901.811	1505.6
901.989	1360.19
902.168	1313.09
902.347	1820.99
902.526	1382.72
902.705	1296.71
902.884	1460.54
903.063	2025.78
903.242	1993.01
903.42	1337.66
903.599	1579.33
903.778	1861.94
903.957	1884.47
904.135	1364.29
904.314	1401.15
904.493	1706.3
904.672	1806.65
904.85	1489.21
905.029	1415.49
905.207	1765.69
905.386	2462
905.565	1089.86
905.743	1374.53
905.922	1558.85
906.1	1829.18
906.279	1157.44
906.457	1423.68
906.636	1556.8
906.814	1575.23
906.993	1329.47
907.171	1345.86
907.35	1771.83
907.528	1798.46
907.707	1657.15
907.885	1210.69
908.063	2132.28
908.242	1481.02
908.42	1352
908.598	1122.63
908.777	1720.64
908.955	1374.53
909.133	1583.42
909.311	1315.14
909.49	1487.17
909.668	1589.57
909.846	1300.8
910.024	1274.18
910.202	1446.21
910.38	1767.74
910.559	1247.55
910.737	1249.6
910.915	1687.87
911.093	1657.15
911.271	1425.73
911.449	1542.46
911.627	1775.93
911.805	2099.51
911.983	1321.28
912.161	1196.36
912.339	1673.53
912.517	1882.42
912.695	1554.75
912.872	1374.53
913.05	1403.2
913.228	1679.68
913.406	1370.43
913.584	1284.42
913.762	1810.75
913.939	1497.41
914.117	1210.69
914.295	1157.44
914.473	1712.44
914.65	1653.05
914.828	1300.8
915.006	1298.75
915.184	1341.76
915.361	1657.15
915.539	1411.39
915.716	1442.11
915.894	1704.25
916.072	1575.23
916.249	1591.61
916.427	1442.11
916.604	1345.86
916.782	1685.82
916.959	1212.74
917.137	1306.95
917.314	1556.8
917.492	1636.67
917.669	1261.89
917.847	1380.67
918.024	1569.09
918.201	1337.66
918.379	1300.8
918.556	1300.8
918.733	1696.06
918.911	1472.83
919.088	1438.02
919.265	1282.37
919.442	1591.61
919.62	1397.06
919.797	1265.99
919.974	1165.64
920.151	1454.4
920.328	1444.16
920.506	1192.26
920.683	1333.57
920.86	1349.95
921.037	1253.7
921.214	1239.36
921.391	1165.64
921.568	1583.42
921.745	1182.02
921.922	1276.23
922.099	1114.44
922.276	1620.28
922.453	1487.17
922.63	1100.1
922.807	1378.62
922.984	1358.14
923.161	1233.22
923.338	1243.46
923.514	1089.86
923.691	1497.41
923.868	1560.89
924.045	1136.96
924.222	1093.96
924.399	1456.45
924.575	1696.06
924.752	1253.7
924.929	1327.43
925.105	1456.45
925.282	1212.74
925.459	1153.35
925.635	1091.91
925.812	1304.9
925.989	1227.07
926.165	1196.36
926.342	932.17
926.518	1079.62
926.695	1259.84
926.871	944.45
927.048	897.35
927.224	1581.37
927.401	1251.65
927.577	1124.68
927.754	981.32
927.93	1538.37
928.107	1499.45
928.283	1024.33
928.459	1091.91
928.636	1378.62
928.812	1358.14
928.988	938.31
929.165	901.45
929.341	1218.88
929.517	1251.65
929.693	1358.14
929.87	848.2
930.046	1372.48
930.222	1065.29
930.398	973.13
930.574	1145.16
930.751	1278.27
930.927	1057.09
931.103	1087.81
931.279	987.46
931.455	1118.53
931.631	1159.49
931.807	813.38
931.983	907.59
932.159	907.59
932.335	1190.21
932.511	985.41
932.687	932.17
932.863	1208.64
933.039	1130.82
933.215	735.56
933.391	790.86
933.566	1104.2
933.742	1145.16
933.918	923.98
934.094	764.23
934.27	1143.11
934.445	1206.59
934.621	985.41
934.797	854.34
934.973	1395.01
935.148	1188.16
935.324	760.14
935.5	567.63
935.675	1237.31
935.851	1069.38
936.027	811.34
936.202	876.87
936.378	1089.86
936.553	1028.42
936.729	1198.4
936.904	696.65
937.08	682.31
937.255	817.48
937.431	690.51
937.606	573.77
937.782	782.67
937.957	966.98
938.133	686.41
938.308	561.48
938.483	848.2
938.659	649.55
938.834	729.42
939.009	555.34
939.185	794.95
939.36	696.65
939.535	285.01
939.71	792.91
939.886	1040.71
940.061	944.45
940.236	803.15
940.411	581.96
940.586	866.63
940.761	1009.99
940.937	596.3
941.112	534.86
941.287	735.56
941.462	764.23
941.637	454.99
941.812	473.42
941.987	725.32
942.162	665.93
942.337	551.24
942.512	538.96
942.687	854.34
942.862	858.44
943.037	366.93
943.212	221.52
943.386	649.55
943.561	772.43
943.736	549.2
943.911	768.33
944.086	739.66
944.26	842.06
944.435	416.08
944.61	485.71
944.785	991.56
944.959	1112.39
945.134	426.32
945.309	387.41
945.483	432.46
945.658	928.07
945.833	215.38
946.007	346.45
946.182	995.65
946.357	366.93
946.531	338.26
946.706	342.35
946.88	252.24
947.055	727.37
947.229	403.79
947.404	368.98
947.578	932.17
947.752	590.16
947.927	319.82
948.101	303.44
948.276	647.5
948.45	655.69
948.624	571.72
948.799	334.16
948.973	717.13
949.147	287.06
949.321	399.7
949.496	346.45
949.67	905.54
949.844	502.09
950.018	457.04
950.193	438.61
950.367	1210.69
950.541	530.77
950.715	485.71
950.889	629.07
951.063	551.24
951.237	805.19
951.411	164.18
951.585	250.19
951.759	663.88
951.933	555.34
952.107	407.89
952.281	549.2
952.455	1001.8
952.629	901.45
952.803	368.98
952.977	317.78
953.151	797
953.325	762.19
953.499	594.25
953.672	311.63
953.846	375.12
954.02	510.29
954.194	266.58
954.368	403.79
954.541	756.04
954.715	498
954.889	444.75
955.062	307.54
955.236	588.11
955.41	448.85
955.583	491.85
955.757	182.61
955.93	489.81
956.104	385.36
956.278	364.88
956.451	407.89
956.625	674.12
956.798	1059.14
956.972	631.12
957.145	235.86
957.319	747.85
957.492	416.08
957.665	538.96
957.839	321.87
958.012	672.08
958.185	608.59
958.359	389.46
958.532	604.49
958.705	821.58
958.879	766.28
959.052	485.71
959.225	196.95
959.398	614.73
959.572	618.83
959.745	364.88
959.918	446.8
960.091	516.43
960.264	665.93
960.438	248.15
960.611	260.43
960.784	762.19
960.957	469.33
961.13	811.34
961.303	287.06
961.476	504.14
961.649	786.76
961.822	270.67
961.995	506.19
962.168	686.41
962.341	661.84
962.514	434.51
962.686	330.06
962.859	624.97
963.032	827.72
963.205	276.82
963.378	121.17
963.551	624.97
963.723	657.74
963.896	428.37
964.069	491.85
964.242	481.61
964.414	797
964.587	438.61
964.76	479.57
964.932	594.25
965.105	579.92
965.278	411.98
965.45	299.34
965.623	569.68
965.795	751.95
965.968	371.02
966.14	338.26
966.313	481.61
966.485	614.73
966.658	368.98
966.83	213.33
967.003	766.28
967.175	846.15
967.348	360.78
967.52	344.4
967.692	940.36
967.865	641.36
968.037	342.35
968.209	657.74
968.382	561.48
968.554	807.24
968.726	319.82
968.898	276.82
969.071	596.3
969.243	692.55
969.415	414.03
969.587	528.72
969.759	1030.47
969.932	770.38
970.104	377.17
970.276	90.45
970.448	422.22
970.62	426.32
970.792	481.61
970.964	434.51
971.136	1087.81
971.308	708.94
971.48	319.82
971.652	348.5
971.824	1034.57
971.996	422.22
972.168	323.92
972.339	334.16
972.511	868.68
972.683	493.9
972.855	567.63
973.027	383.31
973.199	581.96
973.37	700.75
973.542	549.2
973.714	487.76
973.886	485.71
974.057	784.71
974.229	291.15
974.401	266.58
974.572	368.98
974.744	192.85
974.915	207.19
975.087	393.55
975.259	899.4
975.43	495.95
975.602	438.61
975.773	233.81
975.945	395.6
976.116	676.17
976.288	211.28
976.459	475.47
976.63	457.04
976.802	641.36
976.973	244.05
977.145	491.85
977.316	936.26
977.487	899.4
977.659	401.74
977.83	344.4
978.001	977.22
978.172	534.86
978.344	254.29
978.515	278.87
978.686	467.28
978.857	852.3
979.028	393.55
979.2	237.91
979.371	700.75
979.542	592.2
979.713	475.47
979.884	8.53
980.055	334.16
980.226	440.65
980.397	262.48
980.568	207.19
980.739	846.15
980.91	489.81
981.081	481.61
981.252	211.28
981.423	645.45
981.594	768.33
981.765	250.19
981.936	424.27
982.106	506.19
982.277	784.71
982.448	225.62
982.619	506.19
982.79	354.64
982.96	844.1
983.131	358.74
983.302	74.07
983.472	403.79
983.643	592.2
983.814	373.07
983.984	242
984.155	454.99
984.326	661.84
984.496	520.53
984.667	287.06
984.837	289.1
985.008	741.71
985.178	538.96
985.349	260.43
985.519	465.23
985.69	242
985.86	385.36
986.031	276.82
986.201	543.05
986.371	649.55
986.542	82.26
986.712	26.96
986.882	749.9
987.053	547.15
987.223	235.86
987.393	465.23
987.563	379.22
987.734	567.63
987.904	618.83
988.074	285.01
988.244	606.54
988.414	293.2
988.585	158.03
988.755	272.72
988.925	479.57
989.095	790.86
989.265	178.51
989.435	348.5
989.605	594.25
989.775	627.02
989.945	538.96
990.115	174.42
990.285	430.41
990.455	489.81
990.625	291.15
990.795	133.46
990.965	753.99
991.134	223.57
991.304	266.58
991.474	192.85
991.644	575.82
991.814	805.19
991.984	102.74
992.153	194.9
992.323	487.76
992.493	463.18
992.662	-38.57
992.832	344.4
993.002	422.22
993.171	526.67
993.341	-5.8
993.511	330.06
993.68	266.58
993.85	676.17
994.019	63.83
994.189	96.6
994.358	500.05
994.528	319.82
994.697	-67.24
994.867	137.56
995.036	651.6
995.206	346.45
995.375	-5.8
995.544	272.72
995.714	534.86
995.883	454.99
996.052	250.19
996.222	-126.63
996.391	874.82
996.56	434.51
996.73	201.04
996.899	-50.86
997.068	792.91
997.237	446.8
997.406	104.79
997.576	31.06
997.745	473.42
997.914	481.61
998.083	-63.15
998.252	104.79
998.421	399.7
998.59	287.06
998.759	33.11
998.928	-48.81
999.097	604.49
999.266	440.65
999.435	168.27
999.604	-22.19
999.773	868.68
999.942	311.63
1000.111	-85.67
1000.28	-122.54
1000.448	174.42
1000.617	196.95
1000.786	239.95
1000.955	43.35
1001.124	385.36
1001.292	962.89
1001.461	127.32
1001.63	92.5
1001.798	721.23
1001.967	708.94
1002.136	-24.23
1002.304	41.3
1002.473	434.51
1002.642	395.6
1002.81	141.65
1002.979	29.01
1003.147	543.05
1003.316	973.13
1003.484	143.7
1003.653	22.87
1003.821	612.68
1003.99	366.93
1004.158	137.56
1004.327	178.51
1004.495	500.05
1004.663	215.38
1004.832	235.86
1005	-48.81
1005.168	473.42
1005.337	559.44
1005.505	-59.05
1005.673	180.56
1005.842	444.75
1006.01	549.2
1006.178	-42.67
1006.346	43.35
1006.514	440.65
1006.683	604.49
1006.851	63.83
1007.019	-106.15
1007.187	129.36
1007.355	-112.3
1007.523	-155.3
1007.691	-91.82
1007.859	-18.09
1008.027	584.01
1008.195	61.78
1008.363	-200.36
1008.531	514.38
1008.699	125.27
1008.867	-30.38
1009.035	-18.09
1009.203	624.97
1009.37	375.12
1009.538	43.35
1009.706	309.58
1009.874	350.54
1010.042	356.69
1010.209	-24.23
1010.377	31.06
1010.545	506.19
1010.713	403.79
1010.88	-63.15
1011.048	20.82
1011.216	260.43
1011.383	610.64
1011.551	-52.91
1011.718	-112.3
1011.886	553.29
1012.054	317.78
1012.221	-112.3
1012.389	-46.76
1012.556	237.91
1012.724	698.7
1012.891	115.03
1013.058	-206.5
1013.226	504.14
1013.393	541.01
1013.561	-77.48
1013.728	-118.44
1013.895	584.01
1014.063	477.52
1014.23	-108.2
1014.397	-138.92
1014.565	438.61
1014.732	129.36
1014.899	-67.24
1015.066	-48.81
1015.233	307.54
1015.401	426.32
1015.568	51.54
1015.735	67.92
1015.902	352.59
1016.069	364.88
1016.236	6.49
1016.403	-120.49
1016.57	104.79
1016.737	549.2
1016.904	53.59
1017.071	-46.76
1017.238	172.37
1017.405	532.81
1017.572	35.16
1017.739	125.27
1017.906	346.45
1018.073	411.98
1018.24	-89.77
1018.407	-26.28
1018.573	565.58
1018.74	235.86
1018.907	55.64
1019.074	-231.08
1019.241	547.15
1019.407	246.1
1019.574	-50.86
1019.741	-153.26
1019.907	416.08
1020.074	350.54
1020.241	-384.68
1020.407	-91.82
1020.574	411.98
1020.74	448.85
1020.907	-32.43
1021.073	-126.63
1021.24	852.3
1021.406	672.08
1021.573	-165.54
1021.739	-102.06
1021.906	545.1
1022.072	194.9
1022.239	-85.67
1022.405	-9.9
1022.571	311.63
1022.738	170.32
1022.904	-75.43
1023.07	43.35
1023.237	356.69
1023.403	483.66
1023.569	-36.52
1023.735	-20.14
1023.902	362.83
1024.068	297.3
1024.234	-190.12
1024.4	-93.87
1024.566	358.74
1024.732	411.98
1024.898	-44.71
1025.065	-267.94
1025.231	428.37
1025.397	280.91
1025.563	-114.34
1025.729	-145.06
1025.895	-136.87
1026.061	29.01
1026.227	-222.89
1026.392	-44.71
1026.558	555.34
1026.724	368.98
1026.89	-153.26
1027.056	-30.38
1027.222	424.27
1027.388	100.69
1027.553	-102.06
1027.719	-85.67
1027.885	768.33
1028.051	371.02
1028.216	-306.85
1028.382	-128.68
1028.548	514.38
1028.713	196.95
1028.879	-147.11
1029.045	141.65
1029.21	502.09
1029.376	530.77
1029.541	-75.43
1029.707	-40.62
1029.873	485.71
1030.038	436.56
1030.204	-151.21
1030.369	-151.21
1030.534	483.66
1030.7	162.13
1030.865	-128.68
1031.031	-102.06
1031.196	336.21
1031.361	293.2
1031.527	-177.83
1031.692	-179.88
1031.857	-157.35
1032.023	420.17
1032.188	-188.07
1032.353	-151.21
1032.518	659.79
1032.684	352.59
1032.849	-261.8
1033.014	14.68
1033.179	442.7
1033.344	438.61
1033.509	24.92
1033.674	-38.57
1033.839	405.84
1034.004	467.28
1034.17	-157.35
1034.335	-100.01
1034.5	131.41
1034.664	125.27
1034.829	-175.78
1034.994	-108.2
1035.159	297.3
1035.324	295.25
1035.489	-93.87
1035.654	-153.26
1035.819	586.06
1035.984	301.39
1036.148	-151.21
1036.313	-116.39
1036.478	559.44
1036.643	301.39
1036.807	-75.43
1036.972	-149.16
1037.137	604.49
1037.301	258.39
1037.466	-247.46
1037.631	10.58
1037.795	534.86
1037.96	325.97
1038.124	106.84
1038.289	-210.6
1038.454	366.93
1038.618	416.08
1038.783	-44.71
1038.947	-11.95
1039.111	325.97
1039.276	108.88
1039.44	-124.58
1039.605	411.98
1039.769	184.66
1039.933	252.24
1040.098	-77.48
1040.262	63.83
1040.426	553.29
1040.591	489.81
1040.755	-214.7
1040.919	-63.15
1041.083	352.59
1041.248	180.56
1041.412	-317.09
1041.576	-200.36
1041.74	198.99
1041.904	459.09
1042.068	-149.16
1042.232	-48.81
1042.397	498
1042.561	377.17
1042.725	-237.22
1042.889	72.02
1043.053	383.31
1043.217	407.89
1043.381	14.68
1043.544	-251.56
1043.708	489.81
1043.872	47.44
1044.036	-374.44
1044.2	-214.7
1044.364	512.33
1044.528	532.81
1044.691	4370.71
1044.855	-186.02
1045.019	561.48
1045.183	385.36
1045.346	-63.15
1045.51	-226.98
1045.674	358.74
1045.837	411.98
1046.001	-112.3
1046.165	-120.49
1046.328	725.32
1046.492	350.54
1046.655	51.54
1046.819	-71.34
1046.983	86.36
1047.146	332.11
1047.31	-69.29
1047.473	-286.37
1047.636	311.63
1047.8	76.12
1047.963	-57
1048.127	-218.79
1048.29	92.5
