Data from Ink_Intensity_USB4F045381__185__00185.txt Node

Date: Mon Jul 17 11:43:01 EDT 2023
User: mmckonesweet
Spectrometer: USB4F04538
Trigger mode: 4
Integration Time (sec): 9.000000E-1
Scans to average: 1
Electric dark correction enabled: true
Nonlinearity correction enabled: false
Boxcar width: 0
XAxis mode: Wavelengths
Number of Pixels in Spectrum: 3648
>>>>>Begin Spectral Data<<<<<
345.52	-1021.77
345.736	-1021.77
345.952	-1021.77
346.168	-974.66
346.384	-1056.58
346.6	-149.33
346.816	-261.97
347.032	-178
347.248	254.12
347.464	-221.01
347.68	-153.43
347.896	139.43
348.112	387.24
348.328	-44.88
348.544	-36.69
348.76	-3.93
348.975	268.45
349.191	-210.77
349.407	-175.95
349.623	102.57
349.839	-114.52
350.055	-79.7
350.27	30.89
350.486	114.86
350.702	266.41
350.918	133.29
351.133	-159.57
351.349	49.32
351.565	354.47
351.781	-307.02
351.996	-3.93
352.212	319.65
352.428	-182.1
352.644	-225.11
352.859	-221.01
353.075	278.69
353.291	84.14
353.506	-241.49
353.722	-276.31
353.938	-153.43
354.153	413.86
354.369	94.38
354.584	-159.57
354.8	157.86
355.016	-206.67
355.231	-241.49
355.447	-102.23
355.662	143.53
355.878	798.88
356.093	-362.32
356.309	-28.5
356.524	-227.15
356.74	192.68
356.955	-192.34
357.171	-53.08
357.386	39.08
357.602	-186.19
357.817	-114.52
358.033	-196.43
358.248	282.79
358.464	190.63
358.679	-171.86
358.895	-317.26
359.11	-59.22
359.325	243.88
359.541	-63.32
359.756	-51.03
359.972	-347.98
360.187	104.62
360.402	-188.24
360.618	-120.66
360.833	1013.92
361.048	121
361.264	-221.01
361.479	-98.13
361.694	20.65
361.909	213.16
362.125	-274.26
362.34	-155.47
362.555	202.92
362.77	34.99
362.986	-274.26
363.201	-237.39
363.416	176.3
363.631	22.7
363.847	-175.95
364.062	-186.19
364.277	186.54
364.492	75.95
364.707	-159.57
364.922	-366.42
365.138	174.25
365.353	379.04
365.568	-261.97
365.783	-77.65
365.998	123.05
366.213	542.88
366.428	-204.63
366.643	41.13
366.858	297.13
367.073	274.6
367.288	-182.1
367.503	-266.07
367.718	114.86
367.933	354.47
368.148	-360.27
368.363	-85.84
368.578	-89.94
368.793	491.68
369.008	-192.34
369.223	-169.81
369.438	213.16
369.653	325.8
369.868	-261.97
370.083	-251.73
370.298	61.61
370.513	270.5
370.728	18.6
370.943	-161.62
371.157	-171.86
371.372	428.2
371.587	-282.45
371.802	-259.92
372.017	-20.31
372.232	364.71
372.446	-53.08
372.661	-221.01
372.876	151.72
373.091	153.77
373.306	-155.47
373.52	-196.43
373.735	-112.47
373.95	391.33
374.165	-149.33
374.379	-145.24
374.594	-98.13
374.809	59.56
375.023	61.61
375.238	-298.83
375.453	180.39
375.667	-325.46
375.882	-184.15
376.097	-247.63
376.311	-16.21
376.526	2.22
376.741	-247.63
376.955	139.43
377.17	538.79
377.384	456.87
377.599	-40.79
377.813	-249.68
378.028	632.99
378.242	166.06
378.457	-73.56
378.672	-376.66
378.886	53.42
379.101	-16.21
379.315	-399.18
379.53	-143.19
379.744	180.39
379.958	133.29
380.173	-192.34
380.387	-223.06
380.602	168.1
380.816	-20.31
381.031	-206.67
381.245	-118.61
381.459	170.15
381.674	2721.92
381.888	-206.67
382.103	57.51
382.317	-139.09
382.531	446.63
382.746	-100.18
382.96	-184.15
383.174	-28.5
383.388	430.24
383.603	114.86
383.817	-335.7
384.031	164.01
384.246	446.63
384.46	8.36
384.674	272.55
384.888	-20.31
385.103	65.71
385.317	-302.93
385.531	-53.08
385.745	360.61
385.959	303.27
386.174	-200.53
386.388	-294.74
386.602	-53.08
386.816	-175.95
387.03	-126.8
387.244	-149.33
387.458	135.34
387.672	272.55
387.887	-266.07
388.101	-350.03
388.315	364.71
388.529	209.06
388.743	-77.65
388.957	-212.82
389.171	311.46
389.385	-169.81
389.599	-147.28
389.813	-24.4
390.027	200.87
390.241	592.03
390.455	-112.47
390.669	-161.62
390.883	-57.17
391.097	364.71
391.311	-61.27
391.525	-212.82
391.738	161.96
391.952	176.3
392.166	-38.74
392.38	-266.07
392.594	229.54
392.808	329.89
393.022	-147.28
393.236	-169.81
393.449	229.54
393.663	106.67
393.877	-216.91
394.091	-77.65
394.305	-122.71
394.518	-155.47
394.732	-313.17
394.946	-194.39
395.16	469.16
395.373	118.95
395.587	-290.64
395.801	-159.57
396.015	327.85
396.228	164.01
396.442	-239.44
396.656	-319.31
396.869	313.51
397.083	424.1
397.297	-71.51
397.51	-194.39
397.724	377
397.938	49.32
398.151	-282.45
398.365	-298.83
398.578	252.07
398.792	413.86
399.005	-77.65
399.219	-161.62
399.433	153.77
399.646	221.35
399.86	-120.66
400.073	-32.6
400.287	172.2
400.5	-102.23
400.714	-114.52
400.927	-128.85
401.141	96.43
401.354	1122.46
401.567	229.54
401.781	-270.16
401.994	196.78
402.208	532.64
402.421	-145.24
402.635	-98.13
402.848	28.84
403.061	241.83
403.275	4.27
403.488	-298.83
403.701	356.52
403.915	237.74
404.128	-22.36
404.341	-186.19
404.555	155.82
404.768	26.79
404.981	-3.93
405.195	-233.3
405.408	544.93
405.621	307.37
405.834	-8.02
406.048	-264.02
406.261	374.95
406.474	417.96
406.687	-210.77
406.9	-32.6
407.114	10.41
407.327	149.67
407.54	-368.46
407.753	-335.7
407.966	-112.47
408.179	245.93
408.392	-212.82
408.605	-374.61
408.819	106.67
409.032	219.3
409.245	-272.21
409.458	-12.12
409.671	200.87
409.884	286.89
410.097	-251.73
410.31	-73.56
410.523	176.3
410.736	-63.32
410.949	-63.32
411.162	-122.71
411.375	432.29
411.588	319.65
411.801	-44.88
412.014	-178
412.227	63.66
412.44	65.71
412.653	-212.82
412.865	-51.03
413.078	209.06
413.291	172.2
413.504	-143.19
413.717	-169.81
413.93	233.64
414.143	-106.32
414.356	-104.28
414.568	-337.74
414.781	260.26
414.994	170.15
415.207	-77.65
415.42	-188.24
415.632	223.4
415.845	469.16
416.058	-253.78
416.271	-319.31
416.483	86.19
416.696	489.64
416.909	-225.11
417.121	-210.77
417.334	159.91
417.547	503.97
417.759	-243.54
417.972	-175.95
418.185	-79.7
418.397	286.89
418.61	-98.13
418.823	-132.95
419.035	405.67
419.248	8.36
419.46	-143.19
419.673	-104.28
419.885	196.78
420.098	32.94
420.311	-167.76
420.523	-333.65
420.736	207.02
420.948	86.19
421.161	-130.9
421.373	-356.18
421.586	123.05
421.798	-108.37
422.01	-317.26
422.223	-83.8
422.435	-108.37
422.648	237.74
422.86	-194.39
423.073	-184.15
423.285	393.38
423.497	-198.48
423.71	-241.49
423.922	-194.39
424.134	102.57
424.347	336.04
424.559	-5.97
424.771	24.75
424.984	-22.36
425.196	133.29
425.408	-315.22
425.621	-347.98
425.833	247.97
426.045	356.52
426.257	-333.65
426.47	-184.15
426.682	157.86
426.894	135.34
427.106	-120.66
427.318	-167.76
427.531	-175.95
427.743	247.97
427.955	-202.58
428.167	293.03
428.379	88.23
428.591	75.95
428.804	-120.66
429.016	-331.6
429.228	12.46
429.44	147.62
429.652	-65.36
429.864	-212.82
430.076	-44.88
430.288	-71.51
430.5	-124.76
430.712	-147.28
430.924	264.36
431.136	51.37
431.348	-343.89
431.56	-284.5
431.772	32.94
431.984	-12.12
432.196	-173.91
432.408	-167.76
432.62	-42.84
432.832	155.82
433.044	51.37
433.256	-89.94
433.468	164.01
433.679	-259.92
433.891	-268.11
434.103	-51.03
434.315	325.8
434.527	272.55
434.739	-130.9
434.95	-194.39
435.162	233.64
435.374	-120.66
435.586	-178
435.798	-147.28
436.009	-274.26
436.221	-3.93
436.433	-171.86
436.645	-196.43
436.856	-96.08
437.068	229.54
437.28	-251.73
437.491	-3.93
437.703	96.43
437.915	98.47
438.126	-212.82
438.338	57.51
438.55	-24.4
438.761	104.62
438.973	-175.95
439.184	-171.86
439.396	47.27
439.608	264.36
439.819	-274.26
440.031	-143.19
440.242	290.98
440.454	225.45
440.665	-192.34
440.877	-36.69
441.088	131.24
441.3	-42.84
441.511	-331.6
441.723	-233.3
441.934	151.72
442.146	49.32
442.357	-75.6
442.569	100.52
442.78	47.27
442.991	333.99
443.203	114.86
443.414	-325.46
443.626	479.4
443.837	-214.87
444.048	-241.49
444.26	-384.85
444.471	55.47
444.682	282.79
444.894	-405.33
445.105	-374.61
445.316	260.26
445.528	184.49
445.739	-143.19
445.95	-124.76
446.161	67.75
446.373	270.5
446.584	-163.67
446.795	-155.47
447.006	157.86
447.217	413.86
447.429	-343.89
447.64	-272.21
447.851	241.83
448.062	16.55
448.273	-333.65
448.484	-274.26
448.695	159.91
448.907	37.03
449.118	-96.08
449.329	34.99
449.54	-163.67
449.751	-137.04
449.962	-249.68
450.173	-206.67
450.384	286.89
450.595	364.71
450.806	-327.5
451.017	-122.71
451.228	364.71
451.439	381.09
451.65	-229.2
451.861	-409.42
452.072	-196.43
452.283	34.99
452.494	-44.88
452.705	-237.39
452.915	403.62
453.126	26.79
453.337	-114.52
453.548	-186.19
453.759	288.93
453.97	549.03
454.181	-10.07
454.391	-206.67
454.602	59.56
454.813	108.71
455.024	-110.42
455.235	-243.54
455.445	110.76
455.656	180.39
455.867	0.17
456.078	-204.63
456.288	-38.74
456.499	110.76
456.71	-329.55
456.921	8.36
457.131	77.99
457.342	69.8
457.553	-188.24
457.763	-239.44
457.974	170.15
458.184	204.97
458.395	-286.54
458.606	-315.22
458.816	301.22
459.027	430.24
459.237	-98.13
459.448	-382.8
459.659	247.97
459.869	540.83
460.08	-296.78
460.29	-204.63
460.501	487.59
460.711	-163.67
460.922	-343.89
461.132	-317.26
461.343	682.14
461.553	-264.02
461.764	-274.26
461.974	-264.02
462.184	231.59
462.395	133.29
462.605	-161.62
462.816	-335.7
463.026	90.28
463.236	399.52
463.447	-300.88
463.657	-280.4
463.867	174.25
464.078	-128.85
464.288	-151.38
464.498	-270.16
464.709	24.75
464.919	-73.56
465.129	-126.8
465.339	-202.58
465.55	153.77
465.76	237.74
465.97	-147.28
466.18	-315.22
466.391	198.82
466.601	123.05
466.811	-214.87
467.021	-270.16
467.231	84.14
467.441	297.13
467.651	-196.43
467.862	-442.19
468.072	-5.97
468.282	288.93
468.492	-188.24
468.702	-251.73
468.912	20.65
469.122	522.4
469.332	90.28
469.542	-292.69
469.752	116.9
469.962	131.24
470.172	-284.5
470.382	-309.07
470.592	168.1
470.802	319.65
471.012	-151.38
471.222	-223.06
471.432	209.06
471.642	176.3
471.852	-196.43
472.062	-333.65
472.272	-20.31
472.482	-198.48
472.691	-325.46
472.901	-360.27
473.111	69.8
473.321	557.22
473.531	-352.08
473.741	-221.01
473.95	166.06
474.16	194.73
474.37	-124.76
474.58	-272.21
474.79	516.26
474.999	200.87
475.209	-251.73
475.419	-161.62
475.628	-18.26
475.838	293.03
476.048	-221.01
476.258	-335.7
476.467	348.33
476.677	-69.46
476.886	-71.51
477.096	-153.43
477.306	-110.42
477.515	297.13
477.725	-208.72
477.935	-122.71
478.144	426.15
478.354	-94.04
478.563	-118.61
478.773	-296.78
478.982	227.5
479.192	278.69
479.401	-151.38
479.611	-321.36
479.82	-216.91
480.03	47.27
480.239	-352.08
480.449	-325.46
480.658	432.29
480.868	-149.33
481.077	-110.42
481.287	-188.24
481.496	168.1
481.705	358.57
481.915	-3.93
482.124	-12.12
482.333	155.82
482.543	430.24
482.752	-132.95
482.961	-311.12
483.171	149.67
483.38	20.65
483.589	-161.62
483.799	-270.16
484.008	12.46
484.217	204.97
484.426	-237.39
484.636	-315.22
484.845	176.3
485.054	-282.45
485.263	65.71
485.472	-237.39
485.682	430.24
485.891	61.61
486.1	-343.89
486.309	-245.59
486.518	147.62
486.727	303.27
486.936	-331.6
487.146	-141.14
487.355	385.19
487.564	-194.39
487.773	-188.24
487.982	-169.81
488.191	-87.89
488.4	16.55
488.609	-268.11
488.818	-241.49
489.027	532.64
489.236	456.87
489.445	-87.89
489.654	-272.21
489.863	270.5
490.072	69.8
490.281	153.77
490.49	-132.95
490.698	460.96
490.907	381.09
491.116	-202.58
491.325	-413.52
491.534	317.61
491.743	41.13
491.952	-112.47
492.16	-173.91
492.369	159.91
492.578	325.8
492.787	-46.93
492.996	-393.04
493.204	-147.28
493.413	546.98
493.622	-462.67
493.831	-388.94
494.039	387.24
494.248	-255.83
494.457	-317.26
494.665	-360.27
494.874	184.49
495.083	546.98
495.291	-280.4
495.5	-282.45
495.709	262.31
495.917	80.04
496.126	-192.34
496.335	-173.91
496.543	-73.56
496.752	217.26
496.96	37.03
497.169	-356.18
497.377	14.51
497.586	282.79
497.794	-135
498.003	-503.63
498.211	53.42
498.42	391.33
498.628	-118.61
498.837	-393.04
499.045	139.43
499.254	98.47
499.462	-352.08
499.671	-266.07
499.879	485.54
500.087	243.88
500.296	-313.17
500.504	-206.67
500.713	61.61
500.921	581.79
501.129	-311.12
501.338	-155.47
501.546	118.95
501.754	-22.36
501.962	-241.49
502.171	-397.14
502.379	135.34
502.587	409.76
502.795	-196.43
503.004	-294.74
503.212	82.09
503.42	260.26
503.628	-304.98
503.837	-188.24
504.045	235.69
504.253	452.77
504.461	-300.88
504.669	-454.48
504.877	207.02
505.085	299.17
505.294	-384.85
505.502	-48.98
505.71	59.56
505.918	225.45
506.126	-309.07
506.334	-259.92
506.542	-94.04
506.75	151.72
506.958	-253.78
507.166	-184.15
507.374	-112.47
507.582	428.2
507.79	-98.13
507.998	-393.04
508.206	114.86
508.414	161.96
508.622	-274.26
508.83	-229.2
509.037	436.39
509.245	-96.08
509.453	-358.22
509.661	-364.37
509.869	217.26
510.077	-135
510.285	-147.28
510.492	-495.44
510.7	655.52
510.908	-139.09
511.116	-212.82
511.324	-323.41
511.531	0.17
511.739	51.37
511.947	-28.5
512.155	65.71
512.362	135.34
512.57	-204.63
512.778	-376.66
512.985	-423.76
513.193	250.02
513.401	344.23
513.608	-202.58
513.816	-272.21
514.024	139.43
514.231	241.83
514.439	-302.93
514.646	-241.49
514.854	299.17
515.061	295.08
515.269	-225.11
515.477	-239.44
515.684	-225.11
515.892	297.13
516.099	-388.94
516.307	-347.98
516.514	155.82
516.722	319.65
516.929	-206.67
517.136	-309.07
517.344	426.15
517.551	127.14
517.759	-298.83
517.966	-272.21
518.173	-89.94
518.381	14.51
518.588	-163.67
518.796	-227.15
519.003	129.19
519.21	80.04
519.418	-315.22
519.625	34.99
519.832	57.51
520.039	194.73
520.247	-429.9
520.454	-290.64
520.661	278.69
520.868	118.95
521.076	-233.3
521.283	-188.24
521.49	610.47
521.697	116.9
521.904	-175.95
522.112	-274.26
522.319	213.16
522.526	131.24
522.733	-288.59
522.94	-284.5
523.147	37.03
523.354	286.89
523.561	-438.09
523.768	-196.43
523.975	297.13
524.183	65.71
524.39	-270.16
524.597	-358.22
524.804	-18.26
525.011	-208.72
525.218	-309.07
525.425	-249.68
525.632	379.04
525.838	-114.52
526.045	-241.49
526.252	-382.8
526.459	1220.76
526.666	880.8
526.873	-343.89
527.08	-339.79
527.287	383.14
527.494	207.02
527.701	-458.57
527.907	-286.54
528.114	229.54
528.321	-79.7
528.528	-204.63
528.735	-292.69
528.941	-20.31
529.148	8.36
529.355	-173.91
529.562	-264.02
529.768	403.62
529.975	-106.32
530.182	-221.01
530.388	-331.6
530.595	196.78
530.802	-130.9
531.008	-94.04
531.215	-245.59
531.422	446.63
531.628	755.87
531.835	-139.09
532.042	-182.1
532.248	-108.37
532.455	69.8
532.661	-249.68
532.868	-290.64
533.074	86.19
533.281	344.23
533.487	-210.77
533.694	-360.27
533.9	-192.34
534.107	254.12
534.313	-345.94
534.52	-376.66
534.726	278.69
534.933	405.67
535.139	-352.08
535.345	-403.28
535.552	6.31
535.758	0.17
535.965	-274.26
536.171	-294.74
536.377	258.21
536.584	442.53
536.79	-261.97
536.996	-257.87
537.203	12.46
537.409	200.87
537.615	-282.45
537.821	-233.3
538.028	204.97
538.234	194.73
538.44	-321.36
538.646	-290.64
538.853	176.3
539.059	80.04
539.265	28.84
539.471	-497.49
539.677	266.41
539.883	-32.6
540.09	-282.45
540.296	194.73
540.502	-46.93
540.708	-182.1
540.914	-122.71
541.12	-253.78
541.326	174.25
541.532	-5.97
541.738	-237.39
541.944	-184.15
542.15	254.12
542.356	-12.12
542.562	-302.93
542.768	-151.38
542.974	598.18
543.18	514.21
543.386	-261.97
543.592	-446.29
543.798	278.69
544.004	276.65
544.21	-333.65
544.415	-169.81
544.621	41.13
544.827	297.13
545.033	-429.9
545.239	-57.17
545.445	-180.05
545.651	84.14
545.856	-292.69
546.062	-274.26
546.268	-32.6
546.474	41.13
546.679	-317.26
546.885	-218.96
547.091	-114.52
547.297	528.55
547.502	-122.71
547.708	-382.8
547.914	-91.99
548.119	243.88
548.325	-345.94
548.531	-259.92
548.736	397.48
548.942	-67.41
549.147	-286.54
549.353	-130.9
549.559	250.02
549.764	94.38
549.97	-223.06
550.175	-354.13
550.381	184.49
550.586	-46.93
550.792	-204.63
550.997	-204.63
551.203	129.19
551.408	133.29
551.614	-388.94
551.819	-345.94
552.025	336.04
552.23	458.92
552.435	-347.98
552.641	-87.89
552.846	-14.17
553.052	295.08
553.257	-98.13
553.462	-329.55
553.668	-75.6
553.873	264.36
554.078	-272.21
554.283	-315.22
554.489	133.29
554.694	110.76
554.899	-395.09
555.105	-73.56
555.31	161.96
555.515	172.2
555.72	-130.9
555.925	-296.78
556.131	184.49
556.336	-137.04
556.541	-315.22
556.746	-366.42
556.951	352.42
557.156	467.11
557.361	-141.14
557.567	-151.38
557.772	544.93
557.977	180.39
558.182	-311.12
558.387	-315.22
558.592	-53.08
558.797	364.71
559.002	-167.76
559.207	-118.61
559.412	-73.56
559.617	413.86
559.822	-243.54
560.027	-354.13
560.232	98.47
560.437	200.87
560.642	-378.7
560.847	-401.23
561.051	55.47
561.256	155.82
561.461	-282.45
561.666	-384.85
561.871	61.61
562.076	231.59
562.281	-204.63
562.485	-284.5
562.69	192.68
562.895	329.89
563.1	-135
563.305	-315.22
563.509	385.19
563.714	532.64
563.919	-331.6
564.123	-319.31
564.328	-5.97
564.533	379.04
564.737	-237.39
564.942	-212.82
565.147	436.39
565.351	542.88
565.556	-137.04
565.761	-200.53
565.965	178.34
566.17	-96.08
566.374	-372.56
566.579	-386.9
566.784	108.71
566.988	-81.75
567.193	-450.38
567.397	-288.59
567.602	-335.7
567.806	80.04
568.011	-227.15
568.215	-247.63
568.42	-3.93
568.624	-42.84
568.828	-352.08
569.033	-151.38
569.237	217.26
569.442	147.62
569.646	-356.18
569.85	-206.67
570.055	-32.6
570.259	98.47
570.463	-8.02
570.668	-241.49
570.872	14.51
571.076	108.71
571.281	-126.8
571.485	-171.86
571.689	-79.7
571.893	106.67
572.098	-151.38
572.302	-233.3
572.506	139.43
572.71	-12.12
572.914	-266.07
573.119	-171.86
573.323	391.33
573.527	358.57
573.731	-259.92
573.935	-255.83
574.139	80.04
574.343	-73.56
574.547	-264.02
574.751	-274.26
574.955	409.76
575.159	354.47
575.364	-259.92
575.568	-405.33
575.772	-12.12
575.976	188.58
576.18	-290.64
576.383	-429.9
576.587	319.65
576.791	164.01
576.995	-399.18
577.199	-456.53
577.403	309.41
577.607	313.51
577.811	-397.14
578.015	-167.76
578.219	106.67
578.422	315.56
578.626	-159.57
578.83	-143.19
579.034	260.26
579.238	75.95
579.442	-290.64
579.645	161.96
579.849	20.65
580.053	41.13
580.257	-204.63
580.46	-188.24
580.664	297.13
580.868	157.86
581.071	-3.93
581.275	-147.28
581.479	-221.01
581.682	170.15
581.886	-235.35
582.09	-175.95
582.293	198.82
582.497	227.5
582.7	-75.6
582.904	-302.93
583.107	-5.97
583.311	43.18
583.515	-135
583.718	-184.15
583.922	92.33
584.125	483.49
584.329	-337.74
584.532	-122.71
584.735	336.04
584.939	180.39
585.142	-358.22
585.346	-315.22
585.549	151.72
585.753	-79.7
585.956	-270.16
586.159	-12.12
586.363	489.64
586.566	221.35
586.769	-300.88
586.973	-354.13
587.176	114.86
587.379	237.74
587.582	149.67
587.786	-34.64
587.989	51.37
588.192	614.56
588.395	-218.96
588.599	14.51
588.802	174.25
589.005	196.78
589.208	-208.72
589.411	-198.48
589.615	288.93
589.818	409.76
590.021	-8.02
590.224	-192.34
590.427	250.02
590.63	202.92
590.833	-315.22
591.036	-307.02
591.239	-34.64
591.442	-8.02
591.645	-94.04
591.848	-237.39
592.051	22.7
592.254	254.12
592.457	-161.62
592.66	-204.63
592.863	-20.31
593.066	247.97
593.269	-249.68
593.472	-130.9
593.675	-139.09
593.878	245.93
594.081	-159.57
594.284	-311.12
594.486	110.76
594.689	-24.4
594.892	-106.32
595.095	-171.86
595.298	139.43
595.5	-135
595.703	-143.19
595.906	-65.36
596.109	452.77
596.311	282.79
596.514	-423.76
596.717	-200.53
596.92	352.42
597.122	188.58
597.325	-464.72
597.528	-235.35
597.73	368.81
597.933	65.71
598.136	-300.88
598.338	-483.15
598.541	223.4
598.743	290.98
598.946	-130.9
599.148	-194.39
599.351	354.47
599.554	346.28
599.756	-40.79
599.959	-208.72
600.161	295.08
600.363	708.77
600.566	-18.26
600.768	-212.82
600.971	499.88
601.173	256.17
601.376	-231.25
601.578	-251.73
601.78	94.38
601.983	655.52
602.185	-298.83
602.388	-36.69
602.59	125.1
602.792	-5.97
602.995	-61.27
603.197	-190.29
603.399	256.17
603.601	164.01
603.804	-171.86
604.006	-245.59
604.208	37.03
604.41	-272.21
604.613	2.22
604.815	-175.95
605.017	592.03
605.219	-73.56
605.421	207.02
605.623	-270.16
605.826	362.66
606.028	385.19
606.23	-231.25
606.432	-231.25
606.634	471.2
606.836	352.42
607.038	-249.68
607.24	-32.6
607.442	61.61
607.644	131.24
607.846	-53.08
608.048	-223.06
608.25	503.97
608.452	-159.57
608.654	-149.33
608.856	-466.77
609.058	-28.5
609.26	98.47
609.462	-120.66
609.664	-132.95
609.866	510.11
610.067	313.51
610.269	-42.84
610.471	-159.57
610.673	-44.88
610.875	297.13
611.077	-347.98
611.278	-57.17
611.48	73.9
611.682	503.97
611.884	-145.24
612.085	-96.08
612.287	-202.58
612.489	180.39
612.69	-302.93
612.892	-132.95
613.094	385.19
613.295	245.93
613.497	-259.92
613.699	-259.92
613.9	483.49
614.102	319.65
614.304	-122.71
614.505	-356.18
614.707	96.43
614.908	98.47
615.11	-278.35
615.311	-57.17
615.513	270.5
615.714	344.23
615.916	-307.02
616.117	-212.82
616.319	32.94
616.52	168.1
616.722	-257.87
616.923	-208.72
617.124	286.89
617.326	252.07
617.527	-135
617.729	90.28
617.93	198.82
618.131	223.4
618.333	-89.94
618.534	-159.57
618.735	-32.6
618.937	491.68
619.138	-296.78
619.339	-264.02
619.54	247.97
619.742	16.55
619.943	-12.12
620.144	-102.23
620.345	344.23
620.546	387.24
620.748	-255.83
620.949	-171.86
621.15	75.95
621.351	133.29
621.552	-175.95
621.753	-327.5
621.954	-225.11
622.155	610.47
622.356	-216.91
622.558	18.6
622.759	45.23
622.96	479.4
623.161	-196.43
623.362	-173.91
623.563	133.29
623.764	125.1
623.965	-102.23
624.166	28.84
624.366	57.51
624.567	155.82
624.768	-446.29
624.969	-202.58
625.17	-36.69
625.371	299.17
625.572	-89.94
625.773	-304.98
625.973	286.89
626.174	243.88
626.375	-77.65
626.576	-145.24
626.777	219.3
626.977	690.34
627.178	-245.59
627.379	-85.84
627.58	8.36
627.78	141.48
627.981	-145.24
628.182	-81.75
628.382	364.71
628.583	-188.24
628.784	-206.67
628.984	32.94
629.185	223.4
629.386	325.8
629.586	-153.43
629.787	-239.44
629.987	286.89
630.188	69.8
630.388	-180.05
630.589	-87.89
630.79	643.23
630.99	98.47
631.191	-46.93
631.391	-81.75
631.591	272.55
631.792	536.74
631.992	-12.12
632.193	-135
632.393	495.78
632.594	80.04
632.794	-163.67
632.994	-34.64
633.195	125.1
633.395	161.96
633.595	-212.82
633.796	92.33
633.996	-16.21
634.196	389.28
634.397	-272.21
634.597	2.22
634.797	43.18
634.997	512.16
635.198	47.27
635.398	-243.54
635.598	200.87
635.798	442.53
635.998	286.89
636.199	-229.2
636.399	2.22
636.599	-145.24
636.799	-53.08
636.999	196.78
637.199	254.12
637.399	325.8
637.599	-124.76
637.799	-10.07
637.999	-8.02
638.199	477.35
638.399	-188.24
638.599	-151.38
638.799	198.82
638.999	635.04
639.199	22.7
639.399	0.17
639.599	522.4
639.799	-65.36
639.999	-192.34
640.199	-122.71
640.399	202.92
640.599	202.92
640.799	12.46
640.998	69.8
641.198	370.85
641.398	311.46
641.598	-3.93
641.798	-87.89
641.997	1046.68
642.197	211.11
642.397	-40.79
642.597	-104.28
642.796	239.78
642.996	475.3
643.196	37.03
643.395	-208.72
643.595	266.41
643.795	-376.66
643.994	-59.22
644.194	-89.94
644.394	274.6
644.593	198.82
644.793	-221.01
644.992	24.75
645.192	319.65
645.392	-266.07
645.591	8.36
645.791	-122.71
645.99	233.64
646.19	145.58
646.389	-85.84
646.589	-57.17
646.788	305.32
646.987	235.69
647.187	137.38
647.386	137.38
647.586	28.84
647.785	325.8
647.984	-30.55
648.184	-12.12
648.383	41.13
648.582	106.67
648.782	-81.75
648.981	0.17
649.18	-1.88
649.38	207.02
649.579	-20.31
649.778	-169.81
649.977	364.71
650.177	243.88
650.376	-210.77
650.575	-87.89
650.774	479.4
650.973	43.18
651.173	-241.49
651.372	26.79
651.571	196.78
651.77	372.9
651.969	-178
652.168	-12.12
652.367	-167.76
652.566	307.37
652.765	-94.04
652.964	147.62
653.163	643.23
653.362	129.19
653.561	-71.51
653.76	-51.03
653.959	149.67
654.158	282.79
654.357	116.9
654.556	-20.31
654.755	295.08
654.954	223.4
655.153	-3.93
655.352	8.36
655.551	417.96
655.749	57.51
655.948	47.27
656.147	14.51
656.346	229.54
656.545	116.9
656.743	57.51
656.942	-59.22
657.141	196.78
657.34	-77.65
657.538	2.22
657.737	-48.98
657.936	102.57
658.135	213.16
658.333	-77.65
658.532	8.36
658.731	598.18
658.929	346.28
659.128	159.91
659.326	-155.47
659.525	483.49
659.724	180.39
659.922	-278.35
660.121	-235.35
660.319	295.08
660.518	-79.7
660.716	-223.06
660.915	-122.71
661.113	583.84
661.312	-171.86
661.51	32.94
661.709	-145.24
661.907	321.7
662.105	549.03
662.304	-94.04
662.502	-44.88
662.701	456.87
662.899	155.82
663.097	295.08
663.296	-266.07
663.494	409.76
663.692	516.26
663.891	-110.42
664.089	-204.63
664.287	333.99
664.485	501.92
664.684	-151.38
664.882	98.47
665.08	116.9
665.278	245.93
665.476	-282.45
665.675	284.84
665.873	764.06
666.071	440.48
666.269	-118.61
666.467	153.77
666.665	303.27
666.863	198.82
667.061	41.13
667.259	18.6
667.457	241.83
667.655	364.71
667.853	-221.01
668.051	166.06
668.249	18.6
668.447	245.93
668.645	-151.38
668.843	182.44
669.041	309.41
669.239	123.05
669.437	-18.26
669.635	121
669.833	125.1
670.031	360.61
670.229	53.42
670.426	67.75
670.624	90.28
670.822	73.9
671.02	-20.31
671.218	28.84
671.415	26.79
671.613	229.54
671.811	170.15
672.009	-5.97
672.206	411.81
672.404	256.17
672.602	192.68
672.799	98.47
672.997	340.13
673.195	483.49
673.392	102.57
673.59	-69.46
673.788	434.34
673.985	-245.59
674.183	34.99
674.38	-16.21
674.578	350.37
674.775	-38.74
674.973	-46.93
675.17	-180.05
675.368	575.65
675.565	333.99
675.763	14.51
675.96	-94.04
676.158	483.49
676.355	155.82
676.553	-59.22
676.75	-34.64
676.947	243.88
677.145	131.24
677.342	65.71
677.539	157.86
677.737	235.69
677.934	682.14
678.131	153.77
678.329	24.75
678.526	602.27
678.723	377
678.92	59.56
679.118	-18.26
679.315	-46.93
679.512	534.69
679.709	-16.21
679.906	55.47
680.104	495.78
680.301	194.73
680.498	-91.99
680.695	-85.84
680.892	82.09
681.089	86.19
681.286	51.37
681.483	-63.32
681.68	374.95
681.877	356.52
682.075	-75.6
682.272	245.93
682.469	403.62
682.665	172.2
682.862	-12.12
683.059	-102.23
683.256	311.46
683.453	268.45
683.65	123.05
683.847	-12.12
684.044	233.64
684.241	-48.98
684.438	84.14
684.635	-59.22
684.831	661.66
685.028	753.82
685.225	67.75
685.422	164.01
685.619	256.17
685.815	290.98
686.012	71.85
686.209	41.13
686.405	-77.65
686.602	477.35
686.799	-94.04
686.996	-110.42
687.192	57.51
687.389	745.63
687.586	-81.75
687.782	67.75
687.979	655.52
688.175	532.64
688.372	100.52
688.568	30.89
688.765	157.86
688.962	577.7
689.158	209.06
689.355	-77.65
689.551	397.48
689.748	178.34
689.944	135.34
690.14	-120.66
690.337	508.07
690.533	151.72
690.73	239.78
690.926	182.44
691.123	374.95
691.319	245.93
691.515	-10.07
691.712	233.64
691.908	379.04
692.104	358.57
692.301	186.54
692.497	-55.12
692.693	395.43
692.889	493.73
693.086	164.01
693.282	-98.13
693.478	217.26
693.674	659.62
693.87	57.51
694.067	-110.42
694.263	229.54
694.459	172.2
694.655	211.11
694.851	125.1
695.047	434.34
695.243	450.72
695.439	284.84
695.635	28.84
695.831	348.33
696.027	397.48
696.224	2.22
696.42	383.14
696.615	655.52
696.811	420
697.007	-94.04
697.203	69.8
697.399	309.41
697.595	553.12
697.791	-34.64
697.987	278.69
698.183	59.56
698.379	153.77
698.575	65.71
698.77	67.75
698.966	454.82
699.162	598.18
699.358	102.57
699.554	61.61
699.749	487.59
699.945	508.07
700.141	178.34
700.337	223.4
700.532	315.56
700.728	133.29
700.924	10.41
701.119	37.03
701.315	379.04
701.511	235.69
701.706	225.45
701.902	-14.17
702.097	221.35
702.293	454.82
702.489	123.05
702.684	82.09
702.88	327.85
703.075	202.92
703.271	137.38
703.466	-85.84
703.662	348.33
703.857	528.55
704.053	-3.93
704.248	84.14
704.443	460.96
704.639	438.44
704.834	114.86
705.03	73.9
705.225	460.96
705.42	563.36
705.616	272.55
705.811	125.1
706.006	186.54
706.202	221.35
706.397	243.88
706.592	-26.45
706.787	420
706.983	372.9
707.178	329.89
707.373	166.06
707.568	532.64
707.763	643.23
707.959	108.71
708.154	102.57
708.349	352.42
708.544	350.37
708.739	344.23
708.934	-5.97
709.129	563.36
709.324	626.85
709.519	45.23
709.714	32.94
709.909	622.75
710.104	567.46
710.299	96.43
710.494	217.26
710.689	503.97
710.884	356.52
711.079	192.68
711.274	387.24
711.469	397.48
711.664	506.02
711.859	30.89
712.054	262.31
712.249	446.63
712.443	645.28
712.638	-28.5
712.833	131.24
713.028	342.18
713.223	307.37
713.417	483.49
713.612	174.25
713.807	542.88
714.002	954.52
714.196	348.33
714.391	106.67
714.586	577.7
714.78	368.81
714.975	135.34
715.17	77.99
715.364	290.98
715.559	506.02
715.754	-135
715.948	61.61
716.143	848.03
716.337	413.86
716.532	360.61
716.726	90.28
716.921	553.12
717.115	759.97
717.31	-67.41
717.504	632.99
717.699	293.03
717.893	530.59
718.088	118.95
718.282	12.46
718.476	415.91
718.671	467.11
718.865	204.97
719.059	133.29
719.254	352.42
719.448	704.67
719.642	1468.56
719.837	-10.07
720.031	655.52
720.225	608.42
720.419	268.45
720.614	84.14
720.808	526.5
721.002	227.5
721.196	32.94
721.39	77.99
721.585	665.76
721.779	440.48
721.973	182.44
722.167	8.36
722.361	467.11
722.555	657.57
722.749	110.76
722.943	116.9
723.137	98.47
723.331	485.54
723.525	172.2
723.719	168.1
723.913	497.83
724.107	745.63
724.301	26.79
724.495	303.27
724.689	843.93
724.883	653.47
725.077	164.01
725.271	131.24
725.465	667.81
725.659	352.42
725.853	180.39
726.046	-8.02
726.24	288.93
726.434	630.95
726.628	129.19
726.822	221.35
727.015	684.19
727.209	700.58
727.403	223.4
727.596	20.65
727.79	663.71
727.984	690.34
728.177	67.75
728.371	217.26
728.565	575.65
728.758	96.43
728.952	88.23
729.146	106.67
729.339	671.9
729.533	372.9
729.726	143.53
729.92	51.37
730.113	811.17
730.307	518.31
730.5	151.72
730.694	90.28
730.887	385.19
731.081	583.84
731.274	73.9
731.468	221.35
731.661	311.46
731.854	385.19
732.048	184.49
732.241	77.99
732.435	282.79
732.628	377
732.821	284.84
733.014	90.28
733.208	129.19
733.401	463.01
733.594	256.17
733.788	168.1
733.981	753.82
734.174	516.26
734.367	153.77
734.56	338.09
734.754	604.32
734.947	379.04
735.14	200.87
735.333	188.58
735.526	630.95
735.719	258.21
735.912	94.38
736.105	90.28
736.298	493.73
736.491	405.67
736.684	239.78
736.877	151.72
737.07	534.69
737.263	731.3
737.456	155.82
737.649	92.33
737.842	311.46
738.035	479.4
738.228	223.4
738.421	336.04
738.614	702.62
738.807	651.42
739	75.95
739.192	110.76
739.385	493.73
739.578	639.14
739.771	446.63
739.964	221.35
740.156	483.49
740.349	417.96
740.542	372.9
740.735	30.89
740.927	198.82
741.12	288.93
741.313	153.77
741.505	200.87
741.698	534.69
741.891	530.59
742.083	409.76
742.276	237.74
742.468	454.82
742.661	491.68
742.854	252.07
743.046	77.99
743.239	860.32
743.431	420
743.624	303.27
743.816	53.42
744.009	393.38
744.201	524.45
744.393	469.16
744.586	86.19
744.778	704.67
744.971	385.19
745.163	307.37
745.355	372.9
745.548	479.4
745.74	370.85
745.932	245.93
746.125	143.53
746.317	1003.68
746.509	463.01
746.702	219.3
746.894	264.36
747.086	567.46
747.278	790.69
747.471	311.46
747.663	325.8
747.855	475.3
748.047	866.46
748.239	180.39
748.431	149.67
748.623	913.56
748.815	739.49
749.008	141.48
749.2	118.95
749.392	643.23
749.584	684.19
749.776	256.17
749.968	321.7
750.16	970.91
750.352	385.19
750.544	229.54
750.736	190.63
750.928	612.51
751.12	493.73
751.311	202.92
751.503	356.52
751.695	569.51
751.887	463.01
752.079	24.75
752.271	315.56
752.463	1296.53
752.654	721.06
752.846	336.04
753.038	254.12
753.23	319.65
753.421	721.06
753.613	372.9
753.805	407.72
753.997	743.58
754.188	630.95
754.38	207.02
754.572	164.01
754.763	467.11
754.955	686.24
755.146	356.52
755.338	303.27
755.53	530.59
755.721	434.34
755.913	121
756.104	196.78
756.296	501.92
756.487	710.82
756.679	73.9
756.87	286.89
757.062	458.92
757.253	651.42
757.445	245.93
757.636	377
757.827	450.72
758.019	1106.07
758.21	118.95
758.401	202.92
758.593	1110.17
758.784	837.79
758.975	110.76
759.167	229.54
759.358	583.84
759.549	762.02
759.74	198.82
759.932	200.87
760.123	841.89
760.314	385.19
760.505	397.48
760.696	368.81
760.888	1015.96
761.079	493.73
761.27	170.15
761.461	184.49
761.652	860.32
761.843	424.1
762.034	262.31
762.225	585.89
762.416	495.78
762.607	524.45
762.798	276.65
762.989	225.45
763.18	1269.91
763.371	426.15
763.562	327.85
763.753	381.09
763.944	764.06
764.135	815.26
764.326	442.53
764.517	229.54
764.708	596.13
764.899	768.16
765.089	258.21
765.28	227.5
765.471	544.93
765.662	663.71
765.853	387.24
766.043	157.86
766.234	739.49
766.425	805.02
766.615	295.08
766.806	190.63
766.997	764.06
767.187	577.7
767.378	221.35
767.569	118.95
767.759	747.68
767.95	557.22
768.141	450.72
768.331	153.77
768.522	538.79
768.712	710.82
768.903	241.83
769.093	235.69
769.284	868.51
769.474	616.61
769.665	186.54
769.855	155.82
770.046	682.14
770.236	487.59
770.426	440.48
770.617	293.03
770.807	704.67
770.998	422.05
771.188	479.4
771.378	161.96
771.569	696.48
771.759	751.78
771.949	186.54
772.139	63.66
772.33	643.23
772.52	860.32
772.71	262.31
772.9	80.04
773.09	843.93
773.281	878.75
773.471	278.69
773.661	295.08
773.851	882.85
774.041	479.4
774.231	202.92
774.421	420
774.611	915.61
774.802	630.95
774.992	325.8
775.182	241.83
775.372	551.07
775.562	815.26
775.752	260.26
775.942	288.93
776.131	839.84
776.321	712.86
776.511	276.65
776.701	207.02
776.891	897.18
777.081	352.42
777.271	352.42
777.461	252.07
777.651	807.07
777.84	770.21
778.03	536.74
778.22	288.93
778.41	956.57
778.599	407.72
778.789	417.96
778.979	250.02
779.169	632.99
779.358	510.11
779.548	606.37
779.738	110.76
779.927	616.61
780.117	370.85
780.307	299.17
780.496	84.14
780.686	766.11
780.875	1091.74
781.065	268.45
781.254	370.85
781.444	626.85
781.633	606.37
781.823	211.11
782.012	274.6
782.202	479.4
782.391	585.89
782.581	260.26
782.77	499.88
782.96	776.35
783.149	553.12
783.338	311.46
783.528	112.81
783.717	759.97
783.906	805.02
784.096	477.35
784.285	293.03
784.474	467.11
784.663	411.81
784.853	420
785.042	379.04
785.231	532.64
785.42	802.97
785.61	530.59
785.799	213.16
785.988	458.92
786.177	544.93
786.366	352.42
786.555	487.59
786.744	835.74
786.933	559.27
787.122	121
787.312	188.58
787.501	499.88
787.69	676
787.879	237.74
788.068	325.8
788.257	254.12
788.445	450.72
788.634	362.66
788.823	282.79
789.012	1231
789.201	917.66
789.39	422.05
789.579	278.69
789.768	684.19
789.957	645.28
790.145	293.03
790.334	4.27
790.523	499.88
790.712	589.99
790.9	340.13
791.089	190.63
791.278	833.69
791.467	667.81
791.655	684.19
791.844	850.08
792.033	430.24
792.221	456.87
792.41	467.11
792.599	172.2
792.787	727.2
792.976	741.54
793.164	258.21
793.353	288.93
793.541	696.48
793.73	721.06
793.918	440.48
794.107	360.61
794.295	555.17
794.484	602.27
794.672	288.93
794.861	319.65
795.049	731.3
795.238	1007.77
795.426	157.86
795.614	397.48
795.803	710.82
795.991	997.53
796.179	286.89
796.368	325.8
796.556	948.38
796.744	352.42
796.932	266.41
797.121	225.45
797.309	632.99
797.497	895.13
797.685	397.48
797.874	323.75
798.062	606.37
798.25	944.28
798.438	200.87
798.626	327.85
798.814	776.35
799.002	1038.49
799.19	501.92
799.378	342.18
799.566	858.27
799.755	1028.25
799.943	524.45
800.131	344.23
800.318	723.1
800.506	694.43
800.694	282.79
800.882	477.35
801.07	966.81
801.258	622.75
801.446	295.08
801.634	407.72
801.822	645.28
802.01	587.94
802.197	235.69
802.385	524.45
802.573	721.06
802.761	377
802.949	356.52
803.136	231.59
803.324	888.99
803.512	647.33
803.699	512.16
803.887	157.86
804.075	1001.63
804.262	575.65
804.45	213.16
804.638	456.87
804.825	458.92
805.013	428.2
805.201	393.38
805.388	329.89
805.576	622.75
805.763	985.24
805.951	374.95
806.138	458.92
806.326	1171.61
806.513	870.56
806.701	473.25
806.888	331.94
807.075	725.15
807.263	1058.97
807.45	278.69
807.638	503.97
807.825	1149.08
808.012	807.07
808.2	526.5
808.387	661.66
808.574	747.68
808.761	1024.16
808.949	327.85
809.136	532.64
809.323	563.36
809.51	655.52
809.698	737.44
809.885	540.83
810.072	845.98
810.259	835.74
810.446	514.21
810.633	493.73
810.82	907.42
811.008	1003.68
811.195	540.83
811.382	458.92
811.569	594.08
811.756	626.85
811.943	465.06
812.13	475.3
812.317	622.75
812.504	587.94
812.691	512.16
812.878	581.79
813.064	1020.06
813.251	759.97
813.438	290.98
813.625	651.42
813.812	719.01
813.999	526.5
814.186	503.97
814.372	493.73
814.559	676
814.746	968.86
814.933	454.82
815.12	626.85
815.306	616.61
815.493	413.86
815.68	387.24
815.866	479.4
816.053	993.44
816.24	1181.85
816.426	454.82
816.613	327.85
816.799	870.56
816.986	995.48
817.173	401.57
817.359	405.67
817.546	815.26
817.732	417.96
817.919	252.07
818.105	546.98
818.292	583.84
818.478	829.6
818.665	606.37
818.851	426.15
819.037	1239.19
819.224	708.77
819.41	417.96
819.597	397.48
819.783	1253.53
819.969	862.37
820.156	557.22
820.342	409.76
820.528	1439.89
820.714	770.21
820.901	778.4
821.087	456.87
821.273	1132.7
821.459	770.21
821.646	454.82
821.832	442.53
822.018	825.5
822.204	829.6
822.39	434.34
822.576	354.47
822.762	915.61
822.948	901.28
823.134	741.54
823.32	608.42
823.507	485.54
823.693	800.93
823.879	884.89
824.065	393.38
824.25	823.45
824.436	526.5
824.622	393.38
824.808	377
824.994	626.85
825.18	600.23
825.366	372.9
825.552	432.29
825.738	618.66
825.923	972.96
826.109	792.73
826.295	434.34
826.481	671.9
826.667	737.44
826.852	649.38
827.038	352.42
827.224	995.48
827.409	1155.23
827.595	401.57
827.781	729.25
827.966	1024.16
828.152	1011.87
828.338	491.68
828.523	336.04
828.709	532.64
828.894	987.29
829.08	503.97
829.266	575.65
829.451	610.47
829.637	938.14
829.822	577.7
830.008	487.59
830.193	1038.49
830.378	1226.9
830.564	628.9
830.749	350.37
830.935	936.09
831.12	952.48
831.305	512.16
831.491	559.27
831.676	520.35
831.861	997.53
832.047	551.07
832.232	393.38
832.417	1050.78
832.602	774.3
832.788	516.26
832.973	522.4
833.158	819.36
833.343	764.06
833.528	581.79
833.714	573.6
833.899	880.8
834.084	1339.54
834.269	626.85
834.454	561.31
834.639	1015.96
834.824	762.02
835.009	745.63
835.194	645.28
835.379	1024.16
835.564	1263.77
835.749	678.05
835.934	487.59
836.119	1003.68
836.304	831.65
836.489	491.68
836.674	823.45
836.859	684.19
837.044	1087.64
837.228	606.37
837.413	493.73
837.598	921.76
837.783	1038.49
837.968	606.37
838.152	436.39
838.337	438.44
838.522	1116.31
838.707	1036.44
838.891	682.14
839.076	835.74
839.261	1067.16
839.445	579.75
839.63	723.1
839.815	1249.43
839.999	704.67
840.184	483.49
840.368	475.3
840.553	962.72
840.737	1061.02
840.922	450.72
841.106	493.73
841.291	581.79
841.475	850.08
841.66	393.38
841.844	524.45
842.029	1466.52
842.213	553.12
842.397	565.41
842.582	403.62
842.766	1132.7
842.951	1040.54
843.135	610.47
843.319	524.45
843.504	940.19
843.688	1048.73
843.872	379.04
844.056	460.96
844.241	1009.82
844.425	739.49
844.609	645.28
844.793	344.23
844.977	1081.5
845.161	942.24
845.346	481.44
845.53	557.22
845.714	739.49
845.898	1163.42
846.082	422.05
846.266	450.72
846.45	852.13
846.634	784.54
846.818	549.03
847.002	716.96
847.186	905.37
847.37	612.51
847.554	532.64
847.738	731.3
847.922	850.08
848.106	856.22
848.29	501.92
848.473	571.55
848.657	1005.72
848.841	790.69
849.025	600.23
849.209	290.98
849.392	934.04
849.576	757.92
849.76	409.76
849.944	669.86
850.127	1220.76
850.311	618.66
850.495	413.86
850.678	370.85
850.862	1032.35
851.046	1255.58
851.229	739.49
851.413	524.45
851.596	872.61
851.78	737.44
851.964	708.77
852.147	614.56
852.331	1464.47
852.514	1089.69
852.698	682.14
852.881	377
853.065	1069.21
853.248	813.21
853.431	716.96
853.615	606.37
853.798	1368.21
853.982	893.09
854.165	704.67
854.348	579.75
854.532	694.43
854.715	733.34
854.898	632.99
855.081	506.02
855.265	1183.9
855.448	1208.47
855.631	561.31
855.814	563.36
855.997	1015.96
856.181	845.98
856.364	643.23
856.547	526.5
856.73	936.09
856.913	878.75
857.096	499.88
857.279	657.57
857.462	641.18
857.645	1038.49
857.828	630.95
858.011	778.4
858.194	741.54
858.377	1048.73
858.56	420
858.743	565.41
858.926	667.81
859.109	954.52
859.292	530.59
859.475	426.15
859.658	1061.02
859.841	936.09
860.023	331.94
860.206	454.82
860.389	921.76
860.572	1140.89
860.755	553.12
860.937	444.58
861.12	790.69
861.303	821.41
861.486	805.02
861.668	442.53
861.851	981.15
862.034	907.42
862.216	735.39
862.399	471.2
862.581	1079.45
862.764	1210.52
862.947	606.37
863.129	499.88
863.312	458.92
863.494	1288.34
863.677	815.26
863.859	356.52
864.042	1040.54
864.224	1206.42
864.406	770.21
864.589	436.39
864.771	907.42
864.954	561.31
865.136	528.55
865.318	415.91
865.501	1038.49
865.683	450.72
865.865	600.23
866.048	602.27
866.23	921.76
866.412	862.37
866.594	422.05
866.777	706.72
866.959	923.8
867.141	632.99
867.323	766.11
867.505	719.01
867.687	884.89
867.869	893.09
868.052	626.85
868.234	469.16
868.416	794.78
868.598	1075.35
868.78	456.87
868.962	520.35
869.144	1149.08
869.326	995.48
869.508	606.37
869.69	489.64
869.872	751.78
870.054	1222.81
870.236	465.06
870.417	516.26
870.599	776.35
870.781	1265.82
870.963	774.3
871.145	501.92
871.327	637.09
871.508	1097.88
871.69	536.74
871.872	602.27
872.054	790.69
872.235	1015.96
872.417	680.1
872.599	479.4
872.78	1183.9
872.962	852.13
873.144	399.52
873.325	602.27
873.507	1216.66
873.689	942.24
873.87	473.25
874.052	712.86
874.233	917.66
874.415	1087.64
874.596	608.42
874.778	512.16
874.959	942.24
875.141	1073.31
875.322	626.85
875.503	495.78
875.685	991.39
875.866	475.3
876.048	571.55
876.229	589.99
876.41	766.11
876.592	929.95
876.773	536.74
876.954	356.52
877.136	1239.19
877.317	745.63
877.498	438.44
877.679	667.81
877.86	1040.54
878.042	893.09
878.223	655.52
878.404	872.61
878.585	1046.68
878.766	1290.39
878.947	893.09
879.128	811.17
879.309	1099.93
879.49	1165.46
879.672	651.42
879.853	729.25
880.034	733.34
880.215	888.99
880.396	663.71
880.576	676
880.757	612.51
880.938	1235.1
881.119	471.2
881.3	499.88
881.481	872.61
881.662	1794.19
881.843	534.69
882.023	510.11
882.204	972.96
882.385	925.85
882.566	624.8
882.747	538.79
882.927	966.81
883.108	1036.44
883.289	618.66
883.469	864.41
883.65	792.73
883.831	864.41
884.011	872.61
884.192	637.09
884.373	1173.66
884.553	1022.11
884.734	884.89
884.914	1036.44
885.095	1663.12
885.275	1331.35
885.456	954.52
885.636	536.74
885.817	903.32
885.997	954.52
886.178	655.52
886.358	676
886.538	932
886.719	1933.45
886.899	667.81
887.08	796.83
887.26	1218.71
887.44	778.4
887.621	626.85
887.801	796.83
887.981	1466.52
888.161	1110.17
888.342	628.9
888.522	731.3
888.702	1050.78
888.882	1319.06
889.062	897.18
889.242	514.21
889.423	1433.75
889.603	1147.03
889.783	811.17
889.963	757.92
890.143	1128.6
890.323	1276.06
890.503	725.15
890.683	759.97
890.863	1013.92
891.043	1056.92
891.223	762.02
891.403	934.04
891.583	1042.59
891.763	1046.68
891.943	721.06
892.122	704.67
892.302	1020.06
892.482	1013.92
892.662	893.09
892.842	764.06
893.022	1196.18
893.201	823.45
893.381	899.23
893.561	680.1
893.741	1224.86
893.92	1001.63
894.1	940.19
894.28	835.74
894.459	1175.7
894.639	1054.87
894.819	796.83
894.998	843.93
895.178	1216.66
895.357	1179.8
895.537	721.06
895.716	690.34
895.896	1032.35
896.075	1378.45
896.255	772.25
896.434	503.97
896.614	1405.08
896.793	1470.61
896.973	972.96
897.152	983.2
897.331	1210.52
897.511	1282.2
897.69	604.32
897.87	860.32
898.049	1181.85
898.228	1190.04
898.407	979.1
898.587	968.86
898.766	888.99
898.945	1288.34
899.124	1112.22
899.304	934.04
899.483	1360.02
899.662	1591.44
899.841	807.07
900.02	848.03
900.199	1370.26
900.378	1237.14
900.557	723.1
900.737	757.92
900.916	1228.95
901.095	1261.72
901.274	1052.83
901.453	727.2
901.632	913.56
901.811	938.14
901.989	696.48
902.168	786.59
902.347	1331.35
902.526	1022.11
902.705	878.75
902.884	911.52
903.063	1478.8
903.242	1443.99
903.42	759.97
903.599	977.05
903.778	1360.02
903.957	1427.6
904.135	899.23
904.314	825.5
904.493	1134.75
904.672	1290.39
904.85	862.37
905.029	778.4
905.207	1224.86
905.386	1734.8
905.565	706.72
905.743	848.03
905.922	960.67
906.1	1409.17
906.279	714.91
906.457	815.26
906.636	991.39
906.814	1130.65
906.993	786.59
907.171	716.96
907.35	1366.17
907.528	1214.62
907.707	1112.22
907.885	755.87
908.063	1530
908.242	852.13
908.42	823.45
908.598	651.42
908.777	1179.8
908.955	872.61
909.133	950.43
909.311	657.57
909.49	1050.78
909.668	1013.92
909.846	821.41
910.024	606.37
910.202	1024.16
910.38	1239.19
910.559	737.44
910.737	702.62
910.915	1118.36
911.093	1112.22
911.271	800.93
911.449	1022.11
911.627	1190.04
911.805	1595.54
911.983	802.97
912.161	745.63
912.339	1222.81
912.517	1290.39
912.695	911.52
912.872	772.25
913.05	843.93
913.228	1093.79
913.406	827.55
913.584	757.92
913.762	1239.19
913.939	852.13
914.117	671.9
914.295	676
914.473	1169.56
914.65	1048.73
914.828	837.79
915.006	792.73
915.184	788.64
915.361	1101.98
915.539	893.09
915.716	1089.69
915.894	1132.7
916.072	1284.25
916.249	905.37
916.427	811.17
916.604	852.13
916.782	1224.86
916.959	665.76
917.137	747.68
917.314	1185.94
917.492	1144.99
917.669	874.65
917.847	854.17
918.024	1142.94
918.201	823.45
918.379	833.69
918.556	813.21
918.733	1302.68
918.911	975
919.088	1058.97
919.265	821.41
919.442	1081.5
919.62	1061.02
919.797	741.54
919.974	639.14
920.151	1116.31
920.328	934.04
920.506	745.63
920.683	950.43
920.86	762.02
921.037	895.13
921.214	854.17
921.391	696.48
921.568	1151.13
921.745	866.46
921.922	780.45
922.099	616.61
922.276	1222.81
922.453	1087.64
922.63	706.72
922.807	995.48
922.984	1044.63
923.161	725.15
923.338	721.06
923.514	698.53
923.691	999.58
923.868	1097.88
924.045	659.62
924.222	659.62
924.399	1009.82
924.575	1153.18
924.752	823.45
924.929	876.7
925.105	1063.07
925.282	766.11
925.459	792.73
925.635	848.03
925.812	985.24
925.989	782.49
926.165	829.6
926.342	493.73
926.518	770.21
926.695	946.33
926.871	655.52
927.048	553.12
927.224	1157.27
927.401	872.61
927.577	870.56
927.754	678.05
927.93	1306.77
928.107	1181.85
928.283	596.13
928.459	805.02
928.636	977.05
928.812	874.65
928.988	653.47
929.165	551.07
929.341	856.22
929.517	1034.39
929.693	954.52
929.87	393.38
930.046	1052.83
930.222	802.97
930.398	592.03
930.574	759.97
930.751	905.37
930.927	753.82
931.103	686.24
931.279	737.44
931.455	657.57
931.631	882.85
931.807	524.45
931.983	485.54
932.159	592.03
932.335	909.47
932.511	602.27
932.687	622.75
932.863	886.94
933.039	911.52
933.215	526.5
933.391	516.26
933.566	878.75
933.742	897.18
933.918	532.64
934.094	411.81
934.27	854.17
934.445	950.43
934.621	690.34
934.797	422.05
934.973	989.34
935.148	868.51
935.324	587.94
935.5	450.72
935.675	1151.13
935.851	909.47
936.027	575.65
936.202	508.07
936.378	860.32
936.553	669.86
936.729	911.52
936.904	420
937.08	403.62
937.255	618.66
937.431	381.09
937.606	415.91
937.782	577.7
937.957	643.23
938.133	485.54
938.308	327.85
938.483	622.75
938.659	436.39
938.834	538.79
939.009	268.45
939.185	557.22
939.36	518.31
939.535	118.95
939.71	475.3
939.886	888.99
940.061	725.15
940.236	561.31
940.411	323.75
940.586	673.95
940.761	747.68
940.937	393.38
941.112	325.8
941.287	555.17
941.462	704.67
941.637	254.12
941.812	293.03
941.987	616.61
942.162	583.84
942.337	432.29
942.512	282.79
942.687	694.43
942.862	704.67
943.037	151.72
943.212	147.62
943.386	536.74
943.561	534.69
943.736	491.68
943.911	600.23
944.086	598.18
944.26	663.71
944.435	333.99
944.61	409.76
944.785	850.08
944.959	1036.44
945.134	377
945.309	192.68
945.483	331.94
945.658	676
945.833	49.32
946.007	135.34
946.182	899.23
946.357	278.69
946.531	223.4
946.706	168.1
946.88	170.15
947.055	471.2
947.229	233.64
947.404	102.57
947.578	676
947.752	424.1
947.927	141.48
948.101	77.99
948.276	553.12
948.45	530.59
948.624	477.35
948.799	198.82
948.973	549.03
949.147	237.74
949.321	290.98
949.496	245.93
949.67	680.1
949.844	436.39
950.018	243.88
950.193	176.3
950.367	1081.5
950.541	413.86
950.715	342.18
950.889	309.41
951.063	407.72
951.237	575.65
951.411	49.32
951.585	82.09
951.759	501.92
951.933	487.59
952.107	223.4
952.281	442.53
952.455	764.06
952.629	639.14
952.803	131.24
952.977	121
953.151	712.86
953.325	573.6
953.499	442.53
953.672	137.38
953.846	182.44
954.02	434.34
954.194	188.58
954.368	139.43
954.541	647.33
954.715	458.92
954.889	399.52
955.062	213.16
955.236	393.38
955.41	360.61
955.583	483.49
955.757	73.9
955.93	401.57
956.104	204.97
956.278	184.49
956.451	299.17
956.625	643.23
956.798	880.8
956.972	534.69
957.145	139.43
957.319	385.19
957.492	458.92
957.665	340.13
957.839	139.43
958.012	503.97
958.185	389.28
958.359	307.37
958.532	436.39
958.705	639.14
958.879	536.74
959.052	293.03
959.225	-48.98
959.398	446.63
959.572	483.49
959.745	217.26
959.918	264.36
960.091	389.28
960.264	475.3
960.438	110.76
960.611	174.25
960.784	710.82
960.957	401.57
961.13	612.51
961.303	225.45
961.476	499.88
961.649	762.02
961.822	121
961.995	352.42
962.168	667.81
962.341	501.92
962.514	272.55
962.686	188.58
962.859	520.35
963.032	624.8
963.205	168.1
963.378	63.66
963.551	649.38
963.723	415.91
963.896	252.07
964.069	446.63
964.242	450.72
964.414	802.97
964.587	239.78
964.76	336.04
964.932	540.83
965.105	426.15
965.278	247.97
965.45	170.15
965.623	536.74
965.795	589.99
965.968	270.5
966.14	182.44
966.313	399.52
966.485	454.82
966.658	311.46
966.83	125.1
967.003	741.54
967.175	673.95
967.348	262.31
967.52	231.59
967.692	843.93
967.865	676
968.037	280.74
968.209	524.45
968.382	491.68
968.554	684.19
968.726	237.74
968.898	247.97
969.071	567.46
969.243	624.8
969.415	346.28
969.587	331.94
969.759	995.48
969.932	643.23
970.104	282.79
970.276	10.41
970.448	352.42
970.62	348.33
970.792	346.28
970.964	295.08
971.136	876.7
971.308	635.04
971.48	108.71
971.652	258.21
971.824	807.07
971.996	426.15
972.168	282.79
972.339	280.74
972.511	721.06
972.683	403.62
972.855	499.88
973.027	321.7
973.199	524.45
973.37	690.34
973.542	356.52
973.714	438.44
973.886	446.63
974.057	706.72
974.229	112.81
974.401	211.11
974.572	319.65
974.744	71.85
974.915	131.24
975.087	180.39
975.259	784.54
975.43	420
975.602	200.87
975.773	61.61
975.945	260.26
976.116	663.71
976.288	252.07
976.459	385.19
976.63	405.67
976.802	540.83
976.973	315.56
977.145	360.61
977.316	868.51
977.487	524.45
977.659	348.33
977.83	215.21
978.001	942.24
978.172	534.69
978.344	172.2
978.515	266.41
978.686	475.3
978.857	770.21
979.028	215.21
979.2	94.38
979.371	731.3
979.542	329.89
979.713	432.29
979.884	-104.28
980.055	262.31
980.226	395.43
980.397	180.39
980.568	32.94
980.739	780.45
980.91	452.77
981.081	405.67
981.252	143.53
981.423	567.46
981.594	641.18
981.765	106.67
981.936	344.23
982.106	467.11
982.277	667.81
982.448	176.3
982.619	344.23
982.79	413.86
982.96	712.86
983.131	161.96
983.302	37.03
983.472	364.71
983.643	534.69
983.814	288.93
983.984	110.76
984.155	417.96
984.326	712.86
984.496	319.65
984.667	82.09
984.837	311.46
985.008	731.3
985.178	319.65
985.349	235.69
985.519	393.38
985.69	276.65
985.86	321.7
986.031	135.34
986.201	465.06
986.371	549.03
986.542	53.42
986.712	-122.71
986.882	540.83
987.053	495.78
987.223	90.28
987.393	368.81
987.563	282.79
987.734	620.71
987.904	508.07
988.074	147.62
988.244	499.88
988.414	293.03
988.585	108.71
988.755	239.78
988.925	305.32
989.095	807.07
989.265	161.96
989.435	231.59
989.605	602.27
989.775	508.07
989.945	446.63
990.115	49.32
990.285	475.3
990.455	456.87
990.625	168.1
990.795	106.67
990.965	741.54
991.134	94.38
991.304	137.38
991.474	118.95
991.644	503.97
991.814	802.97
991.984	34.99
992.153	39.08
992.323	413.86
992.493	350.37
992.662	26.79
992.832	405.67
993.002	407.72
993.171	448.68
993.341	12.46
993.511	385.19
993.68	213.16
993.85	639.14
994.019	-24.4
994.189	84.14
994.358	448.68
994.528	258.21
994.697	-73.56
994.867	-26.45
995.036	483.49
995.206	295.08
995.375	47.27
995.544	243.88
995.714	344.23
995.883	368.81
996.052	315.56
996.222	20.65
996.391	852.13
996.56	370.85
996.73	10.41
996.899	-32.6
997.068	725.15
997.237	329.89
997.406	-12.12
997.576	-96.08
997.745	516.26
997.914	518.31
998.083	-46.93
998.252	90.28
998.421	454.82
998.59	233.64
998.759	2.22
998.928	-137.04
999.097	659.62
999.266	426.15
999.435	188.58
999.604	-96.08
999.773	823.45
999.942	397.48
1000.111	-61.27
1000.28	-171.86
1000.448	116.9
1000.617	200.87
1000.786	182.44
1000.955	-20.31
1001.124	409.76
1001.292	907.42
1001.461	-5.97
1001.63	0.17
1001.798	729.25
1001.967	628.9
1002.136	-77.65
1002.304	-22.36
1002.473	559.27
1002.642	393.38
1002.81	51.37
1002.979	32.94
1003.147	516.26
1003.316	860.32
1003.484	-34.64
1003.653	14.51
1003.821	647.33
1003.99	274.6
1004.158	145.58
1004.327	149.67
1004.495	430.24
1004.663	221.35
1004.832	209.06
1005	-163.67
1005.168	417.96
1005.337	348.33
1005.505	-53.08
1005.673	207.02
1005.842	446.63
1006.01	331.94
1006.178	-106.32
1006.346	10.41
1006.514	495.78
1006.683	614.56
1006.851	6.31
1007.019	-182.1
1007.187	88.23
1007.355	-139.09
1007.523	-274.26
1007.691	-116.56
1007.859	45.23
1008.027	589.99
1008.195	106.67
1008.363	-104.28
1008.531	508.07
1008.699	186.54
1008.867	-116.56
1009.035	-20.31
1009.203	745.63
1009.37	295.08
1009.538	59.56
1009.706	364.71
1009.874	329.89
1010.042	307.37
1010.209	-118.61
1010.377	-53.08
1010.545	518.31
1010.713	319.65
1010.88	-67.41
1011.048	26.79
1011.216	258.21
1011.383	643.23
1011.551	-38.74
1011.718	-143.19
1011.886	489.64
1012.054	323.75
1012.221	-112.47
1012.389	-147.28
1012.556	286.89
1012.724	719.01
1012.891	4.27
1013.058	-227.15
1013.226	448.68
1013.393	444.58
1013.561	-227.15
1013.728	-153.43
1013.895	544.93
1014.063	430.24
1014.23	-139.09
1014.397	-65.36
1014.565	442.53
1014.732	254.12
1014.899	-153.43
1015.066	-141.14
1015.233	354.47
1015.401	454.82
1015.568	-53.08
1015.735	80.04
1015.902	237.74
1016.069	266.41
1016.236	-53.08
1016.403	-65.36
1016.57	141.48
1016.737	393.38
1016.904	4.27
1017.071	-155.47
1017.238	231.59
1017.405	485.54
1017.572	-118.61
1017.739	125.1
1017.906	413.86
1018.073	467.11
1018.24	-67.41
1018.407	22.7
1018.573	557.22
1018.74	250.02
1018.907	51.37
1019.074	-261.97
1019.241	551.07
1019.407	336.04
1019.574	-112.47
1019.741	-221.01
1019.907	313.51
1020.074	327.85
1020.241	-249.68
1020.407	-165.71
1020.574	387.24
1020.74	442.53
1020.907	-44.88
1021.073	-204.63
1021.24	759.97
1021.406	651.42
1021.573	-108.37
1021.739	-122.71
1021.906	434.34
1022.072	207.02
1022.239	-67.41
1022.405	-89.94
1022.571	338.09
1022.738	100.52
1022.904	-85.84
1023.07	45.23
1023.237	266.41
1023.403	469.16
1023.569	-94.04
1023.735	-57.17
1023.902	377
1024.068	364.71
1024.234	-198.48
1024.4	-91.99
1024.566	323.75
1024.732	549.03
1024.898	-67.41
1025.065	-235.35
1025.231	503.97
1025.397	90.28
1025.563	-46.93
1025.729	-135
1025.895	-180.05
1026.061	110.76
1026.227	-253.78
1026.392	-122.71
1026.558	530.59
1026.724	358.57
1026.89	-96.08
1027.056	-3.93
1027.222	377
1027.388	180.39
1027.553	-143.19
1027.719	-194.39
1027.885	616.61
1028.051	370.85
1028.216	-296.78
1028.382	-94.04
1028.548	463.01
1028.713	307.37
1028.879	-175.95
1029.045	65.71
1029.21	594.08
1029.376	565.41
1029.541	-120.66
1029.707	-145.24
1029.873	446.63
1030.038	444.58
1030.204	-141.14
1030.369	-63.32
1030.534	422.05
1030.7	196.78
1030.865	-1.88
1031.031	-159.57
1031.196	348.33
1031.361	311.46
1031.527	-163.67
1031.692	-137.04
1031.857	-126.8
1032.023	405.67
1032.188	-161.62
1032.353	-98.13
1032.518	628.9
1032.684	266.41
1032.849	-206.67
1033.014	-122.71
1033.179	452.77
1033.344	411.81
1033.509	-102.23
1033.674	-32.6
1033.839	428.2
1034.004	422.05
1034.17	-137.04
1034.335	-198.48
1034.5	190.63
1034.664	12.46
1034.829	-204.63
1034.994	-137.04
1035.159	280.74
1035.324	311.46
1035.489	-143.19
1035.654	-132.95
1035.819	542.88
1035.984	346.28
1036.148	-65.36
1036.313	-79.7
1036.478	409.76
1036.643	233.64
1036.807	-108.37
1036.972	-196.43
1037.137	532.64
1037.301	301.22
1037.466	-253.78
1037.631	-89.94
1037.795	569.51
1037.96	372.9
1038.124	114.86
1038.289	-190.29
1038.454	491.68
1038.618	348.33
1038.783	-186.19
1038.947	-57.17
1039.111	286.89
1039.276	149.67
1039.44	-186.19
1039.605	377
1039.769	233.64
1039.933	241.83
1040.098	-81.75
1040.262	69.8
1040.426	434.34
1040.591	327.85
1040.755	-184.15
1040.919	-161.62
1041.083	358.57
1041.248	321.7
1041.412	-321.36
1041.576	-212.82
1041.74	243.88
1041.904	463.01
1042.068	-235.35
1042.232	-81.75
1042.397	514.21
1042.561	374.95
1042.725	-313.17
1042.889	73.9
1043.053	399.52
1043.217	420
1043.381	-32.6
1043.544	-253.78
1043.708	520.35
1043.872	61.61
1044.036	-302.93
1044.2	-245.59
1044.364	589.99
1044.528	508.07
1044.691	4761.7
1044.855	-135
1045.019	458.92
1045.183	356.52
1045.346	-51.03
1045.51	-175.95
1045.674	364.71
1045.837	323.75
1046.001	-157.52
1046.165	-145.24
1046.328	819.36
1046.492	409.76
1046.655	77.99
1046.819	6.31
1046.983	168.1
1047.146	327.85
1047.31	-110.42
1047.473	-292.69
1047.636	241.83
1047.8	86.19
1047.963	-145.24
1048.127	-130.9
1048.29	125.1
