Data from Ink_Intensity_USB4F045381__95__00095.txt Node

Date: Mon Jul 17 11:02:38 EDT 2023
User: mmckonesweet
Spectrometer: USB4F04538
Trigger mode: 4
Integration Time (sec): 9.000000E-1
Scans to average: 1
Electric dark correction enabled: true
Nonlinearity correction enabled: false
Boxcar width: 0
XAxis mode: Wavelengths
Number of Pixels in Spectrum: 3648
>>>>>Begin Spectral Data<<<<<
345.52	-1034.91
345.736	-1034.91
345.952	-1034.91
346.168	-1016.48
346.384	-1034.91
346.6	-211.62
346.816	-225.96
347.032	-182.95
347.248	353.62
347.464	-164.52
347.68	-109.22
347.896	30.04
348.112	404.82
348.328	-98.99
348.544	-109.22
348.76	68.95
348.975	245.07
349.191	-234.15
349.407	-215.72
349.623	146.77
349.839	-133.8
350.055	-98.99
350.27	5.46
350.486	202.07
350.702	326.99
350.918	175.44
351.133	-197.29
351.349	220.5
351.565	445.77
351.781	-168.62
351.996	-15.02
352.212	283.99
352.428	-117.42
352.644	-187.05
352.859	-211.62
353.075	255.31
353.291	93.52
353.506	-187.05
353.722	-258.73
353.938	-88.75
354.153	486.73
354.369	142.68
354.584	-191.14
354.8	195.92
355.016	-291.49
355.231	-162.47
355.447	-66.22
355.662	138.58
355.878	812.36
356.093	-324.26
356.309	19.8
356.524	-330.41
356.74	320.85
356.955	-156.33
357.171	-86.7
357.386	91.48
357.602	-238.25
357.817	-58.03
358.033	-154.28
358.248	347.47
358.464	140.63
358.679	-127.66
358.895	-277.16
359.11	81.24
359.325	314.7
359.541	73.04
359.756	-4.78
359.972	-281.25
360.187	191.83
360.402	-262.82
360.618	-178.86
360.833	1006.92
361.048	169.3
361.264	-244.39
361.479	-41.64
361.694	77.14
361.909	298.32
362.125	-242.34
362.34	-119.46
362.555	314.7
362.77	21.84
362.986	-221.86
363.201	-103.08
363.416	177.49
363.631	-6.83
363.847	-154.28
364.062	-78.51
364.277	173.39
364.492	197.97
364.707	-174.76
364.922	-363.17
365.138	247.12
365.353	388.43
365.568	-230.06
365.783	-111.27
365.998	171.35
366.213	601.42
366.428	-111.27
366.643	27.99
366.858	259.41
367.073	259.41
367.288	-86.7
367.503	-209.58
367.718	126.29
367.933	367.95
368.148	-275.11
368.363	-19.11
368.578	-29.35
368.793	468.3
369.008	-209.58
369.223	-217.77
369.438	281.94
369.653	421.2
369.868	-287.4
370.083	-230.06
370.298	154.96
370.513	464.21
370.728	64.85
370.943	-137.9
371.157	-86.7
371.372	505.17
371.587	-266.92
371.802	-205.48
372.017	62.8
372.232	419.15
372.446	-47.79
372.661	-213.67
372.876	240.98
373.091	200.02
373.306	-90.79
373.52	-264.87
373.735	-139.94
373.95	378.19
374.165	-109.22
374.379	-123.56
374.594	-66.22
374.809	140.63
375.023	89.43
375.238	-273.06
375.453	279.89
375.667	-252.58
375.882	-127.66
376.097	-205.48
376.311	-64.17
376.526	81.24
376.741	-191.14
376.955	144.72
377.17	595.28
377.384	587.08
377.599	-10.92
377.813	-238.25
378.028	535.89
378.242	269.65
378.457	-41.64
378.672	-359.08
378.886	173.39
379.101	-29.35
379.315	-340.65
379.53	-148.14
379.744	161.11
379.958	148.82
380.173	-213.67
380.387	-174.76
380.602	257.36
380.816	3.41
381.031	-154.28
381.245	-72.36
381.459	189.78
381.674	2633.01
381.888	-152.23
382.103	97.62
382.317	-80.55
382.531	433.49
382.746	-66.22
382.96	-203.43
383.174	-4.78
383.388	408.91
383.603	130.39
383.817	-258.73
384.031	161.11
384.246	486.73
384.46	52.56
384.674	390.48
384.888	120.15
385.103	50.52
385.317	-223.91
385.531	-8.87
385.745	445.77
385.959	259.41
386.174	-193.19
386.388	-238.25
386.602	42.32
386.816	-78.51
387.03	-94.89
387.244	3.41
387.458	144.72
387.672	357.71
387.887	-309.93
388.101	-266.92
388.315	425.29
388.529	216.4
388.743	-121.51
388.957	-238.25
389.171	390.48
389.385	-150.18
389.599	-74.41
389.813	101.72
390.027	210.26
390.241	693.58
390.455	-58.03
390.669	-101.03
390.883	-74.41
391.097	390.48
391.311	134.48
391.525	-107.18
391.738	226.64
391.952	214.35
392.166	-82.6
392.38	-225.96
392.594	329.04
392.808	316.75
393.022	-27.31
393.236	-144.04
393.449	255.31
393.663	191.83
393.877	-225.96
394.091	-66.22
394.305	23.89
394.518	-27.31
394.732	-287.4
394.946	-101.03
395.16	535.89
395.373	146.77
395.587	-250.53
395.801	-158.38
396.015	322.9
396.228	347.47
396.442	-221.86
396.656	-236.2
396.869	353.62
397.083	499.02
397.297	-47.79
397.51	-21.16
397.724	429.39
397.938	245.07
398.151	-211.62
398.365	-180.9
398.578	343.38
398.792	466.25
399.005	40.28
399.219	-115.37
399.433	202.07
399.646	240.98
399.86	-19.11
400.073	81.24
400.287	273.75
400.5	-49.83
400.714	-8.87
400.927	27.99
401.141	245.07
401.354	1101.12
401.567	277.84
401.781	-234.15
401.994	298.32
402.208	679.24
402.421	-10.92
402.635	-17.07
402.848	200.02
403.061	413.01
403.275	122.2
403.488	-185
403.701	515.41
403.915	351.57
404.128	62.8
404.341	-121.51
404.555	290.13
404.768	44.37
404.981	97.62
405.195	-119.46
405.408	556.36
405.621	275.79
405.834	23.89
406.048	-162.47
406.261	544.08
406.474	558.41
406.687	-105.13
406.9	25.94
407.114	216.4
407.327	267.6
407.54	-187.05
407.753	-201.38
407.966	-98.99
408.179	314.7
408.392	-137.9
408.605	-207.53
408.819	275.79
409.032	306.51
409.245	-62.12
409.458	146.77
409.671	392.53
409.884	447.82
410.097	-144.04
410.31	159.06
410.523	294.22
410.736	130.39
410.949	-0.68
411.162	-68.27
411.375	560.46
411.588	339.28
411.801	62.8
412.014	-101.03
412.227	236.88
412.44	19.8
412.653	-101.03
412.865	179.54
413.078	308.56
413.291	326.99
413.504	68.95
413.717	-172.71
413.93	367.95
414.143	56.66
414.356	-15.02
414.568	-242.34
414.781	374.1
414.994	200.02
415.207	46.42
415.42	13.65
415.632	439.63
415.845	626
416.058	-150.18
416.271	-135.85
416.483	230.74
416.696	679.24
416.909	-19.11
417.121	-66.22
417.334	374.1
417.547	666.96
417.759	-33.45
417.972	-72.36
418.185	105.81
418.397	421.2
418.61	-82.6
418.823	-68.27
419.035	615.76
419.248	253.27
419.46	-12.97
419.673	146.77
419.885	349.52
420.098	107.86
420.311	15.7
420.523	-215.72
420.736	390.48
420.948	218.45
421.161	3.41
421.373	-230.06
421.586	310.61
421.798	97.62
422.01	-148.14
422.223	193.87
422.435	171.35
422.648	392.53
422.86	23.89
423.073	-33.45
423.285	521.55
423.497	-62.12
423.71	-19.11
423.922	17.75
424.134	374.1
424.347	558.41
424.559	150.87
424.771	292.18
424.984	179.54
425.196	339.28
425.408	-248.49
425.621	-117.42
425.833	499.02
426.045	634.19
426.257	-86.7
426.47	7.51
426.682	277.84
426.894	400.72
427.106	-8.87
427.318	71
427.531	85.33
427.743	447.82
427.955	-15.02
428.167	533.84
428.379	421.2
428.591	218.45
428.804	105.81
429.016	-35.5
429.228	204.11
429.44	380.24
429.652	193.87
429.864	-92.84
430.076	234.83
430.288	189.78
430.5	97.62
430.712	152.91
430.924	456.01
431.136	365.9
431.348	-45.74
431.56	32.08
431.772	349.52
431.984	216.4
432.196	13.65
432.408	107.86
432.62	200.02
432.832	318.8
433.044	388.43
433.256	281.94
433.468	486.73
433.679	-12.97
433.891	44.37
434.103	367.95
434.315	669
434.527	490.83
434.739	169.3
434.95	154.96
435.162	515.41
435.374	120.15
435.586	148.82
435.798	116.05
436.009	130.39
436.221	294.22
436.433	122.2
436.645	240.98
436.856	195.92
437.068	673.1
437.28	34.13
437.491	363.86
437.703	478.54
437.915	410.96
438.126	202.07
438.338	398.67
438.55	367.95
438.761	445.77
438.973	202.07
439.184	230.74
439.396	417.1
439.608	486.73
439.819	52.56
440.031	238.93
440.242	589.13
440.454	564.56
440.665	169.3
440.877	290.13
441.088	562.51
441.3	335.18
441.511	68.95
441.723	142.68
441.934	503.12
442.146	421.2
442.357	286.03
442.569	535.89
442.78	511.31
442.991	914.76
443.203	554.32
443.414	128.34
443.626	847.18
443.837	275.79
444.048	226.64
444.26	191.83
444.471	468.3
444.682	632.14
444.894	134.48
445.105	161.11
445.316	730.44
445.528	572.75
445.739	374.1
445.95	290.13
446.161	521.55
446.373	740.68
446.584	322.9
446.795	281.94
447.006	666.96
447.217	869.7
447.429	142.68
447.64	159.06
447.851	820.55
448.062	593.23
448.273	173.39
448.484	187.73
448.695	654.67
448.907	513.36
449.118	408.91
449.329	462.16
449.54	376.14
449.751	394.58
449.962	363.86
450.173	245.07
450.384	822.6
450.595	744.78
450.806	269.65
451.017	410.96
451.228	890.18
451.439	843.08
451.65	374.1
451.861	81.24
452.072	339.28
452.283	507.21
452.494	503.12
452.705	302.42
452.915	961.86
453.126	666.96
453.337	357.71
453.548	288.08
453.759	793.93
453.97	1125.7
454.181	650.57
454.391	392.53
454.602	654.67
454.813	838.98
455.024	552.27
455.235	380.24
455.445	703.82
455.656	824.65
455.867	572.75
456.078	451.92
456.288	568.65
456.499	707.91
456.71	363.86
456.921	761.16
457.131	722.25
457.342	765.26
457.553	593.23
457.763	466.25
457.974	861.51
458.184	888.14
458.395	535.89
458.606	396.62
458.816	1129.8
459.027	1264.96
459.237	736.59
459.448	367.95
459.659	1092.93
459.869	1375.55
460.08	331.09
460.29	611.66
460.501	1353.02
460.711	691.53
460.922	449.87
461.132	425.29
461.343	1494.33
461.553	511.31
461.764	410.96
461.974	509.26
462.184	1037.64
462.395	1000.77
462.605	611.66
462.816	544.08
463.026	978.25
463.236	1094.98
463.447	626
463.657	660.81
463.867	1101.12
464.078	857.42
464.288	695.63
464.498	673.1
464.709	902.47
464.919	916.81
465.129	869.7
465.339	675.15
465.55	1072.45
465.76	1224
465.97	865.61
466.18	748.87
466.391	1267.01
466.601	1162.56
466.811	785.74
467.021	716.11
467.231	1215.81
467.441	1373.5
467.651	759.11
467.862	519.5
468.072	1125.7
468.282	1490.24
468.492	904.52
468.702	1015.11
468.912	1207.62
469.122	1631.55
469.332	1303.87
469.542	916.81
469.752	1400.13
469.962	1217.86
470.172	867.66
470.382	978.25
470.592	1498.43
470.802	1570.11
471.012	1217.86
471.222	947.53
471.432	1514.81
471.642	1445.18
471.852	1232.19
472.062	1076.55
472.272	1293.63
472.482	1178.95
472.691	1056.07
472.901	968.01
473.111	1406.27
473.321	2067.77
473.531	1146.18
473.741	1316.16
473.95	1649.98
474.16	1584.45
474.37	1430.85
474.58	1131.84
474.79	1985.85
474.999	1744.19
475.209	1344.83
475.419	1260.87
475.628	1645.88
475.838	2002.23
476.048	1469.76
476.258	1469.76
476.467	2057.53
476.677	1656.12
476.886	1731.9
477.096	1674.56
477.306	1678.65
477.515	2098.49
477.725	1729.85
477.935	1662.27
478.144	2301.23
478.354	1764.67
478.563	1770.81
478.773	1611.07
478.982	2075.96
479.192	2430.26
479.401	1920.31
479.611	1762.62
479.82	1901.88
480.03	2057.53
480.239	1844.54
480.449	1807.67
480.658	2442.54
480.868	2110.77
481.077	2010.42
481.287	1908.02
481.496	2284.85
481.705	2622.77
481.915	2223.41
482.124	2331.95
482.333	2331.95
482.543	2702.64
482.752	2190.64
482.961	2078.01
483.171	2538.8
483.38	2213.17
483.589	2305.33
483.799	2295.09
484.008	2454.83
484.217	2741.55
484.426	2346.29
484.636	2229.56
484.845	2764.08
485.054	2272.56
485.263	2811.18
485.472	2534.7
485.682	2970.92
485.891	2772.27
486.1	2309.43
486.309	2520.37
486.518	2872.62
486.727	3134.76
486.936	2526.51
487.146	2858.28
487.355	3267.88
487.564	2719.02
487.773	2764.08
487.982	2667.82
488.191	2751.79
488.4	3073.32
488.609	2667.82
488.818	2874.67
489.027	3577.12
489.236	3464.48
489.445	2864.43
489.654	2710.83
489.863	3431.71
490.072	3423.52
490.281	3325.22
490.49	3067.17
490.698	3493.15
490.907	3624.22
491.116	3040.55
491.325	2854.19
491.534	3802.4
491.743	3446.05
491.952	3288.36
492.16	3140.9
492.369	3523.87
492.578	3728.67
492.787	3319.07
492.996	3147.05
493.204	3239.2
493.413	4042.01
493.622	2985.26
493.831	3020.07
494.039	4062.49
494.248	3515.68
494.457	3274.02
494.665	3198.24
494.874	3812.64
495.083	4220.18
495.291	3487.01
495.5	3446.05
495.709	4050.2
495.917	3767.58
496.126	3587.36
496.335	3413.28
496.543	3734.81
496.752	3890.46
496.96	3951.9
497.169	3476.77
497.377	3935.51
497.586	4205.85
497.794	3861.79
498.003	3466.53
498.211	3984.66
498.42	4275.48
498.628	3878.17
498.837	3749.15
499.045	4295.96
499.254	4394.26
499.462	3759.39
499.671	3849.5
499.879	4779.28
500.087	4480.27
500.296	4009.24
500.504	4039.96
500.713	4322.58
500.921	4947.21
501.129	4031.77
501.338	4087.06
501.546	4664.59
501.754	4324.63
501.962	4101.4
502.171	4011.29
502.379	4644.11
502.587	4986.12
502.795	4257.04
503.004	4130.07
503.212	4721.93
503.42	4840.72
503.628	4205.85
503.837	4381.97
504.045	4951.31
504.253	4908.3
504.461	4275.48
504.669	4285.72
504.877	4842.76
505.085	5106.95
505.294	4345.11
505.502	4678.93
505.71	4834.57
505.918	5008.65
506.126	4480.27
506.334	4437.27
506.542	4896.01
506.75	4984.07
506.958	4689.17
507.166	4621.58
507.374	4883.72
507.582	5408
507.79	4810
507.998	4601.1
508.206	5117.19
508.414	5106.95
508.622	4719.89
508.83	4959.5
509.037	5532.93
509.245	5133.57
509.453	4826.38
509.661	4953.35
509.869	5356.8
510.077	5254.41
510.285	5080.33
510.492	4568.34
510.7	5926.14
510.908	5135.62
511.116	4951.31
511.324	5045.51
511.531	5252.36
511.739	5524.74
511.947	5229.83
512.155	5518.59
512.362	5446.91
512.57	5104.9
512.778	5135.62
512.985	4914.44
513.193	5801.21
513.401	5879.04
513.608	5256.45
513.816	5197.06
514.024	5696.77
514.231	5727.49
514.439	5043.46
514.646	5238.02
514.854	5842.17
515.061	5950.71
515.269	5532.93
515.477	5307.65
515.684	5438.72
515.892	5881.08
516.099	5371.14
516.307	5278.98
516.514	5985.53
516.722	6274.29
516.929	5614.85
517.136	5557.5
517.344	6245.62
517.551	6040.83
517.759	5584.13
517.966	5702.91
518.173	5934.33
518.381	6114.55
518.588	5905.66
518.796	5766.4
519.003	6257.91
519.21	6149.37
519.418	5762.3
519.625	6108.41
519.832	6171.9
520.039	6094.07
520.247	5561.6
520.454	5739.77
520.661	6554.87
520.868	6286.58
521.076	6130.94
521.283	5946.62
521.49	7011.56
521.697	6462.71
521.904	6053.11
522.112	6147.32
522.319	6583.54
522.526	6438.13
522.733	6223.09
522.94	5997.82
523.147	6501.62
523.354	6749.42
523.561	6188.28
523.768	6378.74
523.975	6974.7
524.183	6585.58
524.39	6429.94
524.597	6270.2
524.804	6929.64
525.011	6444.27
525.218	6368.5
525.425	6325.49
525.632	7046.38
525.838	6546.67
526.045	6403.32
526.252	6456.56
526.459	8008.92
526.666	7890.14
526.873	6558.96
527.08	6532.34
527.287	7269.61
527.494	7132.39
527.701	6532.34
527.907	6405.36
528.114	7204.07
528.321	6935.79
528.528	6761.71
528.735	6796.53
528.941	7140.58
529.148	7046.38
529.355	7081.19
529.562	6814.96
529.768	7560.42
529.975	6946.03
530.182	6907.12
530.388	6872.3
530.595	7458.02
530.802	6929.64
531.008	7202.02
531.215	7251.17
531.422	7855.33
531.628	8146.14
531.835	7216.36
532.042	7167.21
532.248	7326.95
532.455	7648.48
532.661	7345.38
532.868	7230.69
533.074	7826.65
533.281	7869.66
533.487	7554.27
533.694	7281.89
533.9	7564.51
534.107	7816.41
534.313	7329
534.52	7396.58
534.726	7994.59
534.933	8068.31
535.139	7599.33
535.345	7556.32
535.552	7990.49
535.758	8092.89
535.965	7775.45
536.171	7638.24
536.377	8099.03
536.584	8498.39
536.79	7726.3
536.996	7873.76
537.203	8156.38
537.409	8340.69
537.615	7744.74
537.821	8072.41
538.028	8420.56
538.234	8355.03
538.44	8068.31
538.646	8039.64
538.853	8535.25
539.059	8207.58
539.265	8488.15
539.471	7836.89
539.677	8525.01
539.883	8416.47
540.09	8086.75
540.296	8735.95
540.502	8498.39
540.708	8328.41
540.914	8492.24
541.12	8314.07
541.326	8647.89
541.532	8457.43
541.738	8410.33
541.944	8465.62
542.15	9137.35
542.356	8678.61
542.562	8271.06
542.768	8694.99
542.974	9542.85
543.18	9309.38
543.386	8676.56
543.592	8522.96
543.798	9364.68
544.004	9219.27
544.21	8840.4
544.415	8803.53
544.621	9262.28
544.827	9278.66
545.033	8672.47
545.239	9010.38
545.445	9063.63
545.651	9104.59
545.856	8989.9
546.062	8830.16
546.268	9153.74
546.474	9356.49
546.679	9102.54
546.885	8953.04
547.091	9186.51
547.297	9942.21
547.502	9182.41
547.708	8907.98
547.914	9374.92
548.119	9608.39
548.325	9073.87
548.531	9120.97
548.736	9592
548.942	9307.34
549.147	9045.2
549.353	9489.6
549.559	9919.68
549.764	9643.2
549.97	9362.63
550.175	9159.88
550.381	9809.09
550.586	9518.28
550.792	9329.86
550.997	9391.3
551.203	9739.46
551.408	9968.83
551.614	9508.04
551.819	9567.43
552.025	10247.35
552.23	10458.29
552.435	9424.07
552.641	10249.4
552.846	9784.51
553.052	10431.67
553.257	9964.73
553.462	9876.67
553.668	9931.97
553.873	10435.77
554.078	9809.09
554.283	9923.77
554.489	10392.76
554.694	10306.74
554.899	9845.95
555.105	10521.78
555.31	10503.35
555.515	10523.83
555.72	10323.13
555.925	9915.58
556.131	10646.71
556.336	10202.3
556.541	9979.07
556.746	10159.29
556.951	10831.02
557.156	10853.55
557.361	10497.21
557.567	10472.63
557.772	11267.24
557.977	10923.18
558.182	10312.89
558.387	10243.26
558.592	10458.29
558.797	10951.85
559.002	10489.01
559.207	10749.11
559.412	10661.04
559.617	11181.23
559.822	10538.16
560.027	10556.6
560.232	11078.83
560.437	11132.08
560.642	10415.29
560.847	10497.21
561.051	10951.85
561.256	11068.59
561.461	10898.61
561.666	10871.98
561.871	11117.74
562.076	11113.64
562.281	10878.13
562.485	10609.84
562.69	11357.35
562.895	11457.7
563.1	10919.09
563.305	10693.81
563.509	11234.47
563.714	11650.21
563.919	11013.29
564.123	11117.74
564.328	11162.8
564.533	11646.12
564.737	11146.41
564.942	11027.63
565.147	11732.13
565.351	11820.19
565.556	11136.17
565.761	11289.77
565.965	11431.08
566.17	11091.12
566.374	11195.56
566.579	11179.18
566.784	11586.72
566.988	11689.12
567.193	11211.95
567.397	11297.96
567.602	11357.35
567.806	11474.09
568.011	11457.7
568.215	11711.65
568.42	11738.27
568.624	11828.38
568.828	11549.86
569.033	11797.67
569.237	12147.87
569.442	12072.09
569.646	11426.98
569.85	11697.31
570.055	12037.28
570.259	11981.98
570.463	12139.68
570.668	11818.15
570.872	11984.03
571.076	12221.59
571.281	11951.26
571.485	12070.05
571.689	12129.44
571.893	12246.17
572.098	11955.36
572.302	11857.06
572.506	12547.22
572.71	12154.01
572.914	12049.57
573.119	12070.05
573.323	12491.93
573.527	12541.08
573.731	12049.57
573.935	12070.05
574.139	12678.29
574.343	12164.25
574.547	12274.84
574.751	12258.46
574.955	12887.18
575.159	12700.82
575.364	12217.5
575.568	12405.91
575.772	12811.41
575.976	13063.31
576.18	12086.43
576.383	12323.99
576.587	12967.06
576.791	12743.83
576.995	12268.7
577.199	12264.6
577.403	13030.54
577.607	13225.1
577.811	12647.57
578.015	12733.59
578.219	13198.48
578.422	13124.75
578.626	12709.01
578.83	12723.35
579.034	13384.84
579.238	13208.72
579.442	12860.56
579.645	13016.21
579.849	13134.99
580.053	13284.49
580.257	12819.6
580.46	13008.01
580.664	13358.22
580.868	13401.22
581.071	13491.34
581.275	13380.75
581.479	13274.25
581.682	13524.1
581.886	12792.98
582.09	13210.76
582.293	13872.26
582.497	13538.44
582.7	13567.11
582.904	13288.59
583.107	13675.65
583.311	13409.42
583.515	13501.58
583.718	13264.01
583.922	13964.42
584.125	14068.86
584.329	13372.55
584.532	13706.37
584.735	14058.62
584.939	13835.39
585.142	13331.59
585.346	13726.85
585.549	13859.97
585.753	13800.58
585.956	13560.97
586.159	13857.92
586.363	14580.85
586.566	14269.56
586.769	13624.45
586.973	13730.95
587.176	14189.69
587.379	14503.03
587.582	13999.23
587.786	14118.01
587.989	14042.24
588.192	14779.51
588.395	14038.14
588.599	14349.43
588.802	14734.45
589.005	14437.5
589.208	14185.6
589.411	14304.38
589.615	14769.27
589.818	14865.52
590.021	14535.8
590.224	14513.27
590.427	14939.25
590.63	14761.08
590.833	14279.8
591.036	14417.02
591.239	14480.5
591.442	14666.87
591.645	14587
591.848	14558.33
592.051	14904.43
592.254	15070.32
592.457	14558.33
592.66	14630.01
592.863	14697.59
593.066	15029.36
593.269	14607.48
593.472	14842.99
593.675	14754.93
593.878	15185.01
594.081	14769.27
594.284	14589.05
594.486	15223.92
594.689	15303.79
594.892	15096.94
595.095	15023.22
595.298	15262.83
595.5	15191.15
595.703	15352.94
595.906	15305.84
596.109	15563.88
596.311	15821.92
596.514	14896.24
596.717	15117.42
596.92	15901.79
597.122	15438.95
597.325	14834.8
597.528	14992.5
597.73	16008.29
597.933	15473.77
598.136	15381.61
598.338	15193.2
598.541	15795.3
598.743	16049.25
598.946	15381.61
599.148	15486.06
599.351	15965.28
599.554	16018.53
599.756	15414.38
599.959	15438.95
600.161	16067.68
600.363	16886.87
600.566	15873.12
600.768	15780.96
600.971	16430.17
601.173	16151.65
601.376	15860.84
601.578	15969.38
601.78	16366.68
601.983	16497.75
602.185	15928.42
602.388	16016.48
602.59	16059.49
602.792	15914.08
602.995	16290.91
603.197	15801.44
603.399	16225.37
603.601	16346.2
603.804	15973.47
604.006	15967.33
604.208	16211.04
604.41	15717.48
604.613	16292.96
604.815	16208.99
605.017	16772.18
605.219	16190.56
605.421	16278.62
605.623	16331.87
605.826	17034.32
606.028	16845.91
606.23	16397.4
606.432	16163.93
606.634	17062.99
606.836	16850
607.038	16180.32
607.24	16663.64
607.442	16827.48
607.644	16682.07
607.846	16413.79
608.048	16303.2
608.25	16987.22
608.452	16639.06
608.654	16370.78
608.856	16147.55
609.058	16807
609.26	16921.68
609.462	16411.74
609.664	16569.43
609.866	17196.11
610.067	16979.03
610.269	16727.13
610.471	16702.55
610.673	17091.66
610.875	17282.13
611.077	16622.68
611.278	16917.59
611.48	16942.16
611.682	17259.6
611.884	16987.22
612.085	16858.2
612.287	16915.54
612.489	17087.57
612.69	16665.69
612.892	17042.51
613.094	17275.98
613.295	17318.99
613.497	16729.17
613.699	16784.47
613.9	17701.96
614.102	17106
614.304	17153.1
614.505	16620.63
614.707	17282.13
614.908	17271.89
615.11	16591.96
615.311	16979.03
615.513	17716.29
615.714	17548.36
615.916	16915.54
616.117	16927.83
616.319	17370.19
616.52	17609.8
616.722	16948.31
616.923	17128.53
617.124	17648.71
617.326	17370.19
617.527	17345.61
617.729	17380.43
617.93	18039.87
618.131	17857.6
618.333	17034.32
618.534	17216.59
618.735	17546.31
618.937	17947.72
619.138	17030.23
619.339	17261.65
619.54	17962.05
619.742	17314.89
619.943	17640.52
620.144	17546.31
620.345	18111.55
620.546	17951.81
620.748	17613.9
620.949	17488.97
621.15	17857.6
621.351	17902.66
621.552	17617.99
621.753	17366.09
621.954	17648.71
622.155	18363.45
622.356	17470.54
622.558	17734.73
622.759	18033.73
622.96	18406.46
623.161	17697.86
623.362	17448.01
623.563	18097.22
623.764	18199.62
623.965	17732.68
624.166	18119.74
624.366	18150.46
624.567	18033.73
624.768	17534.03
624.969	17785.93
625.17	17830.98
625.371	18277.44
625.572	17845.32
625.773	17753.16
625.973	18455.61
626.174	18670.65
626.375	18082.88
626.576	18213.95
626.777	18259.01
626.977	18732.09
627.178	18107.46
627.379	18107.46
627.58	18328.64
627.78	18326.59
627.981	17902.66
628.182	18390.08
628.382	18715.7
628.583	18033.73
628.784	18029.63
628.984	18259.01
629.185	18658.36
629.386	18854.97
629.586	18443.32
629.787	18265.15
629.987	18304.06
630.188	18521.15
630.388	18355.26
630.589	18504.76
630.79	19164.21
630.99	18918.45
631.191	18670.65
631.391	18435.13
631.591	18695.22
631.792	19285.04
631.992	18660.41
632.193	18410.56
632.393	18965.56
632.594	18738.23
632.794	18361.41
632.994	18771
633.195	18836.53
633.395	18914.36
633.595	18457.66
633.796	18940.98
633.996	18756.66
634.196	19176.5
634.397	19086.39
634.597	18545.72
634.797	18762.81
634.997	19362.86
635.198	18756.66
635.398	18627.64
635.598	19207.22
635.798	19741.74
635.998	18863.16
636.199	18607.16
636.399	19090.48
636.599	18562.11
636.799	18953.27
636.999	19235.89
637.199	19407.92
637.399	19860.52
637.599	18959.41
637.799	18947.12
637.999	19164.21
638.199	19907.62
638.399	19037.23
638.599	19067.95
638.799	19530.8
638.999	20120.61
639.199	19172.4
639.399	19334.19
639.599	19809.32
639.799	19131.44
639.999	19174.45
640.199	19174.45
640.399	19663.91
640.599	19233.84
640.799	19571.75
640.998	19516.46
641.198	19549.23
641.398	19418.16
641.598	19973.16
641.798	19530.8
641.997	20601.88
642.197	19891.24
642.397	19737.64
642.597	19588.14
642.796	20063.27
642.996	20266.02
643.196	19629.1
643.395	19459.12
643.595	19827.75
643.795	19516.46
643.994	19735.59
644.194	19528.75
644.394	20173.86
644.593	19672.11
644.793	19723.3
644.992	19848.23
645.192	20239.39
645.392	19713.06
645.591	20114.47
645.791	20081.7
645.99	20360.22
646.19	19823.65
646.389	19833.89
646.589	19850.28
646.788	20335.65
646.987	20231.2
647.187	20251.68
647.386	20233.25
647.586	20519.96
647.785	20532.25
647.984	20069.41
648.184	20352.03
648.383	20253.73
648.582	19930.15
648.782	20104.23
648.981	20036.64
649.18	20161.57
649.38	20653.08
649.579	20294.69
649.778	20038.69
649.977	20794.39
650.177	20698.14
650.376	20311.07
650.575	20192.29
650.774	20691.99
650.973	20589.6
651.173	19997.73
651.372	20472.86
651.571	20585.5
651.77	20909.08
651.969	20528.16
652.168	20456.48
652.367	20278.3
652.566	20573.21
652.765	20550.68
652.964	20679.71
653.163	21324.82
653.362	20724.76
653.561	20366.37
653.76	20722.71
653.959	20765.72
654.158	21218.32
654.357	20859.93
654.556	20589.6
654.755	21107.73
654.954	21318.67
655.153	20616.22
655.352	20722.71
655.551	21062.68
655.749	20835.35
655.948	20945.94
656.147	20864.02
656.346	20878.36
656.545	21025.81
656.743	20739.1
656.942	20995.09
657.141	21085.2
657.34	20988.95
657.538	21152.79
657.737	20730.9
657.936	21050.39
658.135	20814.87
658.333	20677.66
658.532	21111.83
658.731	21945.35
658.929	21165.07
659.128	21201.94
659.326	20831.26
659.525	21824.52
659.724	21265.42
659.922	21019.67
660.121	20827.16
660.319	21261.33
660.518	21081.11
660.716	20849.69
660.915	21279.76
661.113	21726.22
661.312	21148.69
661.51	21345.3
661.709	21144.59
661.907	21597.2
662.105	21722.12
662.304	21154.83
662.502	21226.51
662.701	21515.28
662.899	21195.79
663.097	21384.21
663.296	21085.2
663.494	21820.42
663.692	21791.75
663.891	21439.5
664.089	21091.35
664.287	21902.34
664.485	21861.38
664.684	21163.03
664.882	21500.94
665.08	21476.37
665.278	21668.87
665.476	21367.82
665.675	21652.49
665.873	22064.13
666.071	21675.02
666.269	21183.51
666.467	21556.24
666.665	21574.67
666.863	21840.9
667.061	21416.97
667.259	21541.9
667.457	22072.32
667.655	21730.31
667.853	21595.15
668.051	21339.15
668.249	21617.68
668.447	22066.18
668.645	21419.02
668.843	22025.22
669.041	22041.6
669.239	21638.16
669.437	21591.05
669.635	21888.01
669.833	21603.34
670.031	21718.03
670.229	21726.22
670.426	21791.75
670.624	21462.03
670.822	21785.61
671.02	21490.7
671.218	21484.56
671.415	21595.15
671.613	21941.25
671.811	21535.76
672.009	21937.16
672.206	22285.31
672.404	22197.25
672.602	21830.66
672.799	22043.65
672.997	22199.3
673.195	22293.51
673.392	21797.9
673.59	21668.87
673.788	22010.89
673.985	21351.44
674.183	21988.36
674.38	21431.31
674.578	22012.93
674.775	21869.58
674.973	21367.82
675.17	21904.39
675.368	22139.91
675.565	22168.58
675.763	21484.56
675.96	21580.81
676.158	22465.53
676.355	21562.38
676.553	21660.68
676.75	21578.76
676.947	22035.46
677.145	21810.18
677.342	22133.76
677.539	21949.45
677.737	22062.08
677.934	22508.54
678.131	21969.93
678.329	21656.59
678.526	22557.69
678.723	22125.57
678.92	21935.11
679.118	21830.66
679.315	21586.96
679.512	22219.78
679.709	21898.25
679.906	21810.18
680.104	22316.03
680.301	22066.18
680.498	21597.2
680.695	21621.77
680.892	21941.25
681.089	21828.62
681.286	21791.75
681.483	21376.02
681.68	22150.15
681.877	22150.15
682.075	22131.72
682.272	21783.56
682.469	21937.16
682.665	22039.56
682.862	21525.52
683.059	21392.4
683.256	22057.99
683.453	21926.92
683.65	21607.44
683.847	21793.8
684.044	21769.23
684.241	21726.22
684.438	22094.85
684.635	21466.13
684.831	22238.21
685.028	22488.06
685.225	21431.31
685.422	21558.28
685.619	21943.3
685.815	21707.79
686.012	21773.32
686.209	21226.51
686.405	21574.67
686.602	21894.15
686.799	21521.42
686.996	21797.9
687.192	21459.98
687.389	22260.74
687.586	21457.93
687.782	21937.16
687.979	22170.63
688.175	21773.32
688.372	21722.12
688.568	21763.08
688.765	21611.53
688.962	22047.75
689.158	21679.11
689.355	21967.88
689.551	21984.26
689.748	21830.66
689.944	21593.1
690.14	21656.59
690.337	21949.45
690.533	21726.22
690.73	21543.95
690.926	21986.31
691.123	21822.47
691.319	21931.01
691.515	21756.94
691.712	21380.11
691.908	21969.93
692.104	21777.42
692.301	21726.22
692.497	21576.72
692.693	21947.4
692.889	22273.03
693.086	21625.87
693.282	21107.73
693.478	21871.62
693.674	22096.9
693.87	21484.56
694.067	21505.04
694.263	21912.58
694.459	21400.59
694.655	21797.9
694.851	21679.11
695.047	22168.58
695.243	21974.02
695.439	21554.19
695.635	21697.55
695.831	21847.05
696.027	21883.91
696.224	21287.95
696.42	22035.46
696.615	22408.19
696.811	21869.58
697.007	21191.7
697.203	21576.72
697.399	22029.32
697.595	22088.71
697.791	21333.01
697.987	21595.15
698.183	21492.75
698.379	21382.16
698.575	21695.5
698.77	21505.04
698.966	21842.95
699.162	21785.61
699.358	21330.96
699.554	21330.96
699.749	21978.12
699.945	21713.93
700.141	21455.89
700.337	21711.88
700.532	21736.46
700.728	21416.97
700.924	21783.56
701.119	21171.22
701.315	21836.81
701.511	21654.54
701.706	21541.9
701.902	20991
702.097	21691.4
702.293	21924.87
702.489	21597.2
702.684	21554.19
702.88	21761.03
703.075	21447.69
703.271	21267.47
703.466	21183.51
703.662	21484.56
703.857	21855.24
704.053	21447.69
704.248	21484.56
704.443	22012.93
704.639	21888.01
704.834	21705.74
705.03	21740.55
705.225	22031.37
705.42	21859.34
705.616	21574.67
705.811	20984.85
706.006	21396.49
706.202	21554.19
706.397	21148.69
706.592	21232.66
706.787	21414.93
706.983	21455.89
707.178	21527.56
707.373	21412.88
707.568	21683.21
707.763	21828.62
707.959	21333.01
708.154	21861.38
708.349	21685.26
708.544	21681.16
708.739	21402.64
708.934	21290
709.129	21697.55
709.324	21744.65
709.519	21220.37
709.714	21195.79
709.909	21740.55
710.104	21537.8
710.299	20974.61
710.494	21355.54
710.689	21675.02
710.884	21591.05
711.079	21505.04
711.274	21318.67
711.469	21984.26
711.664	21685.26
711.859	21171.22
712.054	21457.93
712.249	21931.01
712.443	21679.11
712.638	21165.07
712.833	21320.72
713.028	21666.83
713.223	21281.81
713.417	21238.8
713.612	21439.5
713.807	21605.39
714.002	22187.01
714.196	21488.65
714.391	21302.29
714.586	21691.4
714.78	21320.72
714.975	21044.24
715.17	20950.04
715.364	21507.09
715.559	21859.34
715.754	20788.25
715.948	20864.02
716.143	21781.51
716.337	21621.77
716.532	21050.39
716.726	21548.04
716.921	21558.28
717.115	21912.58
717.31	20855.83
717.504	21427.21
717.699	21195.79
717.893	21894.15
718.088	21009.43
718.282	21056.53
718.476	21177.36
718.671	21154.83
718.865	21189.65
719.059	20902.93
719.254	21244.95
719.448	21554.19
719.642	22131.72
719.837	20935.7
720.031	21271.57
720.225	21097.49
720.419	21130.26
720.614	21079.06
720.808	21212.18
721.002	20997.14
721.196	20642.84
721.39	20874.26
721.585	21238.8
721.779	21085.2
721.973	20814.87
722.167	20587.55
722.361	20728.86
722.555	21335.06
722.749	20638.75
722.943	20888.6
723.137	20579.36
723.331	21019.67
723.525	20605.98
723.719	20589.6
723.913	20988.95
724.107	21398.54
724.301	20802.58
724.495	20614.17
724.689	21515.28
724.883	21218.32
725.077	20454.43
725.271	20687.9
725.465	21113.88
725.659	20976.66
725.853	20722.71
726.046	20448.29
726.24	20485.15
726.434	20839.45
726.628	20761.62
726.822	20685.85
727.015	21263.38
727.209	21339.15
727.403	20827.16
727.596	20571.16
727.79	20976.66
727.984	21042.2
728.177	20642.84
728.371	20925.46
728.565	21156.88
728.758	20712.47
728.952	20573.21
729.146	20663.32
729.339	21474.32
729.533	21023.76
729.726	20503.58
729.92	20567.07
730.113	21304.34
730.307	21287.95
730.5	20438.05
730.694	20778.01
730.887	20896.79
731.081	21511.18
731.274	20499.48
731.468	20737.05
731.661	21140.5
731.854	20984.85
732.048	20823.06
732.241	20634.65
732.435	20792.34
732.628	20886.55
732.821	20626.46
733.014	20704.28
733.208	20511.77
733.401	21212.18
733.594	20722.71
733.788	20849.69
733.981	21267.47
734.174	20933.65
734.367	20816.92
734.56	20888.6
734.754	21349.39
734.947	20884.5
735.14	20614.17
735.333	21052.44
735.526	21281.81
735.719	20759.58
735.912	20769.82
736.105	20796.44
736.298	21187.6
736.491	20679.71
736.684	20642.84
736.877	20636.7
737.07	21021.72
737.263	21218.32
737.456	20808.73
737.649	20671.51
737.842	20968.47
738.035	21058.58
738.228	20546.59
738.421	20974.61
738.614	21263.38
738.807	21271.57
739	20390.94
739.192	20642.84
739.385	20976.66
739.578	21138.45
739.771	20741.14
739.964	20431.9
740.156	20909.08
740.349	20679.71
740.542	21052.44
740.735	20286.5
740.927	20655.13
741.12	20505.63
741.313	20595.74
741.505	20888.6
741.698	21152.79
741.891	21445.65
742.083	20839.45
742.276	20972.57
742.468	21117.97
742.661	21074.96
742.854	20761.62
743.046	20634.65
743.239	21087.25
743.431	21023.76
743.624	20847.64
743.816	20628.51
744.009	21021.72
744.201	20921.37
744.393	20622.36
744.586	20425.76
744.778	20964.37
744.971	20794.39
745.163	20730.9
745.355	20655.13
745.548	20726.81
745.74	20476.96
745.932	20481.05
746.125	20614.17
746.317	21175.31
746.509	20661.27
746.702	20311.07
746.894	20370.46
747.086	20796.44
747.278	20921.37
747.471	20884.5
747.663	20349.98
747.855	20726.81
748.047	20941.85
748.239	20569.12
748.431	20534.3
748.623	21097.49
748.815	20845.59
749.008	20093.99
749.2	20216.86
749.392	21220.37
749.584	20616.22
749.776	20495.39
749.968	20694.04
750.16	21408.78
750.352	20397.09
750.544	20671.51
750.736	20358.17
750.928	20657.18
751.12	20522.01
751.311	20280.35
751.503	20063.27
751.695	20763.67
751.887	20552.73
752.079	20073.51
752.271	20444.19
752.463	21281.81
752.654	20884.5
752.846	20151.33
753.038	20319.26
753.23	20685.85
753.421	20581.4
753.613	20223.01
753.805	20585.5
753.997	20560.92
754.188	20624.41
754.38	20167.71
754.572	20147.23
754.763	20294.69
754.955	20298.78
755.146	19889.19
755.338	20130.85
755.53	20411.42
755.721	20341.79
755.913	19907.62
756.104	19756.07
756.296	20401.18
756.487	20177.95
756.679	20057.12
756.87	19885.09
757.062	19549.23
757.253	20298.78
757.445	19776.55
757.636	19971.11
757.827	20276.26
758.019	20845.59
758.21	19954.72
758.401	20075.55
758.593	20444.19
758.784	20544.54
758.975	19348.53
759.167	19811.37
759.358	19930.15
759.549	20216.86
759.74	19614.76
759.932	19856.42
760.123	20167.71
760.314	19885.09
760.505	19629.1
760.696	19653.67
760.888	20509.72
761.079	20026.4
761.27	19287.09
761.461	19422.25
761.652	20313.12
761.843	19733.54
762.034	19633.19
762.225	19858.47
762.416	19903.53
762.607	19708.97
762.798	19569.71
762.989	19487.79
763.18	20532.25
763.371	19592.23
763.562	19428.4
763.753	19213.36
763.944	20237.34
764.135	19631.15
764.326	19444.78
764.517	19362.86
764.708	19942.44
764.899	19815.46
765.089	19131.44
765.28	18848.82
765.471	19926.05
765.662	19614.76
765.853	19119.15
766.043	19088.43
766.234	19756.07
766.425	19817.51
766.615	19131.44
766.806	19160.11
766.997	19801.13
767.187	19487.79
767.378	19061.81
767.569	18877.49
767.759	19342.38
767.95	19612.71
768.141	19082.29
768.331	19160.11
768.522	19246.13
768.712	19295.28
768.903	19022.9
769.093	18705.46
769.284	19414.06
769.474	19369.01
769.665	18779.19
769.855	18803.77
770.046	19475.5
770.236	18838.58
770.426	19108.91
770.617	18727.99
770.807	19131.44
770.998	18928.69
771.188	18857.01
771.378	18693.18
771.569	19242.03
771.759	19211.31
771.949	18635.83
772.139	18613.31
772.33	18734.14
772.52	19295.28
772.71	18515
772.9	18410.56
773.09	19516.46
773.281	19369.01
773.471	18541.63
773.661	18447.42
773.851	18914.36
774.041	18674.74
774.231	18506.81
774.421	18680.89
774.611	19113.01
774.802	18568.25
774.992	18297.92
775.182	18312.25
775.372	18533.43
775.562	18928.69
775.752	18381.88
775.942	18299.97
776.131	19049.52
776.321	18691.13
776.511	18601.02
776.701	18140.22
776.891	18754.62
777.081	18156.61
777.271	18363.45
777.461	18275.39
777.651	18601.02
777.84	18916.4
778.03	18396.22
778.22	18111.55
778.41	18738.23
778.599	18125.89
778.789	18357.31
778.979	18177.09
779.169	18480.19
779.358	18170.94
779.548	18213.95
779.738	17888.32
779.927	17943.62
780.117	17966.15
780.307	17863.75
780.496	17716.29
780.686	18447.42
780.875	18568.25
781.065	18183.23
781.254	17728.58
781.444	18193.47
781.633	18150.46
781.823	17960
782.012	17581.13
782.202	17845.32
782.391	18156.61
782.581	17646.66
782.77	18113.6
782.96	18304.06
783.149	17544.27
783.338	17763.4
783.528	17781.83
783.717	18129.98
783.906	18197.57
784.096	17644.62
784.285	17642.57
784.474	17585.22
784.663	17527.88
784.853	17306.7
785.042	17501.26
785.231	17882.18
785.42	18125.89
785.61	17417.29
785.799	17230.93
785.988	17544.27
786.177	17476.68
786.366	17488.97
786.555	17607.75
786.744	18158.66
786.933	17718.34
787.122	17464.39
787.312	17280.08
787.501	17552.46
787.69	17427.53
787.879	17837.13
788.068	17200.21
788.257	17251.41
788.445	17362
788.634	17284.17
788.823	17261.65
789.012	18408.51
789.201	17685.58
789.39	17316.94
789.579	17341.52
789.768	17589.32
789.957	17218.64
790.145	17316.94
790.334	16876.63
790.523	17329.23
790.712	17407.05
790.9	17001.55
791.089	16807
791.278	17478.73
791.467	17579.08
791.655	17433.68
791.844	17466.44
792.033	17054.8
792.221	16942.16
792.41	17144.91
792.599	16514.14
792.787	17409.1
792.976	17318.99
793.164	16796.76
793.353	17062.99
793.541	17296.46
793.73	17214.54
793.918	16931.92
794.107	16864.34
794.295	17052.75
794.484	17165.39
794.672	16850
794.861	16645.21
795.049	16995.41
795.238	17427.53
795.426	16634.97
795.614	16794.71
795.803	17429.58
795.991	17392.72
796.179	16489.56
796.368	16524.38
796.556	17050.71
796.744	16438.36
796.932	16997.46
797.121	16551
797.309	16733.27
797.497	16956.5
797.685	16804.95
797.874	16671.83
798.062	16741.46
798.25	17042.51
798.438	16770.13
798.626	16557.14
798.814	16976.98
799.002	17445.96
799.19	17091.66
799.378	16686.17
799.566	16991.31
799.755	17347.66
799.943	16854.1
800.131	16886.87
800.318	17173.58
800.506	16981.07
800.694	16598.1
800.882	16807
801.07	17411.15
801.258	16907.35
801.446	16657.5
801.634	16321.63
801.822	16751.7
802.01	17009.75
802.197	16667.73
802.385	16761.94
802.573	17157.2
802.761	17042.51
802.949	16768.09
803.136	16641.11
803.324	17364.04
803.512	17247.31
803.699	16942.16
803.887	16542.81
804.075	17116.24
804.262	16845.91
804.45	16628.82
804.638	16813.14
804.825	17138.77
805.013	16895.06
805.201	17142.86
805.388	16559.19
805.576	17013.84
805.763	17738.82
805.951	16845.91
806.138	17124.43
806.326	17830.98
806.513	17228.88
806.701	16976.98
806.888	16763.99
807.075	17589.32
807.263	17554.51
807.45	17032.27
807.638	17106
807.825	17597.51
808.012	17402.96
808.2	17056.85
808.387	17390.67
808.574	17388.62
808.761	17734.73
808.949	17124.43
809.136	17149.01
809.323	17478.73
809.51	17347.66
809.698	17566.79
809.885	17308.75
810.072	17511.5
810.259	17816.65
810.446	16823.38
810.633	17040.47
810.82	17902.66
811.008	17775.69
811.195	17456.2
811.382	17396.81
811.569	17577.03
811.756	17202.25
811.943	17362
812.13	17163.34
812.317	17255.5
812.504	17574.99
812.691	17312.85
812.878	17495.11
813.064	17960
813.251	17771.59
813.438	17374.28
813.625	17239.12
813.812	17632.33
813.999	17771.59
814.186	17232.97
814.372	17431.63
814.559	17529.93
814.746	17787.97
814.933	17310.8
815.12	17800.26
815.306	17390.67
815.493	17314.89
815.68	17198.16
815.866	17108.05
816.053	17892.42
816.24	17957.96
816.426	17476.68
816.613	17155.15
816.799	17808.45
816.986	17869.89
817.173	17058.9
817.359	17120.34
817.546	17437.77
817.732	17220.69
817.919	17044.56
818.105	17366.09
818.292	17130.58
818.478	17740.87
818.665	17398.86
818.851	17077.33
819.037	18068.55
819.224	17415.24
819.41	16915.54
819.597	16864.34
819.783	17859.65
819.969	17628.23
820.156	17062.99
820.342	17259.6
820.528	18185.28
820.714	17189.97
820.901	17370.19
821.087	17347.66
821.273	17663.05
821.459	17343.56
821.646	17329.23
821.832	17362
822.018	17421.39
822.204	17372.24
822.39	17171.54
822.576	16729.17
822.762	17448.01
822.948	17249.36
823.134	17062.99
823.32	16649.3
823.507	16862.29
823.693	16991.31
823.879	17437.77
824.065	16895.06
824.25	17138.77
824.436	16747.61
824.622	16751.7
824.808	17071.18
824.994	17062.99
825.18	16798.8
825.366	16702.55
825.552	16868.44
825.738	17042.51
825.923	17454.15
826.109	17112.14
826.295	16735.32
826.481	16921.68
826.667	16964.69
826.852	16837.72
827.038	16485.47
827.224	17013.84
827.409	17001.55
827.595	16182.37
827.781	16729.17
827.966	16886.87
828.152	17239.12
828.338	16626.78
828.523	16272.48
828.709	16739.41
828.894	17042.51
829.08	16456.79
829.266	16303.2
829.451	16673.88
829.637	16956.5
829.822	16475.23
830.008	16125.02
830.193	17009.75
830.378	16856.15
830.564	16534.62
830.749	16190.56
830.935	16643.16
831.12	16731.22
831.305	16032.86
831.491	16335.96
831.676	16303.2
831.861	16637.02
832.047	16094.3
832.232	15948.9
832.417	16530.52
832.602	16342.11
832.788	16262.24
832.973	15985.76
833.158	16252
833.343	16284.76
833.528	15940.71
833.714	15955.04
833.899	16317.53
834.084	16516.19
834.269	16239.71
834.454	16313.44
834.639	16335.96
834.824	16348.25
835.009	16016.48
835.194	15981.67
835.379	16622.68
835.564	16444.51
835.749	16120.93
835.934	15668.33
836.119	16249.95
836.304	16047.2
836.489	15772.77
836.674	16147.55
836.859	15807.59
837.044	16206.94
837.228	15852.64
837.413	15461.48
837.598	16266.33
837.783	16229.47
837.968	15922.27
838.152	15510.63
838.337	15547.5
838.522	16292.96
838.707	16415.83
838.891	15875.17
839.076	15899.75
839.261	16125.02
839.445	15674.47
839.63	15412.33
839.815	16235.61
839.999	15725.67
840.184	15379.56
840.368	15373.42
840.553	15873.12
840.737	15977.57
840.922	14969.97
841.106	15258.73
841.291	15537.26
841.475	15776.87
841.66	15381.61
841.844	14965.87
842.029	16153.69
842.213	15389.8
842.397	15395.95
842.582	15225.96
842.766	15737.96
842.951	15770.72
843.135	15367.27
843.319	15297.64
843.504	15606.89
843.688	15735.91
843.872	14933.11
844.056	15111.28
844.241	15608.94
844.425	15221.87
844.609	15385.71
844.793	15000.69
844.977	15381.61
845.161	15266.92
845.346	14857.33
845.53	14879.86
845.714	15494.25
845.898	15635.56
846.082	14959.73
846.266	14822.52
846.45	15090.8
846.634	15354.99
846.818	14797.94
847.002	15297.64
847.186	15209.58
847.37	14705.78
847.554	14638.2
847.738	14810.23
847.922	14904.43
848.106	14920.82
848.29	14365.82
848.473	14812.28
848.657	15043.7
848.841	14937.2
849.025	14603.38
849.209	14490.74
849.392	15068.27
849.576	14974.06
849.76	14539.9
849.944	14470.26
850.127	15178.86
850.311	14666.87
850.495	14378.11
850.678	14359.67
850.862	15197.29
851.046	15199.34
851.229	14599.29
851.413	14431.35
851.596	14636.15
851.78	14646.39
851.964	14498.94
852.147	14601.33
852.331	15565.93
852.514	15084.66
852.698	14308.48
852.881	14314.62
853.065	14879.86
853.248	14652.53
853.431	14558.33
853.615	14486.65
853.798	15006.83
853.982	14617.72
854.165	14478.46
854.348	13988.99
854.532	14251.13
854.715	14468.22
854.898	14257.28
855.081	13890.69
855.265	14709.88
855.448	14916.72
855.631	14118.01
855.814	14134.4
855.997	14464.12
856.181	14363.77
856.364	14070.91
856.547	14146.69
856.73	14357.63
856.913	14165.12
857.096	13753.48
857.279	14040.19
857.462	14056.57
857.645	14410.87
857.828	13816.96
858.011	14011.52
858.194	13900.93
858.377	14118.01
858.56	13882.5
858.743	13880.45
858.926	13823.11
859.109	14161.02
859.292	13620.36
859.475	13360.27
859.658	14167.17
859.841	14113.92
860.023	13431.94
860.206	13395.08
860.389	14042.24
860.572	14175.36
860.755	13597.83
860.937	13571.21
861.12	13810.82
861.303	13900.93
861.486	13724.8
861.668	13456.52
861.851	13939.84
862.034	13880.45
862.216	13597.83
862.399	13073.55
862.581	13700.23
862.764	14025.86
862.947	13339.79
863.129	13255.82
863.312	13204.62
863.494	13790.34
863.677	13550.73
863.859	12790.93
864.042	13685.89
864.224	13810.82
864.406	13307.02
864.589	13008.01
864.771	13513.86
864.954	12967.06
865.136	13053.07
865.318	12893.33
865.501	13395.08
865.683	12610.71
865.865	12950.67
866.048	13077.65
866.23	13081.74
866.412	13259.91
866.594	12719.25
866.777	12983.44
866.959	13298.83
867.141	12954.77
867.323	13067.41
867.505	13028.49
867.687	12887.18
867.869	13327.5
868.052	13003.92
868.234	12666
868.416	13098.13
868.598	13366.41
868.78	12840.08
868.962	12604.57
869.144	13323.4
869.326	13274.25
869.508	12829.84
869.69	12604.57
869.872	12835.99
870.054	13233.29
870.236	12397.72
870.417	12627.09
870.599	12971.15
870.781	13311.11
870.963	12526.74
871.145	12739.73
871.327	12602.52
871.508	13130.89
871.69	12610.71
871.872	12631.19
872.054	12958.86
872.235	13188.24
872.417	12645.52
872.599	12553.37
872.78	13343.88
872.962	12989.58
873.144	12440.73
873.325	12663.96
873.507	13395.08
873.689	13091.98
873.87	12715.16
874.052	12934.29
874.233	12983.44
874.415	12901.52
874.596	12532.89
874.778	12330.14
874.959	12805.27
875.141	13073.55
875.322	12721.3
875.503	12428.44
875.685	13124.75
875.866	12541.08
876.048	12457.11
876.229	12799.12
876.41	12993.68
876.592	13022.35
876.773	12586.13
876.954	12303.51
877.136	13460.62
877.317	12831.89
877.498	12598.42
877.679	12545.17
877.86	13266.06
878.042	13001.87
878.223	12954.77
878.404	12989.58
878.585	13444.23
878.766	13585.54
878.947	13028.49
879.128	13218.96
879.309	13294.73
879.49	13106.32
879.672	13005.97
879.853	12682.39
880.034	12889.23
880.215	13028.49
880.396	12819.6
880.576	13026.45
880.757	13038.73
880.938	13479.05
881.119	13104.27
881.3	12887.18
881.481	12962.96
881.662	14126.21
881.843	12790.93
882.023	12934.29
882.204	13294.73
882.385	13350.03
882.566	13008.01
882.747	13067.41
882.927	13395.08
883.108	13364.36
883.289	13161.61
883.469	13415.56
883.65	13386.89
883.831	13638.79
884.011	13274.25
884.192	13192.33
884.373	13544.58
884.553	13651.08
884.734	13317.26
884.914	13544.58
885.095	14398.59
885.275	14171.26
885.456	13495.43
885.636	13186.19
885.817	13409.42
885.997	13755.52
886.178	13251.72
886.358	13415.56
886.538	13806.72
886.719	14740.6
886.899	13565.06
887.08	13835.39
887.26	13999.23
887.44	13507.72
887.621	13237.39
887.801	13573.25
887.981	14369.91
888.161	13892.74
888.342	13421.7
888.522	13872.26
888.702	14124.16
888.882	14009.47
889.062	13907.07
889.242	13352.07
889.423	14300.28
889.603	14261.37
889.783	13923.46
889.963	13477
890.143	14191.74
890.323	14318.71
890.503	13751.43
890.683	13849.73
890.863	14128.25
891.043	14021.76
891.223	13749.38
891.403	13915.26
891.583	14056.57
891.763	14050.43
891.943	13853.83
892.122	13905.03
892.302	14281.85
892.482	13831.3
892.662	13819.01
892.842	13692.04
893.022	13894.79
893.201	13876.35
893.381	13933.7
893.561	13806.72
893.741	14300.28
893.92	14075.01
894.1	13792.39
894.28	14126.21
894.459	14013.57
894.639	14128.25
894.819	13888.64
894.998	13970.56
895.178	14265.47
895.357	14152.83
895.537	13612.17
895.716	13685.89
895.896	14077.05
896.075	14365.82
896.255	13689.99
896.434	13714.56
896.614	14007.42
896.793	14482.55
896.973	13763.72
897.152	13712.52
897.331	14228.6
897.511	14460.02
897.69	13612.17
897.87	13962.37
898.049	14191.74
898.228	14175.36
898.407	13864.07
898.587	13722.76
898.766	13806.72
898.945	14099.58
899.124	13800.58
899.304	13902.98
899.483	14240.89
899.662	14183.55
899.841	13730.95
900.02	13522.06
900.199	14367.87
900.378	13958.27
900.557	13356.17
900.737	13591.69
900.916	14056.57
901.095	13909.12
901.274	13808.77
901.453	13472.9
901.632	13481.1
901.811	13673.6
901.989	13264.01
902.168	13216.91
902.347	14044.29
902.526	13204.62
902.705	13360.27
902.884	13583.49
903.063	14029.95
903.242	13843.59
903.42	13399.18
903.599	13462.66
903.778	13853.83
903.957	13950.08
904.135	13403.27
904.314	13360.27
904.493	13458.57
904.672	13671.56
904.85	12926.1
905.029	13364.36
905.207	13702.28
905.386	14154.88
905.565	13141.13
905.743	13143.18
905.922	13116.56
906.1	13624.45
906.279	12749.97
906.457	12840.08
906.636	13083.79
906.814	13233.29
906.993	12713.11
907.171	12993.68
907.35	13345.93
907.528	13421.7
907.707	13128.84
907.885	12749.97
908.063	13438.09
908.242	12969.1
908.42	12766.35
908.598	12514.45
908.777	12975.25
908.955	13046.93
909.133	13030.54
909.311	12571.8
909.49	12647.57
909.668	13012.11
909.846	12709.01
910.024	12336.28
910.202	12813.46
910.38	13042.83
910.559	12092.57
910.737	12442.78
910.915	12647.57
911.093	12858.51
911.271	12473.49
911.449	12823.7
911.627	12688.53
911.805	13218.96
911.983	12436.63
912.161	12188.83
912.339	12668.05
912.517	12934.29
912.695	12328.09
912.872	12221.59
913.05	12463.26
913.228	12461.21
913.406	12061.85
913.584	12240.03
913.762	12444.82
913.939	12287.13
914.117	11938.98
914.295	11932.83
914.473	12188.83
914.65	12475.54
914.828	11922.59
915.006	11816.1
915.184	11699.36
915.361	12133.53
915.539	11781.28
915.716	12039.33
915.894	11994.27
916.072	12217.5
916.249	11877.54
916.427	11789.47
916.604	11549.86
916.782	12076.19
916.959	11564.2
917.137	11474.09
917.314	11941.02
917.492	11928.74
917.669	11349.16
917.847	11519.14
918.024	11617.44
918.201	11383.98
918.379	11398.31
918.556	11361.45
918.733	11846.82
918.911	11588.77
919.088	11525.29
919.265	11291.82
919.442	11656.36
919.62	11275.43
919.797	11070.64
919.974	10740.91
920.151	11275.43
920.328	11089.07
920.506	11033.77
920.683	11392.17
920.86	11213.99
921.037	10984.62
921.214	11072.68
921.391	10896.56
921.568	11037.87
921.745	10822.83
921.922	10925.23
922.099	10624.18
922.276	11345.06
922.453	10798.26
922.63	10603.7
922.807	10689.71
922.984	10843.31
923.161	10626.23
923.338	10337.46
923.514	10366.14
923.691	10484.92
923.868	10685.62
924.045	10185.91
924.222	10210.49
924.399	10630.32
924.575	10794.16
924.752	10323.13
924.929	10278.07
925.105	10595.51
925.282	9989.31
925.459	10065.08
925.635	10171.58
925.812	10493.11
925.989	9886.91
926.165	10093.76
926.342	9841.86
926.518	9956.54
926.695	10036.41
926.871	9882.81
927.048	9467.08
927.224	10235.07
927.401	9764.03
927.577	9620.67
927.754	9698.5
927.93	10026.17
928.107	9958.59
928.283	9647.3
928.459	9665.73
928.636	9772.22
928.812	9360.58
928.988	9290.95
929.165	9311.43
929.341	9542.85
929.517	9499.84
929.693	9542.85
929.87	9129.16
930.046	9563.33
930.222	9223.37
930.398	9153.74
930.574	8932.56
930.751	9102.54
930.927	8987.85
931.103	9041.1
931.279	8826.06
931.455	8850.64
931.631	8877.26
931.807	8484.05
931.983	8545.49
932.159	8740.05
932.335	9008.33
932.511	8588.5
932.687	8449.24
932.863	8758.48
933.039	8572.11
933.215	8236.25
933.391	8180.95
933.566	8361.17
933.742	8342.74
933.918	8164.57
934.094	7875.81
934.27	8219.86
934.445	8180.95
934.621	8070.36
934.797	7621.86
934.973	8002.78
935.148	7937.24
935.324	7492.83
935.5	7320.81
935.675	7912.67
935.851	7781.6
936.027	7245.03
936.202	7218.41
936.378	7355.62
936.553	7148.78
936.729	7357.67
936.904	6581.49
937.08	6544.63
937.255	6677.74
937.431	6429.94
937.606	6196.47
937.782	6264.05
937.957	6427.89
938.133	6204.66
938.308	6014.2
938.483	6124.79
938.659	5844.22
938.834	5889.28
939.009	5635.33
939.185	5698.81
939.36	5485.83
939.535	5172.49
939.71	5561.6
939.886	5729.53
940.061	5651.71
940.236	5201.16
940.411	5281.03
940.586	5524.74
940.761	5457.15
940.937	4961.55
941.112	4705.55
941.287	5117.19
941.462	5197.06
941.637	4654.35
941.812	4617.49
941.987	4943.11
942.162	4881.67
942.337	4709.65
942.512	4615.44
942.687	5000.46
942.862	4781.32
943.037	4361.49
943.212	4117.78
943.386	4656.4
943.561	4805.9
943.736	4445.46
943.911	4631.82
944.086	4740.36
944.26	4586.77
944.435	4447.51
944.61	4375.83
944.785	4695.31
944.959	4934.92
945.134	4275.48
945.309	4347.15
945.483	4214.04
945.658	4723.98
945.833	3968.28
946.007	4050.2
946.182	4746.51
946.357	4148.5
946.531	4070.68
946.706	4246.8
946.88	4050.2
947.055	4590.86
947.229	4273.43
947.404	4085.01
947.578	4732.17
947.752	4381.97
947.927	4048.15
948.101	3882.27
948.276	4373.78
948.45	4484.37
948.624	4384.02
948.799	4140.31
948.973	4478.23
949.147	4121.88
949.321	4334.87
949.496	4175.13
949.67	4703.5
949.844	4381.97
950.018	4207.89
950.193	4119.83
950.367	4744.46
950.541	4300.05
950.715	4345.11
950.889	4392.21
951.063	4551.95
951.237	4558.1
951.411	4044.06
951.585	4117.78
951.759	4601.1
951.933	4402.45
952.107	4072.73
952.281	4435.22
952.455	4750.6
952.629	4576.53
952.803	4279.57
952.977	4082.97
953.151	4666.64
953.325	4668.69
953.499	4424.98
953.672	4025.62
953.846	4144.41
954.02	4334.87
954.194	4058.39
954.368	4003.1
954.541	4676.88
954.715	4189.46
954.889	4228.37
955.062	3982.62
955.236	4424.98
955.41	4240.66
955.583	4279.57
955.757	4039.96
955.93	4273.43
956.104	4166.93
956.278	4091.16
956.451	4076.82
956.625	4455.7
956.798	4715.79
956.972	4365.59
957.145	3904.79
957.319	4267.28
957.492	4338.96
957.665	4189.46
957.839	4107.54
958.012	4402.45
958.185	4298
958.359	3933.47
958.532	4281.62
958.705	4574.48
958.879	4359.44
959.052	4076.82
959.225	3861.79
959.398	4232.47
959.572	4300.05
959.745	3872.03
959.918	4111.64
960.091	4334.87
960.264	4381.97
960.438	3894.55
960.611	3853.59
960.784	4508.94
960.957	4140.31
961.13	4316.44
961.303	3886.36
961.476	4166.93
961.649	4295.96
961.822	3921.18
961.995	4021.53
962.168	4259.09
962.341	4304.15
962.514	4001.05
962.686	3749.15
962.859	4113.69
963.032	4187.41
963.205	3843.35
963.378	3800.35
963.551	4211.99
963.723	4062.49
963.896	4072.73
964.069	4023.58
964.242	4091.16
964.414	4384.02
964.587	4021.53
964.76	4027.67
964.932	4148.5
965.105	4070.68
965.278	4009.24
965.45	4001.05
965.623	4150.55
965.795	4265.24
965.968	3847.45
966.14	3714.33
966.313	3857.69
966.485	4095.25
966.658	3745.05
966.83	3697.95
967.003	4293.91
967.175	4199.7
967.348	3996.95
967.52	3749.15
967.692	4379.92
967.865	4203.8
968.037	3783.96
968.209	4058.39
968.382	4046.1
968.554	4199.7
968.726	3773.72
968.898	3616.03
969.071	3999
969.243	4195.61
969.415	3730.72
969.587	3730.72
969.759	4191.51
969.932	4185.37
970.104	3747.1
970.276	3491.1
970.448	3734.81
970.62	3833.11
970.792	3933.47
970.964	3687.71
971.136	4345.11
971.308	3908.89
971.48	3659.04
971.652	3568.93
971.824	4179.22
971.996	3661.09
972.168	3573.02
972.339	3495.2
972.511	4175.13
972.683	3671.33
972.855	3816.73
973.027	3777.82
973.199	3904.79
973.37	4058.39
973.542	3667.23
973.714	3730.72
973.886	3812.64
974.057	4037.91
974.229	3405.09
974.401	3476.77
974.572	3542.3
974.744	3263.78
974.915	3468.58
975.087	3327.27
975.259	4125.97
975.43	3624.22
975.602	3458.34
975.773	3276.07
975.945	3497.25
976.116	3831.07
976.288	3368.23
976.459	3593.5
976.63	3411.23
976.802	3630.37
976.973	3290.4
977.145	3638.56
977.316	4123.93
977.487	3898.65
977.659	3480.86
977.83	3444
978.001	4056.34
978.172	3634.46
978.344	3274.02
978.515	3378.47
978.686	3513.63
978.857	3788.06
979.028	3411.23
979.2	3214.63
979.371	3700
979.542	3499.3
979.713	3292.45
979.884	2862.38
980.055	3288.36
980.226	3400.99
980.397	3380.51
980.568	3185.96
980.739	3798.3
980.91	3423.52
981.081	3386.66
981.252	3253.54
981.423	3591.45
981.594	3677.47
981.765	3112.23
981.936	3435.81
982.106	3456.29
982.277	3743
982.448	3120.42
982.619	3378.47
982.79	3218.72
982.96	3677.47
983.131	3126.57
983.302	2893.1
983.472	3323.17
983.643	3394.85
983.814	3294.5
983.984	3030.31
984.155	3339.55
984.326	3538.21
984.496	3235.11
984.667	3110.18
984.837	3210.53
985.008	3403.04
985.178	3267.88
985.349	2997.54
985.519	3235.11
985.69	3034.41
985.86	2987.3
986.031	2970.92
986.201	3263.78
986.371	3360.03
986.542	2952.49
986.712	2854.19
986.882	3339.55
987.053	3372.32
987.223	2927.91
987.393	3099.94
987.563	3020.07
987.734	3292.45
987.904	3288.36
988.074	2946.34
988.244	3192.1
988.414	2985.26
988.585	2862.38
988.755	2972.97
988.925	3013.93
989.095	3448.1
989.265	2862.38
989.435	2932.01
989.605	3276.07
989.775	3304.74
989.945	3149.09
990.115	2776.36
990.285	3028.26
990.455	3153.19
990.625	2878.76
990.795	2743.6
990.965	3226.92
991.134	2905.38
991.304	2559.28
991.474	2684.2
991.644	3013.93
991.814	3241.25
991.984	2624.81
992.153	2641.2
992.323	2950.44
992.493	2841.9
992.662	2463.02
992.832	2823.47
993.002	2954.54
993.171	3132.71
993.341	2520.37
993.511	2788.65
993.68	2628.91
993.85	3018.02
994.019	2434.35
994.189	2518.32
994.358	2864.43
994.528	2790.7
994.697	2364.72
994.867	2555.18
995.036	3085.61
995.206	2616.62
995.375	2479.41
995.544	2848.04
995.714	2886.95
995.883	2630.96
996.052	2733.36
996.222	2282.8
996.391	3349.79
996.56	2829.61
996.73	2387.25
996.899	2444.59
997.068	3124.52
997.237	2747.69
997.406	2516.27
997.576	2475.31
997.745	2678.06
997.914	2776.36
998.083	2348.34
998.252	2331.95
998.421	2549.04
998.59	2389.3
998.759	2311.47
998.928	2139.44
999.097	2897.19
999.266	2766.12
999.435	2448.69
999.604	2080.05
999.773	3177.76
999.942	2495.79
1000.111	2200.88
1000.28	2061.62
1000.448	2344.24
1000.617	2362.67
1000.786	2471.22
1000.955	2190.64
1001.124	2643.24
1001.292	3093.8
1001.461	2166.07
1001.63	2121.01
1001.798	2841.9
1001.967	2776.36
1002.136	2106.68
1002.304	2108.73
1002.473	2510.13
1002.642	2635.05
1002.81	2235.7
1002.979	2078.01
1003.147	2581.81
1003.316	2987.3
1003.484	2215.22
1003.653	2002.23
1003.821	2723.12
1003.99	2395.44
1004.158	2252.08
1004.327	2254.13
1004.495	2469.17
1004.663	2047.29
1004.832	2331.95
1005	2016.57
1005.168	2491.7
1005.337	2424.11
1005.505	2032.95
1005.673	2268.47
1005.842	2372.91
1006.01	2501.94
1006.178	1930.55
1006.346	1965.37
1006.514	2405.68
1006.683	2567.47
1006.851	2096.44
1007.019	1774.91
1007.187	2190.64
1007.355	1842.49
1007.523	1813.82
1007.691	1793.34
1007.859	1873.21
1008.027	2536.75
1008.195	1873.21
1008.363	1815.87
1008.531	2434.35
1008.699	2018.61
1008.867	1783.1
1009.035	1883.45
1009.203	2450.74
1009.37	2194.74
1009.538	1789.24
1009.706	2243.89
1009.874	2233.65
1010.042	2086.2
1010.209	1715.52
1010.377	1766.71
1010.545	2307.38
1010.713	2223.41
1010.88	1887.54
1011.048	1838.39
1011.216	2071.86
1011.383	2512.17
1011.551	1828.15
1011.718	1551.68
1011.886	2350.39
1012.054	2073.91
1012.221	1760.57
1012.389	1703.23
1012.556	2000.18
1012.724	2370.87
1012.891	1846.59
1013.058	1568.06
1013.226	2108.73
1013.393	2092.34
1013.561	1551.68
1013.728	1617.21
1013.895	2161.97
1014.063	2071.86
1014.23	1475.9
1014.397	1637.69
1014.565	2186.55
1014.732	1817.91
1014.899	1645.88
1015.066	1498.43
1015.233	1975.61
1015.401	2006.33
1015.568	1596.73
1015.735	1598.78
1015.902	1969.46
1016.069	1899.83
1016.236	1494.33
1016.403	1424.7
1016.57	1733.95
1016.737	2118.96
1016.904	1498.43
1017.071	1404.22
1017.238	1742.14
1017.405	2067.77
1017.572	1578.3
1017.739	1676.6
1017.906	1914.17
1018.073	1987.89
1018.24	1443.14
1018.407	1488.19
1018.573	2104.63
1018.74	1729.85
1018.907	1543.49
1019.074	1389.89
1019.241	2051.38
1019.407	1809.72
1019.574	1377.6
1019.741	1221.95
1019.907	1912.12
1020.074	1879.35
1020.241	1156.42
1020.407	1338.69
1020.574	1846.59
1020.74	1867.06
1020.907	1408.32
1021.073	1154.37
1021.24	2217.27
1021.406	2043.19
1021.573	1224
1021.739	1193.28
1021.906	1860.92
1022.072	1609.02
1022.239	1467.71
1022.405	1238.34
1022.571	1611.07
1022.738	1596.73
1022.904	1217.86
1023.07	1244.48
1023.237	1576.25
1023.403	1785.15
1023.569	1307.97
1023.735	1260.87
1023.902	1733.95
1024.068	1695.04
1024.234	1121.6
1024.4	1148.23
1024.566	1649.98
1024.732	1701.18
1024.898	1359.17
1025.065	1027.4
1025.231	1744.19
1025.397	1445.18
1025.563	1152.32
1025.729	1137.99
1025.895	1058.12
1026.061	1152.32
1026.227	963.91
1026.392	1150.28
1026.558	1699.13
1026.724	1649.98
1026.89	1051.97
1027.056	1195.33
1027.222	1654.08
1027.388	1307.97
1027.553	1027.4
1027.719	970.05
1027.885	1928.5
1028.051	1510.72
1028.216	822.6
1028.382	1101.12
1028.548	1537.34
1028.713	1318.21
1028.879	918.86
1029.045	1244.48
1029.21	1731.9
1029.376	1682.75
1029.541	1039.69
1029.707	1066.31
1029.873	1525.05
1030.038	1498.43
1030.204	949.57
1030.369	1025.35
1030.534	1615.16
1030.7	1273.15
1030.865	968.01
1031.031	918.86
1031.196	1449.28
1031.361	1396.03
1031.527	970.05
1031.692	875.85
1031.857	896.33
1032.023	1457.47
1032.188	769.35
1032.353	935.24
1032.518	1686.84
1032.684	1396.03
1032.849	748.87
1033.014	896.33
1033.179	1412.42
1033.344	1412.42
1033.509	1027.4
1033.674	855.37
1033.839	1340.74
1034.004	1406.27
1034.17	824.65
1034.335	732.49
1034.5	1011.01
1034.664	1117.51
1034.829	793.93
1034.994	877.9
1035.159	1305.92
1035.324	1291.59
1035.489	875.85
1035.654	793.93
1035.819	1453.38
1035.984	1271.11
1036.148	943.43
1036.313	855.37
1036.478	1457.47
1036.643	1232.19
1036.807	802.12
1036.972	677.19
1037.137	1416.51
1037.301	1187.14
1037.466	636.24
1037.631	875.85
1037.795	1445.18
1037.96	1238.34
1038.124	859.46
1038.289	652.62
1038.454	1297.73
1038.618	1264.96
1038.783	775.5
1038.947	767.31
1039.111	1144.13
1039.276	1086.79
1039.44	744.78
1039.605	1256.77
1039.769	939.34
1039.933	996.68
1040.098	720.2
1040.262	1029.45
1040.426	1246.53
1040.591	1232.19
1040.755	658.76
1040.919	703.82
1041.083	1133.89
1041.248	1002.82
1041.412	486.73
1041.576	560.46
1041.74	1072.45
1041.904	1215.81
1042.068	515.41
1042.232	761.16
1042.397	1310.02
1042.561	1017.16
1042.725	460.11
1042.889	777.55
1043.053	1195.33
1043.217	1072.45
1043.381	734.54
1043.544	535.89
1043.708	1058.12
1043.872	843.08
1044.036	386.38
1044.2	566.6
1044.364	1224
1044.528	1359.17
1044.691	2039.09
1044.855	466.25
1045.019	1097.03
1045.183	1094.98
1045.346	560.46
1045.51	515.41
1045.674	1135.94
1045.837	1043.78
1046.001	605.52
1046.165	521.55
1046.328	1414.46
1046.492	1105.22
1046.655	697.67
1046.819	613.71
1046.983	806.22
1047.146	941.38
1047.31	681.29
1047.473	392.53
1047.636	851.27
1047.8	732.49
1047.963	519.5
1048.127	507.21
1048.29	709.96
