Data from Ink_Intensity_USB4F045381__5__00005.txt Node

Date: Mon Jul 17 09:26:25 EDT 2023
User: mmckonesweet
Spectrometer: USB4F04538
Trigger mode: 4
Integration Time (sec): 9.000000E-1
Scans to average: 1
Electric dark correction enabled: true
Nonlinearity correction enabled: false
Boxcar width: 0
XAxis mode: Wavelengths
Number of Pixels in Spectrum: 3648
>>>>>Begin Spectral Data<<<<<
345.52	-819.7
345.736	-819.7
345.952	-819.7
346.168	-895.47
346.384	-864.75
346.6	-92.67
346.816	-201.21
347.032	-217.6
347.248	151.04
347.464	-152.06
347.68	-84.48
347.896	120.32
348.112	411.13
348.328	-35.33
348.544	-86.53
348.76	-49.66
348.975	237.05
349.191	-197.12
349.407	-49.66
349.623	48.64
349.839	-94.72
350.055	-90.62
350.27	171.52
350.486	204.28
350.702	443.9
350.918	259.58
351.133	-193.02
351.349	144.89
351.565	400.89
351.781	-113.15
351.996	79.36
352.212	355.83
352.428	-160.25
352.644	-20.99
352.859	-145.92
353.075	284.16
353.291	-2.56
353.506	-51.71
353.722	-98.81
353.938	-80.38
354.153	456.19
354.369	62.98
354.584	-80.38
354.8	202.24
355.016	-231.93
355.231	-125.44
355.447	24.06
355.662	112.13
355.878	953.84
356.093	-231.93
356.309	81.41
356.524	-223.74
356.74	265.72
356.955	24.06
357.171	108.03
357.386	222.72
357.602	-141.82
357.817	103.93
358.033	-51.71
358.248	404.99
358.464	110.08
358.679	36.35
358.895	-164.35
359.11	-10.75
359.325	400.89
359.541	202.24
359.756	22.02
359.972	-186.88
360.187	192
360.402	-111.1
360.618	-96.77
360.833	906.74
361.048	128.51
361.264	-143.87
361.479	3.58
361.694	-47.62
361.909	169.47
362.125	11.78
362.34	-66.05
362.555	212.48
362.77	140.8
362.986	-111.1
363.201	-35.33
363.416	290.3
363.631	112.13
363.847	-6.66
364.062	-76.29
364.277	208.38
364.492	173.57
364.707	-70.14
364.922	-190.97
365.138	259.58
365.353	378.36
365.568	-51.71
365.783	60.93
365.998	116.22
366.213	628.21
366.428	-10.75
366.643	228.86
366.858	374.27
367.073	194.05
367.288	1.54
367.503	24.06
367.718	161.28
367.933	257.53
368.148	-117.25
368.363	34.3
368.578	112.13
368.793	538.1
369.008	44.54
369.223	-127.49
369.438	306.68
369.653	577.02
369.868	-55.81
370.083	-66.05
370.298	194.05
370.513	464.38
370.728	226.81
370.943	19.97
371.157	-55.81
371.372	507.38
371.587	-121.34
371.802	-143.87
372.017	167.42
372.232	505.34
372.446	101.89
372.661	-145.92
372.876	290.3
373.091	232.96
373.306	62.98
373.52	13.82
373.735	24.06
373.95	478.71
374.165	132.61
374.379	38.4
374.594	-125.44
374.809	144.89
375.023	273.92
375.238	-78.33
375.453	349.69
375.667	-217.6
375.882	85.5
376.097	65.02
376.311	208.38
376.526	151.04
376.741	-39.42
376.955	267.77
377.17	656.89
377.384	640.5
377.599	67.07
377.813	-12.8
378.028	658.93
378.242	269.82
378.457	167.42
378.672	-182.78
378.886	169.47
379.101	46.59
379.315	-37.38
379.53	44.54
379.744	374.27
379.958	378.36
380.173	108.03
380.387	112.13
380.602	376.31
380.816	48.64
381.031	62.98
381.245	65.02
381.459	343.55
381.674	2260.45
381.888	11.78
382.103	261.63
382.317	3.58
382.531	663.03
382.746	210.43
382.96	105.98
383.174	60.93
383.388	562.68
383.603	325.12
383.817	28.16
384.031	351.74
384.246	620.02
384.46	275.96
384.674	527.86
384.888	331.26
385.103	183.81
385.317	34.3
385.531	183.81
385.745	439.8
385.959	493.05
386.174	177.66
386.388	58.88
386.602	194.05
386.816	120.32
387.03	196.09
387.244	132.61
387.458	341.5
387.672	617.97
387.887	34.3
388.101	87.55
388.315	665.08
388.529	361.98
388.743	101.89
388.957	140.8
389.171	595.45
389.385	105.98
389.599	282.11
389.813	435.71
390.027	413.18
390.241	851.44
390.455	265.72
390.669	202.24
390.883	208.38
391.097	638.45
391.311	407.03
391.525	157.18
391.738	425.47
391.952	388.6
392.166	392.7
392.38	159.23
392.594	554.49
392.808	638.45
393.022	269.82
393.236	249.34
393.449	513.53
393.663	417.27
393.877	93.69
394.091	316.92
394.305	316.92
394.518	226.81
394.732	175.61
394.946	335.35
395.16	738.8
395.373	415.23
395.587	249.34
395.801	255.48
396.015	628.21
396.228	544.25
396.442	161.28
396.656	173.57
396.869	716.28
397.083	710.13
397.297	415.23
397.51	345.59
397.724	882.16
397.938	531.96
398.151	177.66
398.365	290.3
398.578	665.08
398.792	841.2
399.005	476.66
399.219	353.79
399.433	570.87
399.646	632.31
399.86	521.72
400.073	527.86
400.287	650.74
400.5	304.64
400.714	458.23
400.927	486.9
401.141	642.55
401.354	1502.7
401.567	650.74
401.781	302.59
401.994	730.61
402.208	1048.05
402.421	396.79
402.635	486.9
402.848	517.62
403.061	798.2
403.275	519.67
403.488	382.46
403.701	933.36
403.915	703.99
404.128	622.07
404.341	386.55
404.555	685.56
404.768	546.3
404.981	527.86
405.195	411.13
405.408	1086.96
405.621	757.24
405.834	654.84
406.048	413.18
406.261	853.49
406.474	962.03
406.687	431.61
406.9	579.06
407.114	617.97
407.327	642.55
407.54	337.4
407.753	390.65
407.966	497.14
408.179	757.24
408.392	429.56
408.605	364.03
408.819	792.05
409.032	830.96
409.245	495.1
409.458	755.19
409.671	775.67
409.884	888.31
410.097	402.94
410.31	765.43
410.523	781.81
410.736	566.78
410.949	579.06
411.162	605.69
411.375	1107.44
411.588	929.27
411.801	773.62
412.014	548.34
412.227	796.15
412.44	654.84
412.653	517.62
412.865	749.04
413.078	1000.94
413.291	894.45
413.504	677.37
413.717	595.45
413.93	1009.14
414.143	558.58
414.356	734.71
414.568	556.54
414.781	1019.38
414.994	818.68
415.207	744.95
415.42	810.48
415.632	1064.43
415.845	1256.94
416.058	652.79
416.271	587.26
416.483	835.06
416.696	1316.33
416.909	697.85
417.121	679.41
417.334	1054.19
417.547	1332.72
417.759	804.34
417.972	667.13
418.185	701.94
418.397	1078.77
418.61	783.86
418.823	790
419.035	1310.19
419.248	925.17
419.46	882.16
419.673	912.88
419.885	1185.26
420.098	888.31
420.311	910.83
420.523	685.56
420.736	1138.16
420.948	945.65
421.161	845.3
421.373	699.89
421.586	1070.58
421.798	869.87
422.01	742.9
422.223	976.37
422.435	927.22
422.648	1224.17
422.86	906.74
423.073	896.5
423.285	1388.01
423.497	757.24
423.71	898.55
423.922	890.35
424.134	1246.7
424.347	1537.51
424.559	1156.59
424.771	1211.89
424.984	1035.76
425.196	1246.7
425.408	986.61
425.621	878.07
425.833	1471.98
426.045	1428.97
426.257	957.94
426.47	1043.95
426.682	1330.67
426.894	1314.28
427.106	1132.01
427.318	1084.91
427.531	1005.04
427.743	1394.15
427.955	1091.06
428.167	1394.15
428.379	1416.68
428.591	1240.56
428.804	1224.17
429.016	1101.3
429.228	1256.94
429.44	1353.2
429.652	1281.52
429.864	1011.18
430.076	1258.99
430.288	1187.31
430.5	1248.75
430.712	1310.19
430.924	1699.3
431.136	1400.3
431.348	1041.9
431.56	1164.78
431.772	1318.38
431.984	1320.43
432.196	1228.27
432.408	1297.9
432.62	1435.11
432.832	1623.53
433.044	1578.47
433.256	1527.27
433.468	1545.7
433.679	1179.12
433.891	1279.47
434.103	1644.01
434.315	1981.92
434.527	1676.77
434.739	1431.02
434.95	1455.59
435.162	1998.31
435.374	1502.7
435.586	1500.65
435.798	1420.78
436.009	1451.5
436.221	1486.31
436.433	1463.79
436.645	1508.84
436.856	1465.83
437.068	1885.67
437.28	1564.14
437.491	1867.24
437.703	1691.11
437.915	1850.85
438.126	1588.71
438.338	1926.63
438.55	1854.95
438.761	1871.33
438.973	1648.1
439.184	1609.19
439.396	2020.83
439.608	2018.79
439.819	1605.1
440.031	1801.7
440.242	1979.87
440.454	2010.59
440.665	1840.61
440.877	1857
441.088	1897.96
441.3	1889.76
441.511	1539.56
441.723	1725.93
441.934	1902.05
442.146	1902.05
442.357	2049.5
442.569	2037.22
442.78	1912.29
442.991	2373.08
443.203	2086.37
443.414	1840.61
443.626	2190.81
443.837	1936.87
444.048	1801.7
444.26	1764.84
444.471	2039.26
444.682	2338.27
444.894	1656.29
445.105	1842.66
445.316	2319.84
445.528	2280.93
445.739	2004.45
445.95	2076.13
446.161	2090.46
446.373	2412
446.584	2069.98
446.795	2098.66
447.006	2192.86
447.217	2477.53
447.429	1795.56
447.64	1902.05
447.851	2368.99
448.062	2377.18
448.273	1914.34
448.484	1983.97
448.695	2348.51
448.907	2112.99
449.118	2170.33
449.329	2336.22
449.54	2231.77
449.751	1920.48
449.962	2139.62
450.173	2196.96
450.384	2622.94
450.595	2698.71
450.806	2274.78
451.017	2242.01
451.228	2688.47
451.439	2557.4
451.65	2180.57
451.861	2057.7
452.072	2213.34
452.283	2430.43
452.494	2532.83
452.705	2342.36
452.915	2844.12
453.126	2661.85
453.337	2418.14
453.548	2418.14
453.759	2813.4
453.97	3116.5
454.181	2547.16
454.391	2532.83
454.602	2811.35
454.813	2831.83
455.024	2577.88
455.235	2571.74
455.445	2731.48
455.656	2907.6
455.867	2702.81
456.078	2665.94
456.288	2600.41
456.499	2852.31
456.71	2651.61
456.921	2743.77
457.131	2942.42
457.342	2958.8
457.553	2817.49
457.763	2534.87
457.974	3173.84
458.184	2956.75
458.395	2854.36
458.606	2749.91
458.816	3315.15
459.027	3438.03
459.237	3003.86
459.448	2837.97
459.659	3376.59
459.869	3636.68
460.08	2899.41
460.29	3313.1
460.501	3706.31
460.711	3151.31
460.922	2954.71
461.132	3268.05
461.343	3855.81
461.553	3042.77
461.764	3196.37
461.974	3188.18
462.184	3519.95
462.395	3603.91
462.605	3448.27
462.816	3153.36
463.026	3528.14
463.236	3880.39
463.447	3366.35
463.657	3382.73
463.867	3866.05
464.078	3591.63
464.288	3595.72
464.498	3636.68
464.709	3749.32
464.919	3665.35
465.129	3671.5
465.339	3673.54
465.55	4011.46
465.76	4167.1
465.97	3675.59
466.18	3777.99
466.391	4332.99
466.601	4068.8
466.811	4064.71
467.021	3950.02
467.231	4427.2
467.441	4410.81
467.651	4355.52
467.862	3943.88
468.072	4548.03
468.282	4695.48
468.492	4115.91
468.702	4380.09
468.912	4629.95
469.122	5041.59
469.332	4746.68
469.542	4406.72
469.752	5062.07
469.962	4877.75
470.172	4625.85
470.382	4756.92
470.592	5207.47
470.802	5289.39
471.012	5084.59
471.222	4920.76
471.432	5352.88
471.642	5342.64
471.852	5230
472.062	5193.14
472.272	5334.45
472.482	5311.92
472.691	5320.11
472.901	5133.75
473.111	5744.04
473.321	6116.77
473.531	5574.06
473.741	5471.66
473.95	5981.6
474.16	5854.63
474.37	5969.32
474.58	5711.27
474.79	6518.17
474.999	6311.33
475.209	5811.62
475.419	6196.64
475.628	6282.66
475.838	6710.68
476.048	6370.72
476.258	6239.65
476.467	6974.87
476.677	6649.24
476.886	6768.02
477.096	6770.07
477.306	6710.68
477.515	7024.02
477.725	6909.33
477.935	6956.44
478.144	7402.9
478.354	7073.17
478.563	7153.04
478.773	7204.24
478.982	7628.17
479.192	7773.58
479.401	7466.38
479.611	7316.88
479.82	7464.33
480.03	7843.21
480.239	7640.46
480.449	7519.63
480.658	8435.07
480.868	7931.27
481.077	7986.57
481.287	7986.57
481.496	8201.6
481.705	8770.94
481.915	8570.24
482.124	8324.48
482.333	8349.06
482.543	8867.19
482.752	8478.08
482.961	8390.02
483.171	8871.29
483.38	8654.2
483.589	8752.51
483.799	8793.47
484.008	8971.64
484.217	9299.31
484.426	8926.58
484.636	9059.7
484.845	9280.88
485.054	9186.68
485.263	9559.41
485.472	9219.44
485.682	10012.01
485.891	9637.23
486.1	9139.57
486.309	9784.68
486.518	9848.17
486.727	10136.93
486.936	9688.43
487.146	9934.18
487.355	10460.51
487.564	9860.46
487.773	10241.38
487.982	10177.89
488.191	10308.96
488.4	10558.81
488.609	10507.62
488.818	10583.39
489.027	10956.12
489.236	11134.29
489.445	10777.95
489.654	10532.19
489.863	11171.16
490.072	11013.46
490.281	11058.52
490.49	11117.91
490.698	11414.87
490.907	11666.77
491.116	11160.92
491.325	11232.6
491.534	11875.66
491.743	11418.96
491.952	11650.38
492.16	11427.15
492.369	11498.83
492.578	12037.45
492.787	11742.54
492.996	11709.77
493.204	11883.85
493.413	12567.87
493.622	11914.57
493.831	11750.73
494.039	12467.52
494.248	12277.06
494.457	12186.95
494.665	12076.36
494.874	12655.93
495.083	13034.81
495.291	12383.56
495.5	12692.8
495.709	12889.4
495.917	12893.5
496.126	12586.3
496.335	12655.93
496.543	12776.77
496.752	13196.6
496.96	13094.2
497.169	12930.36
497.377	13063.48
497.586	13550.9
497.794	13385.01
498.003	13004.09
498.211	13391.16
498.42	13946.16
498.628	13321.52
498.837	13612.34
499.045	13563.19
499.254	13659.44
499.462	13632.82
499.671	13661.49
499.879	14243.11
500.087	14208.3
500.296	13739.31
500.504	13876.52
500.713	14216.49
500.921	14966.04
501.129	14046.51
501.338	13927.72
501.546	14454.05
501.754	14294.31
501.962	14161.19
502.171	14050.6
502.379	14871.84
502.587	14828.83
502.795	14226.73
503.004	14202.15
503.212	14941.47
503.42	15056.15
503.628	14662.94
503.837	14990.62
504.045	15058.2
504.253	15396.12
504.461	14759.2
504.669	14755.1
504.877	15490.32
505.085	15408.4
505.294	15019.29
505.502	14861.6
505.71	15475.99
505.918	15318.29
506.126	15371.54
506.334	15103.26
506.542	15607.06
506.75	15529.24
506.958	15320.34
507.166	15590.67
507.374	15641.87
507.582	16129.29
507.79	15600.91
507.998	15514.9
508.206	16049.42
508.414	16086.28
508.622	15809.81
508.83	15951.12
509.037	16450.82
509.245	15707.41
509.453	15678.74
509.661	15770.9
509.869	16635.14
510.077	15883.53
510.285	16133.39
510.492	15861.01
510.7	17108.22
510.908	16160.01
511.116	16321.8
511.324	16123.15
511.531	16557.32
511.739	16676.1
511.947	16401.67
512.155	16602.37
512.362	16518.4
512.57	16491.78
512.778	16432.39
512.985	16477.44
513.193	16985.34
513.401	17208.57
513.608	16698.63
513.816	16651.52
514.024	17112.31
514.231	17372.41
514.439	16798.98
514.646	16946.43
514.854	17556.72
515.061	17188.09
515.269	17161.47
515.477	17132.79
515.684	17224.95
515.892	17573.11
516.099	17132.79
516.307	17188.09
516.514	17485.05
516.722	17868.02
516.929	17276.15
517.136	17245.43
517.344	17878.26
517.551	17882.35
517.759	17730.8
517.966	17644.79
518.173	17714.42
518.381	18050.28
518.588	17755.38
518.796	17732.85
519.003	18250.99
519.21	18111.72
519.418	17796.34
519.625	18373.86
519.832	18275.56
520.039	18506.98
520.247	17904.88
520.454	18167.02
520.661	18898.14
520.868	18523.37
521.076	18402.54
521.283	18377.96
521.49	19027.17
521.697	18736.35
521.904	18549.99
522.112	18398.44
522.319	18875.62
522.526	18762.98
522.733	18744.55
522.94	18726.11
523.147	18681.06
523.354	19182.81
523.561	18640.1
523.768	18994.4
523.975	19475.67
524.183	19360.98
524.39	19301.59
524.597	19047.65
524.804	19360.98
525.011	18986.21
525.218	19307.74
525.425	19274.97
525.632	19836.11
525.838	19557.59
526.045	19395.8
526.252	19508.44
526.459	20731.08
526.666	20358.35
526.873	19909.84
527.08	19526.87
527.287	20374.73
527.494	19954.9
527.701	20051.15
527.907	19565.78
528.114	20102.35
528.321	20186.32
528.528	20182.22
528.735	20147.4
528.941	19971.28
529.148	19735.76
529.355	19803.35
529.562	19500.25
529.768	20757.7
529.975	19952.85
530.182	20405.45
530.388	20018.38
530.595	20794.56
530.802	20251.85
531.008	20761.8
531.215	20536.52
531.422	21580.98
531.628	21273.79
531.835	20921.54
532.042	20690.12
532.248	21009.6
532.455	21071.04
532.661	21064.89
532.868	21132.48
533.074	21181.63
533.281	21431.48
533.487	21484.73
533.694	21073.09
533.9	21068.99
534.107	21423.29
534.313	21357.75
534.52	21490.87
534.726	21898.42
534.933	22140.08
535.139	21310.65
535.345	21556.41
535.552	21488.82
535.758	21744.82
535.965	21656.76
536.171	21724.34
536.377	22105.26
536.584	22539.43
536.79	21796.02
536.996	22199.47
537.203	22043.82
537.409	22443.18
537.615	22019.25
537.821	22308.01
538.028	22539.43
538.234	22455.47
538.44	22396.07
538.646	22396.07
538.853	22684.84
539.059	22367.4
539.265	22684.84
539.471	22017.2
539.677	22566.06
539.883	22500.52
540.09	22570.15
540.296	22854.82
540.502	22789.28
540.708	22838.44
540.914	23059.62
541.12	22920.35
541.326	23563.42
541.532	23096.48
541.738	23073.95
541.944	23047.33
542.15	23671.96
542.356	23364.76
542.562	23477.4
542.768	23325.85
542.974	23950.48
543.18	23852.18
543.386	23395.48
543.592	23491.74
543.798	24198.29
544.004	24028.31
544.21	23927.95
544.415	23321.76
544.621	23839.89
544.827	24132.75
545.033	23805.08
545.239	23889.04
545.445	23956.63
545.651	24288.4
545.856	23954.58
546.062	24259.73
546.268	24161.42
546.474	24327.31
546.679	23968.91
546.885	24128.66
547.091	24382.6
547.297	24460.43
547.502	24276.11
547.708	24165.52
547.914	24468.62
548.119	24554.63
548.325	23930
548.531	23764.12
548.736	25058.43
548.942	24552.59
549.147	24149.14
549.353	24628.36
549.559	24716.42
549.764	24732.81
549.97	24454.28
550.175	24503.43
550.381	25242.75
550.586	24323.21
550.792	24638.6
550.997	24925.32
551.203	24900.74
551.408	25218.18
551.614	24706.18
551.819	25193.6
552.025	26008.69
552.23	26072.18
552.435	25201.79
552.641	25771.13
552.846	25695.35
553.052	26125.43
553.257	25377.92
553.462	25783.41
553.668	25547.9
553.873	26057.84
554.078	25484.41
554.283	25582.71
554.489	26119.28
554.694	25805.94
554.899	25818.23
555.105	25928.82
555.31	26221.68
555.515	26391.66
555.72	26219.63
555.925	25746.55
556.131	26426.48
556.336	26297.45
556.541	26266.74
556.746	26111.09
556.951	27008.1
557.156	26672.23
557.361	26508.4
557.567	26719.34
557.772	27085.92
557.977	26492.01
558.182	26377.33
558.387	26588.27
558.592	26449
558.797	27075.68
559.002	26813.54
559.207	26754.15
559.412	26819.69
559.617	27499.61
559.822	26834.02
560.027	26805.35
560.232	26737.77
560.437	27098.21
560.642	26643.56
560.847	26827.88
561.051	27450.46
561.256	26842.21
561.461	27235.42
561.666	27051.11
561.871	27403.36
562.076	27604.06
562.281	27352.16
562.485	26752.1
562.69	27036.77
562.895	27237.47
563.1	27026.53
563.305	27149.41
563.509	27466.84
563.714	27921.49
563.919	27087.97
564.123	27470.94
564.328	27505.76
564.533	27792.47
564.737	27300.96
564.942	27403.36
565.147	28345.42
565.351	27888.73
565.556	27448.41
565.761	27929.69
565.965	27726.94
566.17	27499.61
566.374	27516
566.579	27722.84
566.784	27995.22
566.988	28136.53
567.193	27923.54
567.397	28111.96
567.602	27892.82
567.806	28265.55
568.011	27968.6
568.215	28441.68
568.42	27948.12
568.624	28253.26
568.828	27702.36
569.033	27995.22
569.237	28773.45
569.442	28687.43
569.646	27923.54
569.85	28619.85
570.055	28769.35
570.259	28501.07
570.463	28597.32
570.668	28658.76
570.872	28654.67
571.076	28828.74
571.281	28640.33
571.485	28687.43
571.689	29041.73
571.893	29000.77
572.098	29107.27
572.302	28959.81
572.506	29023.3
572.71	28720.2
572.914	28855.37
573.119	28769.35
573.323	29453.37
573.527	29164.61
573.731	28968.01
573.935	28912.71
574.139	29103.17
574.343	28871.75
574.547	29205.57
574.751	29099.08
574.955	29652.03
575.159	29766.71
575.364	29068.36
575.568	29070.4
575.772	29443.13
575.976	29895.74
576.18	29205.57
576.383	29625.4
576.587	29543.49
576.791	29633.6
576.995	29021.25
577.199	29516.86
577.403	30174.26
577.607	30600.24
577.811	29842.49
578.015	29764.67
578.219	30073.91
578.422	30362.67
578.626	30331.95
578.83	30065.72
579.034	30422.06
579.238	30067.77
579.442	29815.87
579.645	30258.23
579.849	30071.86
580.053	30827.56
580.257	30227.51
580.46	30219.31
580.664	30606.38
580.868	30647.34
581.071	30100.53
581.275	30438.45
581.479	29793.34
581.682	30397.49
581.886	30164.02
582.09	30620.72
582.293	30759.98
582.497	30831.66
582.7	30618.67
582.904	30725.16
583.107	30532.65
583.311	30891.05
583.515	30778.41
583.718	30940.2
583.922	31091.75
584.125	31257.64
584.329	30594.09
584.532	30909.48
584.735	31456.29
584.939	30911.53
585.142	30921.77
585.346	30950.44
585.549	31552.54
585.753	31507.49
585.956	31562.78
586.159	31544.35
586.363	32099.35
586.566	31792.15
586.769	31347.75
586.973	31292.45
587.176	31757.34
587.379	32029.72
587.582	31990.81
587.786	31751.2
587.989	32302.1
588.192	32361.49
588.395	31683.61
588.599	31794.2
588.802	32039.96
589.005	31730.72
589.208	31972.38
589.411	32046.1
589.615	32447.5
589.818	32685.07
590.021	32531.47
590.224	32261.14
590.427	32345.11
590.63	32355.35
590.833	32197.65
591.036	32404.5
591.239	32914.44
591.442	32363.54
591.645	32599.05
591.848	32441.36
592.051	32814.09
592.254	32848.91
592.457	32820.24
592.66	32721.93
592.863	32392.21
593.066	32762.89
593.269	32619.53
593.472	32926.73
593.675	33008.65
593.878	33068.04
594.081	33176.58
594.284	32719.88
594.486	33561.6
594.689	33262.6
594.892	32603.15
595.095	33043.46
595.298	33168.39
595.5	32994.31
595.703	33377.28
595.906	33223.69
596.109	33645.57
596.311	33883.13
596.514	32850.95
596.717	33651.71
596.92	33870.84
597.122	33512.45
597.325	33039.37
597.528	33209.35
597.73	34151.41
597.933	33727.49
598.136	33534.98
598.338	33197.06
598.541	34102.26
598.743	34143.22
598.946	33448.96
599.148	33672.19
599.351	34053.11
599.554	34262.01
599.756	33975.29
599.959	34407.41
600.161	34212.85
600.363	34964.46
600.566	33950.71
600.768	34188.28
600.971	34663.41
601.173	34649.07
601.376	34294.77
601.578	34022.39
601.78	34401.27
601.983	34843.63
602.185	34167.8
602.388	34470.9
602.59	34860.01
602.792	34262.01
602.995	34180.09
603.197	34149.37
603.399	34593.78
603.601	34339.83
603.804	34063.35
604.006	34730.99
604.208	34419.7
604.41	34272.25
604.613	34898.92
604.815	34980.84
605.017	35347.43
605.219	34683.89
605.421	34667.5
605.623	34290.68
605.826	35701.73
606.028	35007.47
606.23	34653.17
606.432	34651.12
606.634	35750.88
606.836	35681.25
607.038	34710.51
607.24	34898.92
607.442	34989.03
607.644	35095.53
607.846	34921.45
608.048	34999.27
608.25	35034.09
608.452	34798.57
608.654	34757.61
608.856	34284.53
609.058	35513.31
609.26	35351.52
609.462	34874.35
609.664	35275.75
609.866	35472.35
610.067	35304.42
610.269	34982.89
610.471	34440.18
610.673	34659.31
610.875	35423.2
611.077	34882.54
611.278	35363.81
611.48	35578.85
611.682	35781.6
611.884	35415.01
612.085	35259.37
612.287	35367.91
612.489	35109.86
612.69	34915.31
612.892	35126.25
613.094	35458.02
613.295	35171.3
613.497	35060.71
613.699	35376.1
613.9	35924.96
614.102	35484.64
614.304	35146.73
614.505	35027.95
614.707	35857.37
614.908	35460.07
615.11	34905.07
615.311	35451.88
615.513	35509.22
615.714	35830.75
615.916	35257.32
616.117	35605.47
616.319	35345.38
616.52	35515.36
616.722	35425.25
616.923	35863.52
617.124	35707.87
617.326	35398.63
617.527	35443.68
617.729	35812.32
617.93	35859.42
618.131	35924.96
618.333	35816.41
618.534	35584.99
618.735	35576.8
618.937	36006.87
619.138	35472.35
619.339	35337.19
619.54	35789.79
619.742	35740.64
619.943	36076.51
620.144	35306.47
620.345	35896.28
620.546	35918.81
620.748	35587.04
620.949	35568.61
621.15	35822.56
621.351	35546.08
621.552	35726.3
621.753	35658.72
621.954	35404.77
622.155	35904.48
622.356	35515.36
622.558	35396.58
622.759	35728.35
622.96	35914.72
623.161	35718.11
623.362	36035.55
623.563	36361.17
623.764	35881.95
623.965	35417.06
624.166	36688.85
624.366	35838.94
624.567	36092.89
624.768	35404.77
624.969	35437.54
625.17	36338.65
625.371	36291.54
625.572	35818.46
625.773	35908.57
625.973	36510.67
626.174	36406.23
626.375	36293.59
626.576	36068.31
626.777	36148.18
626.977	36539.35
627.178	35716.06
627.379	36043.74
627.58	36019.16
627.78	36213.72
627.981	35820.51
628.182	36291.54
628.382	36498.39
628.583	36254.68
628.784	35955.68
628.984	35673.06
629.185	36314.07
629.386	35929.05
629.586	35867.61
629.787	36010.97
629.987	36232.15
630.188	36547.54
630.388	36287.45
630.589	36183
630.79	36991.95
630.99	36406.23
631.191	36723.66
631.391	36213.72
631.591	36733.9
631.792	36840.4
631.992	36731.86
632.193	36711.38
632.393	36690.9
632.594	36369.37
632.794	36338.65
632.994	36193.24
633.195	36498.39
633.395	37084.11
633.595	36490.2
633.796	36420.56
633.996	36590.55
634.196	36920.27
634.397	36674.51
634.597	36785.1
634.797	36789.2
634.997	37028.81
635.198	36912.08
635.398	36391.89
635.598	36805.58
635.798	37227.46
635.998	36418.52
636.199	36371.41
636.399	36889.55
636.599	36385.75
636.799	36821.97
636.999	37174.22
637.199	36895.69
637.399	37014.48
637.599	36629.46
637.799	36674.51
637.999	36854.73
638.199	37407.69
638.399	36764.62
638.599	36838.35
638.799	37327.81
638.999	37854.14
639.199	37223.37
639.399	37293
639.599	37827.52
639.799	36832.21
639.999	36989.9
640.199	37014.48
640.399	37442.5
640.599	36240.34
640.799	37471.17
640.998	37372.87
641.198	37389.25
641.398	37247.94
641.598	37067.72
641.798	37198.79
641.997	38187.96
642.197	37411.78
642.397	37530.56
642.597	36989.9
642.796	37747.65
642.996	37544.9
643.196	37348.29
643.395	36729.81
643.595	37737.41
643.795	37159.88
643.994	37690.3
644.194	37622.72
644.394	37761.98
644.593	37764.03
644.793	37245.9
644.992	37739.46
645.192	37940.16
645.392	36942.8
645.591	37454.79
645.791	37964.73
645.99	37575.62
646.19	37829.57
646.389	37733.31
646.589	37659.59
646.788	38007.74
646.987	38134.71
647.187	38042.56
647.386	38114.23
647.586	38122.43
647.785	38501.3
647.984	37884.86
648.184	37735.36
648.383	37583.81
648.582	37688.26
648.782	37921.73
648.981	38132.67
649.18	37327.81
649.38	38269.88
649.579	37888.96
649.778	37956.54
649.977	38437.81
650.177	37739.46
650.376	37528.52
650.575	37772.22
650.774	38665.14
650.973	38075.32
651.173	37706.69
651.372	38372.28
651.571	37858.24
651.77	38435.77
651.969	38163.39
652.168	38304.7
652.367	38249.4
652.566	38222.78
652.765	38083.51
652.964	37731.26
653.163	38656.95
653.362	38564.79
653.561	38169.53
653.76	38499.25
653.959	37886.91
654.158	38927.28
654.357	38224.82
654.556	37710.78
654.755	38265.78
654.954	38499.25
655.153	37768.13
655.352	38906.8
655.551	38439.86
655.749	38376.37
655.948	38220.73
656.147	38583.22
656.346	38370.23
656.545	38480.82
656.743	38462.39
656.942	38206.39
657.141	38603.7
657.34	38116.28
657.538	38439.86
657.737	38425.53
657.936	38568.88
658.135	38570.93
658.333	38075.32
658.532	38310.84
658.731	38409.14
658.929	38996.91
659.128	38724.53
659.326	38419.38
659.525	38855.6
659.724	38622.13
659.922	37841.85
660.121	38341.56
660.319	38558.64
660.518	38380.47
660.716	38257.59
660.915	38706.1
661.113	39068.59
661.312	38468.53
661.51	38607.79
661.709	38736.82
661.907	38816.69
662.105	39386.02
662.304	38476.72
662.502	38742.96
662.701	39302.06
662.899	38513.59
663.097	38658.99
663.296	38138.81
663.494	39250.86
663.692	38953.9
663.891	38624.18
664.089	38562.74
664.287	39029.68
664.485	39201.71
664.684	38806.45
664.882	38773.68
665.08	38509.49
665.278	38785.97
665.476	38466.49
665.675	38820.78
665.873	39269.29
666.071	39101.36
666.269	38499.25
666.467	38591.41
666.665	38953.9
666.863	38460.34
667.061	38622.13
667.259	38634.42
667.457	38953.9
667.655	39037.87
667.853	38482.87
668.051	38454.2
668.249	38482.87
668.447	38648.75
668.645	38296.5
668.843	38833.07
669.041	39013.29
669.239	38443.96
669.437	38468.53
669.635	38816.69
669.833	38577.08
670.031	38566.84
670.229	38734.77
670.426	38622.13
670.624	38568.88
670.822	38466.49
671.02	38241.21
671.218	38615.99
671.415	38280.12
671.613	38572.98
671.811	38280.12
672.009	38355.89
672.206	39054.25
672.404	38439.86
672.602	38357.94
672.799	38345.65
672.997	38689.71
673.195	39003.05
673.392	38489.01
673.59	38394.81
673.788	38261.69
673.985	38022.08
674.183	38646.71
674.38	38589.36
674.578	38427.57
674.775	38179.77
674.973	38108.09
675.17	38374.33
675.368	38249.4
675.565	38558.64
675.763	38011.84
675.96	37979.07
676.158	38812.59
676.355	37993.4
676.553	38247.35
676.75	38308.79
676.947	38474.68
677.145	38198.2
677.342	38140.86
677.539	38433.72
677.737	38339.51
677.934	38398.9
678.131	38290.36
678.329	38132.67
678.526	38183.87
678.723	38704.05
678.92	37921.73
679.118	37909.44
679.315	37481.41
679.512	38106.04
679.709	37950.4
679.906	37680.07
680.104	37741.5
680.301	37368.77
680.498	37432.26
680.695	37426.12
680.892	37563.33
681.089	37565.38
681.286	37362.63
681.483	36936.65
681.68	37624.77
681.877	38163.39
682.075	37524.42
682.272	37850.05
682.469	37628.87
682.665	37561.28
682.862	37104.59
683.059	37356.49
683.256	37942.21
683.453	37493.7
683.65	37540.8
683.847	37737.41
684.044	37508.04
684.241	37362.63
684.438	37655.49
684.635	37389.25
684.831	37925.82
685.028	37909.44
685.225	37303.24
685.422	37465.03
685.619	37571.52
685.815	37424.07
686.012	37102.54
686.209	37217.22
686.405	37284.81
686.602	37321.67
686.799	36926.41
686.996	37592
687.192	36871.12
687.389	37329.86
687.586	37198.79
687.782	37241.8
687.979	37059.53
688.175	37161.93
688.372	37159.88
688.568	37239.75
688.765	36842.45
688.962	37530.56
689.158	37112.78
689.355	37043.15
689.551	36989.9
689.748	37022.67
689.944	36973.52
690.14	36608.98
690.337	37096.39
690.533	36764.62
690.73	36889.55
690.926	37215.18
691.123	36694.99
691.319	36651.98
691.515	37022.67
691.712	36815.82
691.908	36756.43
692.104	36764.62
692.301	36875.21
692.497	36654.03
692.693	37211.08
692.889	37452.74
693.086	36664.27
693.282	37073.87
693.478	36672.46
693.674	37012.43
693.87	36346.84
694.067	36344.79
694.263	36551.63
694.459	36395.99
694.655	36479.96
694.851	36768.72
695.047	36154.33
695.243	36891.6
695.439	36504.53
695.635	36183
695.831	36746.19
696.027	36514.77
696.224	36236.25
696.42	36430.8
696.615	36672.46
696.811	35814.37
697.007	35449.83
697.203	35867.61
697.399	36387.8
697.595	36281.3
697.791	36189.14
697.987	36248.53
698.183	35896.28
698.379	35681.25
698.575	36068.31
698.77	36139.99
698.966	36234.2
699.162	35890.14
699.358	36256.73
699.554	36019.16
699.749	36774.86
699.945	36694.99
700.141	36209.62
700.337	36422.61
700.532	36170.71
700.728	36086.75
700.924	36056.03
701.119	35931.1
701.315	35765.21
701.511	35603.42
701.706	36152.28
701.902	35587.04
702.097	35933.15
702.293	36258.77
702.489	35888.09
702.684	35826.65
702.88	36039.64
703.075	35820.51
703.271	35357.67
703.466	35400.68
703.662	35419.11
703.857	35597.28
704.053	35865.56
704.248	35544.03
704.443	35777.5
704.639	35773.41
704.834	35498.98
705.03	35728.35
705.225	36142.04
705.42	35767.26
705.616	35535.84
705.811	35552.23
706.006	35089.38
706.202	35128.3
706.397	35060.71
706.592	34976.75
706.787	35429.35
706.983	35539.94
707.178	35685.34
707.373	35628
707.568	35333.09
707.763	35468.26
707.959	35462.11
708.154	35261.41
708.349	35015.66
708.544	35437.54
708.739	35369.96
708.934	35085.29
709.129	35273.7
709.324	35173.35
709.519	34995.18
709.714	34685.93
709.909	35533.79
710.104	35255.27
710.299	34909.16
710.494	35224.55
710.689	35675.1
710.884	35111.91
711.079	35193.83
711.274	35062.76
711.469	35023.85
711.664	35118.06
711.859	34913.26
712.054	35036.14
712.249	35052.52
712.443	35288.04
712.638	34935.79
712.833	34671.6
713.028	34851.82
713.223	34722.8
713.417	34991.08
713.612	34614.26
713.807	35097.58
714.002	35136.49
714.196	34993.13
714.391	34585.58
714.586	35081.19
714.78	34741.23
714.975	34362.36
715.17	34401.27
715.364	34972.65
715.559	35480.55
715.754	33979.39
715.948	34341.88
716.143	34782.19
716.337	34255.86
716.532	34823.15
716.726	34292.72
716.921	34671.6
717.115	34952.17
717.31	34401.27
717.504	34649.07
717.699	34343.92
717.893	34149.37
718.088	33819.64
718.282	33598.46
718.476	34231.29
718.671	34073.59
718.865	34110.46
719.059	33610.75
719.254	33790.97
719.448	34481.14
719.642	34376.69
719.837	33426.43
720.031	34470.9
720.225	33770.49
720.419	33879.04
720.614	33999.87
720.808	34331.64
721.002	33872.89
721.196	33616.9
721.39	33537.02
721.585	33866.75
721.779	33639.42
721.973	33018.89
722.167	33102.85
722.361	33164.29
722.555	33883.13
722.749	33117.19
722.943	33645.57
723.137	33381.38
723.331	33733.63
723.525	33303.56
723.719	33393.67
723.913	34114.55
724.107	33766.4
724.301	33192.97
724.495	33285.12
724.689	33870.84
724.883	34196.47
725.077	33270.79
725.271	33637.37
725.465	33872.89
725.659	33391.62
725.853	33344.52
726.046	33575.94
726.24	33270.79
726.434	33364.99
726.628	33518.59
726.822	33184.77
727.015	34024.44
727.209	33645.57
727.403	33725.44
727.596	33111.05
727.79	33745.92
727.984	34049.02
728.177	33414.15
728.371	33250.31
728.565	34008.06
728.758	33248.26
728.952	32934.92
729.146	33240.07
729.339	34020.34
729.533	33340.42
729.726	33448.96
729.92	33428.48
730.113	34208.76
730.307	33762.3
730.5	33283.08
730.694	33543.17
730.887	32971.78
731.081	33606.66
731.274	33473.54
731.468	33035.27
731.661	33754.11
731.854	33352.71
732.048	33184.77
732.241	33115.14
732.435	33295.36
732.628	33528.83
732.821	33494.02
733.014	33319.94
733.208	33321.99
733.401	33573.89
733.594	32893.96
733.788	33389.57
733.981	33676.29
734.174	33561.6
734.367	32877.58
734.56	33360.9
734.754	33434.63
734.947	33387.52
735.14	33403.91
735.333	33496.06
735.526	34003.96
735.719	33285.12
735.912	33463.3
736.105	33451.01
736.298	33561.6
736.491	33115.14
736.684	32810
736.877	32881.67
737.07	33180.68
737.263	33246.21
737.456	33068.04
737.649	33162.25
737.842	33141.77
738.035	33594.37
738.228	33020.94
738.421	33434.63
738.614	33162.25
738.807	33143.81
739	32545.81
739.192	32816.14
739.385	33283.08
739.578	33063.94
739.771	32951.31
739.964	32787.47
740.156	33436.67
740.349	32941.07
740.542	33227.78
740.735	32660.49
740.927	32898.06
741.12	32961.55
741.313	32893.96
741.505	33684.48
741.698	33047.56
741.891	33033.22
742.083	32801.8
742.276	32836.62
742.468	32783.37
742.661	32775.18
742.854	33004.55
743.046	32318.48
743.239	33260.55
743.431	33102.85
743.624	32525.33
743.816	32470.03
744.009	32932.87
744.201	32523.28
744.393	32527.38
744.586	32424.98
744.778	32664.59
744.971	32281.62
745.163	32666.64
745.355	32498.7
745.548	32713.74
745.74	32578.57
745.932	32527.38
746.125	32463.89
746.317	32904.2
746.509	32318.48
746.702	32416.79
746.894	32341.01
747.086	32377.87
747.278	32173.08
747.471	32414.74
747.663	32199.7
747.855	32359.44
748.047	32730.12
748.239	32318.48
748.431	32255
748.623	32427.03
748.815	32439.31
749.008	32302.1
749.2	32554
749.392	32754.7
749.584	32322.58
749.776	32422.93
749.968	31964.18
750.16	32650.25
750.352	31464.48
750.544	31661.08
750.736	31566.88
750.928	31874.07
751.12	31730.72
751.311	31157.28
751.503	31894.55
751.695	32279.57
751.887	31919.13
752.079	31441.95
752.271	31427.62
752.463	32453.65
752.654	32330.77
752.846	31814.68
753.038	31282.21
753.23	31413.28
753.421	31753.24
753.613	31503.39
753.805	31804.44
753.997	31755.29
754.188	31525.92
754.38	31335.46
754.572	31493.15
754.763	31523.87
754.955	31521.82
755.146	31095.85
755.338	31525.92
755.53	31364.13
755.721	31333.41
755.913	31155.24
756.104	30747.69
756.296	31091.75
756.487	31042.6
756.679	30813.23
756.87	30487.6
757.062	30413.87
757.253	31245.35
757.445	30745.64
757.636	31069.22
757.827	30635.05
758.019	31439.9
758.21	30702.64
758.401	30524.46
758.593	31247.4
758.784	31251.49
758.975	30223.41
759.167	30264.37
759.358	30655.53
759.549	30688.3
759.74	30532.65
759.932	30440.5
760.123	30659.63
760.314	30444.59
760.505	30340.15
760.696	30075.96
760.888	30628.91
761.079	30000.18
761.27	29912.12
761.461	30235.7
761.652	30446.64
761.843	29977.65
762.034	30065.72
762.225	30250.03
762.416	29770.81
762.607	29860.92
762.798	30047.29
762.989	29789.24
763.18	30665.77
763.371	29785.15
763.562	29977.65
763.753	29895.74
763.944	30118.96
764.135	29666.36
764.326	29842.49
764.517	29676.6
764.708	29733.95
764.899	29908.02
765.089	29598.78
765.28	29555.77
765.471	29535.29
765.662	29115.46
765.853	29449.28
766.043	28591.18
766.234	29713.47
766.425	29314.11
766.615	29502.53
766.806	29160.52
766.997	29826.1
767.187	29357.12
767.378	29238.34
767.569	28871.75
767.759	29473.85
767.95	29525.05
768.141	29410.37
768.331	28701.77
768.522	29015.11
768.712	29277.25
768.903	29103.17
769.093	28634.19
769.284	29475.9
769.474	29115.46
769.665	28933.19
769.855	28677.19
770.046	29203.52
770.236	28873.8
770.426	28902.47
770.617	28611.66
770.807	28795.98
770.998	28900.42
771.188	28781.64
771.378	28302.42
771.569	28757.07
771.759	28453.97
771.949	28222.55
772.139	28320.85
772.33	27972.69
772.52	28996.68
772.71	28396.62
772.9	27759.7
773.09	28503.12
773.281	28572.75
773.471	27835.48
773.661	27884.63
773.851	27952.21
774.041	27929.69
774.231	27903.06
774.421	27620.44
774.611	28230.74
774.802	27966.55
774.992	27724.89
775.182	27575.39
775.372	27778.14
775.562	27565.15
775.752	27278.43
775.942	27173.99
776.131	28116.05
776.321	27747.42
776.511	27642.97
776.701	27157.6
776.891	27356.25
777.081	27073.63
777.271	26969.19
777.461	27360.35
777.651	27640.92
777.84	27733.08
778.03	27155.55
778.22	27077.73
778.41	27606.11
778.599	27436.13
778.789	26983.52
778.979	27294.82
779.169	27182.18
779.358	27294.82
779.548	27270.24
779.738	26823.78
779.927	27180.13
780.117	27167.84
780.307	26809.45
780.496	26647.66
780.686	26786.92
780.875	27153.51
781.065	26557.55
781.254	26469.48
781.444	26621.03
781.633	26578.03
781.823	26297.45
782.012	26080.37
782.202	26121.33
782.391	26141.81
782.581	25797.75
782.77	26541.16
782.96	26315.89
783.149	25992.31
783.338	25904.24
783.528	25994.36
783.717	26383.47
783.906	26510.44
784.096	25939.06
784.285	26070.13
784.474	25941.11
784.663	25971.83
784.853	25812.09
785.042	25918.58
785.231	26129.52
785.42	26432.62
785.61	25541.75
785.799	25873.53
785.988	25961.59
786.177	25949.3
786.366	25547.9
786.555	26035.31
786.744	26133.62
786.933	25953.4
787.122	25676.92
787.312	25394.3
787.501	25607.29
787.69	25855.09
787.879	25887.86
788.068	25402.49
788.257	25345.15
788.445	25330.81
788.634	25515.13
788.823	25326.72
789.012	26418.28
789.201	25916.53
789.39	25425.02
789.579	25091.2
789.768	25410.68
789.957	25511.03
790.145	25275.52
790.334	25019.52
790.523	25126.02
790.712	25152.64
790.9	25508.99
791.089	24687.75
791.278	25681.02
791.467	25437.31
791.655	25175.17
791.844	25128.06
792.033	24865.92
792.221	24951.94
792.41	24923.27
792.599	24460.43
792.787	25453.69
792.976	25056.39
793.164	24630.41
793.353	24882.31
793.541	25078.91
793.73	25101.44
793.918	25009.28
794.107	24593.54
794.295	24796.29
794.484	24779.91
794.672	24540.3
794.861	24751.24
795.049	25070.72
795.238	25187.46
795.426	24370.32
795.614	24394.89
795.803	24734.85
795.991	24669.32
796.179	24276.11
796.368	24063.12
796.556	24538.25
796.744	24132.75
796.932	24091.79
797.121	24145.04
797.309	24177.81
797.497	24501.39
797.685	24030.35
797.874	24349.84
798.062	24601.74
798.25	24462.47
798.438	24214.67
798.626	24341.64
798.814	24368.27
799.002	24968.32
799.19	24341.64
799.378	24153.23
799.566	24398.99
799.755	24458.38
799.943	23956.63
800.131	24013.97
800.318	24110.22
800.506	24274.06
800.694	24190.09
800.882	24003.73
801.07	24464.52
801.258	24089.74
801.446	24110.22
801.634	23880.85
801.822	24323.21
802.01	24108.18
802.197	24044.69
802.385	24548.49
802.573	24425.61
802.761	24065.17
802.949	24202.38
803.136	24161.42
803.324	24448.14
803.512	24302.73
803.699	24243.34
803.887	24366.22
804.075	24640.65
804.262	24456.33
804.45	24417.42
804.638	24435.85
804.825	24702.09
805.013	24413.32
805.201	24458.38
805.388	24558.73
805.576	24724.61
805.763	25218.18
805.951	24419.47
806.138	24396.94
806.326	24710.28
806.513	24702.09
806.701	24382.6
806.888	23805.08
807.075	24304.78
807.263	24538.25
807.45	24210.57
807.638	24206.48
807.825	24900.74
808.012	24755.33
808.2	24294.54
808.387	24685.7
808.574	24988.8
808.761	25085.06
808.949	24120.46
809.136	24546.44
809.323	24343.69
809.51	24298.64
809.698	24507.53
809.885	24493.19
810.072	24403.08
810.259	25050.24
810.446	24495.24
810.633	24773.77
810.82	25259.13
811.008	24927.36
811.195	24904.84
811.382	24910.98
811.569	24878.21
811.756	24255.63
811.943	24718.47
812.13	24581.26
812.317	24611.98
812.504	24755.33
812.691	24442
812.878	24530.06
813.064	24847.49
813.251	24708.23
813.438	24626.31
813.625	24573.07
813.812	24693.9
813.999	24759.43
814.186	24806.53
814.372	24431.76
814.559	24753.29
814.746	24794.25
814.933	24253.58
815.12	24640.65
815.306	24552.59
815.493	24855.68
815.68	24341.64
815.866	24652.94
816.053	24921.22
816.24	25037.95
816.426	24878.21
816.613	24644.74
816.799	24880.26
816.986	24597.64
817.173	24456.33
817.359	23946.39
817.546	24513.67
817.732	24312.97
817.919	24173.71
818.105	24618.12
818.292	24466.57
818.478	24544.39
818.665	24659.08
818.851	24390.8
819.037	24771.72
819.224	24433.8
819.41	24020.11
819.597	23956.63
819.783	24646.79
819.969	24675.46
820.156	24181.9
820.342	24216.72
820.528	24988.8
820.714	24464.52
820.901	24562.83
821.087	23776.41
821.273	24599.69
821.459	24233.1
821.646	24145.04
821.832	23911.57
822.018	24323.21
822.204	23995.54
822.39	23884.95
822.576	23631
822.762	24097.94
822.948	24192.14
823.134	24077.46
823.32	23598.23
823.507	23676.05
823.693	23762.07
823.879	24001.68
824.065	23954.58
824.25	24386.7
824.436	23854.23
824.622	23825.56
824.808	23696.53
824.994	23815.32
825.18	23760.02
825.366	23491.74
825.552	23774.36
825.738	23633.05
825.923	24073.36
826.109	23762.07
826.295	23311.52
826.481	23383.2
826.667	23727.25
826.852	23454.87
827.038	23340.19
827.224	23624.86
827.409	23934.1
827.595	23039.14
827.781	23385.24
827.966	24079.5
828.152	23684.25
828.338	22981.79
828.523	22787.24
828.709	23153.82
828.894	23518.36
829.08	23174.3
829.266	23274.65
829.451	23176.35
829.637	23180.45
829.822	23237.79
830.008	22678.69
830.193	23018.66
830.378	23098.53
830.564	22820
830.749	22420.65
830.935	23135.39
831.12	22844.58
831.305	22492.33
831.491	22457.51
831.676	22348.97
831.861	22967.46
832.047	22842.53
832.232	22617.25
832.417	23032.99
832.602	23315.61
832.788	22428.84
832.973	22494.38
833.158	22967.46
833.343	23014.56
833.528	23039.14
833.714	22488.23
833.899	22844.58
834.084	22537.38
834.269	22654.12
834.454	22477.99
834.639	22549.67
834.824	22711.46
835.009	22344.88
835.194	22531.24
835.379	22955.17
835.564	22672.55
835.749	22363.31
835.934	21851.31
836.119	22103.21
836.304	21748.92
836.489	22123.69
836.674	22185.13
836.859	22150.32
837.044	22660.26
837.228	21763.25
837.413	21853.36
837.598	22344.88
837.783	22371.5
837.968	21861.55
838.152	21861.55
838.337	21701.81
838.522	22357.16
838.707	22502.57
838.891	22219.95
839.076	21904.56
839.261	22303.92
839.445	21722.29
839.63	21912.75
839.815	21974.19
839.999	21550.26
840.184	21935.28
840.368	21951.67
840.553	22174.89
840.737	22187.18
840.922	21720.24
841.106	21619.89
841.291	21673.14
841.475	21671.09
841.66	21900.47
841.844	21402.81
842.029	22383.79
842.213	21454.01
842.397	21296.32
842.582	21105.85
842.766	21859.51
842.951	21748.92
843.135	21351.61
843.319	21210.3
843.504	21646.52
843.688	21466.3
843.872	21030.08
844.056	21540.02
844.241	21937.33
844.425	21376.19
844.609	21312.7
844.793	21122.24
844.977	21501.11
845.161	21038.27
845.346	20991.17
845.53	20810.95
845.714	20800.71
845.898	21318.84
846.082	20436.17
846.266	20845.76
846.45	20876.48
846.634	21101.76
846.818	20704.45
847.002	20901.06
847.186	21163.2
847.37	20610.25
847.554	20526.28
847.738	20714.69
847.922	20481.22
848.106	20901.06
848.29	20571.33
848.473	20487.37
848.657	20808.9
848.841	20546.76
849.025	20700.36
849.209	20128.97
849.392	20970.69
849.576	20882.63
849.76	20049.1
849.944	20671.68
850.127	20958.4
850.311	20421.83
850.495	20298.95
850.678	19971.28
850.862	20970.69
851.046	20616.39
851.229	20802.75
851.413	20057.29
851.596	20403.4
851.78	20673.73
851.964	20391.11
852.147	20108.49
852.331	21144.77
852.514	20659.4
852.698	19985.62
852.881	19490.01
853.065	20384.97
853.248	19950.8
853.431	20032.72
853.615	20063.44
853.798	20341.96
853.982	19852.5
854.165	19877.07
854.348	19637.46
854.532	19522.77
854.715	19356.89
854.898	19649.75
855.081	19473.62
855.265	20059.34
855.448	20020.43
855.631	19586.26
855.814	19352.79
855.997	19922.13
856.181	19662.04
856.364	19645.65
856.547	19645.65
856.73	19819.73
856.913	19807.44
857.096	19131.61
857.279	19432.66
857.462	19324.12
857.645	19897.55
857.828	19420.38
858.011	19379.42
858.194	19422.42
858.377	19516.63
858.56	19178.72
858.743	19356.89
858.926	18894.05
859.109	19408.09
859.292	18945.25
859.475	18736.35
859.658	19553.49
859.841	18955.49
860.023	18785.51
860.206	18384.1
860.389	19317.98
860.572	18902.24
860.755	18742.5
860.937	18566.37
861.12	18906.34
861.303	19168.48
861.486	18799.84
861.668	18556.13
861.851	18746.59
862.034	18619.62
862.216	18414.82
862.399	18158.83
862.581	18730.21
862.764	18951.39
862.947	18246.89
863.129	18101.48
863.312	18027.76
863.494	18834.66
863.677	18412.78
863.859	18236.65
864.042	18588.9
864.224	18568.42
864.406	17931.5
864.589	17806.58
864.771	18353.38
864.954	17710.32
865.136	17675.51
865.318	17831.15
865.501	17966.32
865.683	17722.61
865.865	18038
866.048	17886.45
866.23	17874.16
866.412	18025.71
866.594	17663.22
866.777	17583.35
866.959	17913.07
867.141	17669.36
867.323	18027.76
867.505	17939.69
867.687	17974.51
867.869	17972.46
868.052	17786.1
868.234	17317.11
868.416	17712.37
868.598	17726.71
868.78	17495.29
868.962	17630.45
869.144	17751.28
869.326	17769.71
869.508	17513.72
869.69	17333.5
869.872	17370.36
870.054	17806.58
870.236	17134.84
870.417	17351.93
870.599	17511.67
870.781	18021.61
870.963	17417.46
871.145	17325.3
871.327	17347.83
871.508	17616.12
871.69	17251.58
871.872	17515.76
872.054	17695.99
872.235	17603.83
872.417	17302.78
872.599	17329.4
872.78	17667.31
872.962	17431.8
873.144	17104.12
873.325	17450.23
873.507	17896.69
873.689	17587.44
873.87	17061.12
874.052	17577.2
874.233	17521.91
874.415	17605.88
874.596	17259.77
874.778	17190.14
874.959	17270.01
875.141	17483
875.322	17231.1
875.503	17104.12
875.685	17511.67
875.866	17200.38
876.048	17237.24
876.229	17237.24
876.41	17255.67
876.592	17356.02
876.773	17345.78
876.954	17097.98
877.136	17489.14
877.317	17132.79
877.498	17042.68
877.679	17304.82
877.86	17509.62
878.042	17480.95
878.223	17462.52
878.404	17644.79
878.585	17669.36
878.766	17820.91
878.947	17657.07
879.128	17476.85
879.309	17630.45
879.49	17714.42
879.672	17796.34
879.853	17693.94
880.034	17466.61
880.215	17851.63
880.396	17935.6
880.576	17609.97
880.757	17831.15
880.938	17929.45
881.119	17704.18
881.3	17413.37
881.481	17661.17
881.662	18814.18
881.843	17581.3
882.023	17822.96
882.204	18087.15
882.385	18240.75
882.566	18042.09
882.747	18019.57
882.927	18484.45
883.108	18095.34
883.289	17966.32
883.469	18509.03
883.65	18466.02
883.831	18408.68
884.011	18470.12
884.192	18046.19
884.373	18502.89
884.553	18343.14
884.734	18382.06
884.914	18621.67
885.095	19274.97
885.275	18750.69
885.456	18615.52
885.636	18013.42
885.817	18496.74
885.997	18593
886.178	18171.11
886.358	18234.6
886.538	18380.01
886.719	19557.59
886.899	18408.68
887.08	18648.29
887.26	18859.23
887.44	18035.95
887.621	18355.43
887.801	18478.31
887.981	19264.73
888.161	18384.1
888.342	18617.57
888.522	18431.21
888.702	19006.69
888.882	18949.34
889.062	18875.62
889.242	18584.8
889.423	19010.78
889.603	18926.82
889.783	19064.03
889.963	18793.7
890.143	19035.36
890.323	19113.18
890.503	18730.21
890.683	19004.64
890.863	18963.68
891.043	19025.12
891.223	18867.42
891.403	19184.86
891.583	19088.6
891.763	18939.1
891.943	19160.28
892.122	18955.49
892.302	19297.5
892.482	19164.38
892.662	19211.48
892.842	19072.22
893.022	19014.88
893.201	18969.82
893.381	19045.6
893.561	18793.7
893.741	19299.55
893.92	19303.64
894.1	18973.92
894.28	19387.61
894.459	19309.79
894.639	19324.12
894.819	18910.43
894.998	19059.93
895.178	18963.68
895.357	19088.6
895.537	18660.58
895.716	18762.98
895.896	18709.73
896.075	19148
896.255	18726.11
896.434	18619.62
896.614	19074.27
896.793	19033.31
896.973	19055.84
897.152	18851.04
897.331	19125.47
897.511	19215.58
897.69	18685.15
897.87	19043.55
898.049	19264.73
898.228	19279.07
898.407	19236.06
898.587	18937.06
898.766	18828.51
898.945	19158.24
899.124	18742.5
899.304	18781.41
899.483	19270.87
899.662	19492.05
899.841	18777.31
900.02	18984.16
900.199	19049.69
900.378	18920.67
900.557	18631.91
900.737	18713.83
900.916	19033.31
901.095	18967.77
901.274	18584.8
901.453	18394.34
901.632	18242.79
901.811	18240.75
901.989	18420.97
902.168	18302.18
902.347	18558.18
902.526	18285.8
902.705	18326.76
902.884	18402.54
903.063	18633.96
903.242	18834.66
903.42	18087.15
903.599	18185.45
903.778	18728.16
903.957	18779.36
904.135	18484.45
904.314	18521.32
904.493	18373.86
904.672	18369.77
904.85	18246.89
905.029	18189.55
905.207	18332.9
905.386	19148
905.565	17911.02
905.743	18001.13
905.922	17980.65
906.1	18470.12
906.279	17769.71
906.457	17415.41
906.636	17978.61
906.814	17693.94
906.993	17239.29
907.171	17872.11
907.35	17751.28
907.528	17988.85
907.707	17902.83
907.885	17480.95
908.063	17868.02
908.242	17448.18
908.42	17306.87
908.598	17384.69
908.777	17655.03
908.955	17732.85
909.133	17437.94
909.311	17128.7
909.49	17368.31
909.668	17261.82
909.846	17390.84
910.024	17175.8
910.202	17788.14
910.38	17587.44
910.559	17374.45
910.737	17018.11
910.915	17501.43
911.093	17122.55
911.271	17100.03
911.449	17233.15
911.627	16954.62
911.805	17292.54
911.983	16612.61
912.161	16669.95
912.339	16854.27
912.517	17124.6
912.695	16727.3
912.872	16393.48
913.05	16491.78
913.228	16614.66
913.406	16178.44
913.584	16063.75
913.762	16182.54
913.939	16499.97
914.117	16135.43
914.295	16041.23
914.473	16293.13
914.65	16422.15
914.828	16168.2
915.006	16143.63
915.184	16010.51
915.361	16076.04
915.539	16221.45
915.716	16121.1
915.894	16286.98
916.072	16389.38
916.249	16286.98
916.427	16147.72
916.604	16350.47
916.782	16397.57
916.959	16123.15
917.137	15678.74
917.314	16014.6
917.492	16428.29
917.669	16119.05
917.847	15787.28
918.024	15920.4
918.201	15387.93
918.379	15674.64
918.556	15740.18
918.733	15813.9
918.911	15062.3
919.088	15244.57
919.265	14980.38
919.442	15420.69
919.62	14730.53
919.797	14966.04
919.974	14748.96
920.151	15230.23
920.328	15222.04
920.506	15000.86
920.683	15508.76
920.86	14918.94
921.037	14880.03
921.214	15109.4
921.391	14935.32
921.568	15176.98
921.745	14669.09
921.922	14880.03
922.099	14845.21
922.276	15072.54
922.453	15013.15
922.63	14433.57
922.807	14687.52
922.984	14531.87
923.161	14492.96
923.338	14726.43
923.514	14439.72
923.691	14638.37
923.868	14882.08
924.045	14376.23
924.222	14265.64
924.399	14826.78
924.575	14650.66
924.752	14538.02
924.929	14613.79
925.105	14533.92
925.282	14361.89
925.459	14220.58
925.635	14325.03
925.812	14163.24
925.989	14069.03
926.165	14318.89
926.342	13917.48
926.518	14009.64
926.695	14159.14
926.871	13792.56
927.048	13665.58
927.224	13978.92
927.401	13712.69
927.577	13493.55
927.754	13350.2
927.93	13776.17
928.107	13593.9
928.283	13268.28
928.459	13223.22
928.636	13518.13
928.812	13462.83
928.988	13036.86
929.165	13024.57
929.341	13456.69
929.517	13194.55
929.693	13497.65
929.87	12901.69
930.046	13247.8
930.222	12760.38
930.398	12729.66
930.574	12715.33
930.751	12963.13
930.927	12725.57
931.103	12864.83
931.279	12442.95
931.455	12322.12
931.631	12266.82
931.807	11941.19
931.983	12346.69
932.159	11855.18
932.335	12184.9
932.511	12094.79
932.687	11738.44
932.863	12203.33
933.039	11953.48
933.215	11562.32
933.391	11556.18
933.566	11638.09
933.742	11724.11
933.918	11556.18
934.094	11486.54
934.27	11668.81
934.445	11572.56
934.621	11556.18
934.797	11234.64
934.973	11785.55
935.148	11562.32
935.324	10765.66
935.5	10771.8
935.675	11181.4
935.851	10870.11
936.027	10661.21
936.202	10265.96
936.378	10302.82
936.553	10229.09
936.729	10483.04
936.904	9921.9
937.08	9702.76
937.255	9495.92
937.431	9278.83
937.606	9051.51
937.782	9065.85
937.957	9330.03
938.133	9002.36
938.308	8625.53
938.483	8752.51
938.659	8396.16
938.834	8435.07
939.009	8244.61
939.185	8095.11
939.36	8066.44
939.535	7638.41
939.71	8103.3
939.886	8091.01
940.061	8062.34
940.236	7804.3
940.411	7828.87
940.586	7697.8
940.761	7826.82
940.937	7439.76
941.112	7361.94
941.287	7544.2
941.462	7302.54
941.637	7214.48
941.812	7181.71
941.987	7290.26
942.162	7130.52
942.337	7155.09
942.512	6923.67
942.687	7355.79
942.862	7148.95
943.037	6835.61
943.212	6577.56
943.386	6796.7
943.561	6854.04
943.736	6940.05
943.911	6968.73
944.086	6991.25
944.26	6919.57
944.435	6729.11
944.61	7036.31
944.785	7105.94
944.959	7167.38
945.134	6677.91
945.309	6596
945.483	6583.71
945.658	7038.36
945.833	6421.92
946.007	6522.27
946.182	7196.05
946.357	6536.6
946.531	6356.38
946.706	6643.1
946.88	6438.3
947.055	6839.7
947.229	6700.44
947.404	6755.74
947.578	7130.52
947.752	6849.94
947.927	6444.45
948.101	6667.67
948.276	6858.14
948.45	7044.5
948.624	7150.99
948.799	6796.7
948.973	6999.45
949.147	6843.8
949.321	7013.78
949.496	6935.96
949.67	7249.3
949.844	6938.01
950.018	7026.07
950.193	7181.71
950.367	7656.84
950.541	7105.94
950.715	7312.78
950.889	7259.54
951.063	7296.4
951.237	7398.8
951.411	6882.71
951.585	7081.36
951.759	7605.64
951.933	7490.96
952.107	7282.06
952.281	7503.25
952.455	7824.78
952.629	7605.64
952.803	7273.87
952.977	7210.39
953.151	7654.8
953.325	7648.65
953.499	7724.43
953.672	7294.35
953.846	7312.78
954.02	7558.54
954.194	7263.63
954.368	7265.68
954.541	7667.08
954.715	7286.16
954.889	7382.42
955.062	7302.54
955.236	7654.8
955.41	7439.76
955.583	7667.08
955.757	7406.99
955.93	7607.69
956.104	7433.61
956.278	7589.26
956.451	7691.66
956.625	7701.9
956.798	8441.22
956.972	7843.21
957.145	7466.38
957.319	7730.57
957.492	7695.75
957.665	7798.15
957.839	7597.45
958.012	7902.6
958.185	7632.27
958.359	7665.04
958.532	7617.93
958.705	8015.24
958.879	7689.61
959.052	7683.47
959.225	7337.36
959.398	7875.98
959.572	7990.66
959.745	7550.35
959.918	7701.9
960.091	7734.67
960.264	8031.62
960.438	7452.05
960.611	7642.51
960.784	7785.87
960.957	7542.16
961.13	7697.8
961.303	7603.6
961.476	7765.39
961.649	8142.21
961.822	7394.7
961.995	7622.03
962.168	7968.13
962.341	8074.63
962.514	7525.77
962.686	7626.12
962.859	7826.82
963.032	7804.3
963.205	7523.73
963.378	7507.34
963.551	7835.02
963.723	7450
963.896	7796.11
964.069	7648.65
964.242	7761.29
964.414	7966.09
964.587	7480.72
964.76	7609.74
964.932	7683.47
965.105	7902.6
965.278	7583.12
965.45	7560.59
965.623	7812.49
965.795	7955.85
965.968	7662.99
966.14	7439.76
966.313	7728.52
966.485	7726.47
966.658	7345.55
966.83	7411.09
967.003	7751.05
967.175	7624.08
967.348	7486.86
967.52	7462.29
967.692	7769.48
967.865	7632.27
968.037	7329.17
968.209	7564.68
968.382	7316.88
968.554	7456.14
968.726	7247.25
968.898	7202.19
969.071	7308.69
969.243	7380.37
969.415	7269.78
969.587	7353.74
969.759	7906.7
969.932	7533.97
970.104	7234.96
970.276	7054.74
970.448	7290.26
970.62	7290.26
970.792	7337.36
970.964	7204.24
971.136	7851.4
971.308	7499.15
971.48	7269.78
971.652	6964.63
971.824	7767.43
971.996	7163.28
972.168	7173.52
972.339	7314.83
972.511	7597.45
972.683	7216.53
972.855	7286.16
973.027	7179.67
973.199	7099.8
973.37	7419.28
973.542	7259.54
973.714	6989.21
973.886	7245.2
974.057	7306.64
974.229	7062.93
974.401	6966.68
974.572	6794.65
974.744	6745.5
974.915	7087.51
975.087	6983.06
975.259	7433.61
975.43	6765.98
975.602	6868.38
975.773	6682.01
975.945	6876.57
976.116	6825.37
976.288	6862.23
976.459	6974.87
976.63	6817.18
976.802	6952.34
976.973	6632.86
977.145	6835.61
977.316	7153.04
977.487	6856.09
977.659	6870.42
977.83	6448.54
978.001	7089.56
978.172	6729.11
978.344	6473.12
978.515	6581.66
978.686	6606.24
978.857	6987.16
979.028	6655.39
979.2	6524.32
979.371	6927.77
979.542	6583.71
979.713	6700.44
979.884	6022.56
980.055	6475.17
980.226	6546.84
980.397	6436.25
980.568	6380.96
980.739	6909.33
980.91	6415.77
981.081	6395.29
981.252	6290.85
981.423	6616.48
981.594	6608.28
981.765	6118.82
981.936	6356.38
982.106	6512.03
982.277	6557.08
982.448	6280.61
982.619	6178.21
982.79	6395.29
982.96	6561.18
983.131	6262.18
983.302	6188.45
983.472	6210.98
983.643	6284.7
983.814	6159.78
983.984	6010.28
984.155	6084
984.326	6360.48
984.496	6170.02
984.667	5977.51
984.837	6034.85
985.008	6434.21
985.178	6225.31
985.349	5899.69
985.519	6059.43
985.69	5987.75
985.86	5830.06
986.031	5877.16
986.201	5969.32
986.371	5995.94
986.542	5821.86
986.712	5574.06
986.882	5901.73
987.053	5936.55
987.223	5555.63
987.393	5879.21
987.563	5731.75
987.734	5844.39
987.904	6047.14
988.074	5643.69
988.244	5858.73
988.414	5590.44
988.585	5416.37
988.755	5774.76
988.925	5707.18
989.095	6026.66
989.265	5557.68
989.435	5473.71
989.605	5723.56
989.775	5819.82
989.945	5897.64
990.115	5481.9
990.285	5723.56
990.455	5723.56
990.625	5416.37
990.795	5334.45
990.965	5797.29
991.134	5164.47
991.304	5180.85
991.474	5143.99
991.644	5328.3
991.814	5690.79
991.984	5117.36
992.153	5197.23
992.323	5461.42
992.493	5180.85
992.662	4963.76
992.832	5264.82
993.002	5334.45
993.171	5342.64
993.341	4920.76
993.511	5225.9
993.68	4931
993.85	5279.15
994.019	4918.71
994.189	5031.35
994.358	5158.32
994.528	5039.54
994.697	4810.17
994.867	4679.1
995.036	5154.23
995.206	4871.61
995.375	4654.52
995.544	4992.44
995.714	4947.38
995.883	4896.18
996.052	4736.44
996.222	4621.75
996.391	5494.19
996.56	4892.09
996.73	4603.32
996.899	4425.15
997.068	5199.28
997.237	4863.41
997.406	4601.27
997.576	4586.94
997.745	4730.3
997.914	4863.41
998.083	4271.55
998.252	4361.66
998.421	4543.93
998.59	4386.24
998.759	4271.55
998.928	4310.46
999.097	4847.03
999.266	4732.34
999.435	4505.02
999.604	4132.29
999.773	5230
999.942	4545.98
1000.111	4312.51
1000.28	4273.6
1000.448	4249.02
1000.617	4490.68
1000.786	4677.05
1000.955	4085.19
1001.124	4396.48
1001.292	5037.49
1001.461	4242.88
1001.63	4005.31
1001.798	4615.61
1001.967	4545.98
1002.136	3884.48
1002.304	4093.38
1002.473	4486.59
1002.642	4302.27
1002.81	4156.86
1002.979	4091.33
1003.147	4296.13
1003.316	4742.58
1003.484	4007.36
1003.653	3728.84
1003.821	4285.89
1003.99	4113.86
1004.158	3937.73
1004.327	4089.28
1004.495	4195.78
1004.663	3870.15
1004.832	4003.27
1005	3687.88
1005.168	4251.07
1005.337	3913.16
1005.505	3710.41
1005.673	4001.22
1005.842	4068.8
1006.01	4115.91
1006.178	3519.95
1006.346	3786.18
1006.514	4036.03
1006.683	4191.68
1006.851	3489.23
1007.019	3476.94
1007.187	3571.15
1007.355	3366.35
1007.523	3292.62
1007.691	3397.07
1007.859	3409.36
1008.027	4005.31
1008.195	3501.51
1008.363	3251.66
1008.531	3964.36
1008.699	3495.37
1008.867	3190.22
1009.035	3315.15
1009.203	3782.09
1009.37	3526.09
1009.538	3403.21
1009.706	3438.03
1009.874	3509.71
1010.042	3421.64
1010.209	3139.02
1010.377	3214.8
1010.545	3657.16
1010.713	3511.75
1010.88	3337.68
1011.048	3202.51
1011.216	3372.49
1011.383	3646.92
1011.551	3110.35
1011.718	2981.33
1011.886	3585.48
1012.054	3220.94
1012.221	3024.34
1012.389	2944.47
1012.556	3249.61
1012.724	3638.73
1012.891	2989.52
1013.058	2782.68
1013.226	3268.05
1013.393	3323.34
1013.561	2844.12
1013.728	2708.95
1013.895	3284.43
1014.063	3210.7
1014.23	2858.45
1014.397	2866.64
1014.565	3329.49
1014.732	3044.82
1014.899	2878.93
1015.066	2696.66
1015.233	3182.03
1015.401	3206.61
1015.568	2913.75
1015.735	2928.08
1015.902	3122.64
1016.069	2911.7
1016.236	2749.91
1016.403	2600.41
1016.57	2706.9
1016.737	2954.71
1016.904	2794.97
1017.071	2461.15
1017.238	2706.9
1017.405	2960.85
1017.572	2528.73
1017.739	2659.8
1017.906	2919.89
1018.073	2915.8
1018.24	2375.13
1018.407	2467.29
1018.573	2926.04
1018.74	2813.4
1018.907	2485.72
1019.074	2299.36
1019.241	2821.59
1019.407	2776.53
1019.574	2383.32
1019.741	2278.88
1019.907	2780.63
1020.074	2807.25
1020.241	2250.21
1020.407	2405.85
1020.574	2694.61
1020.74	2598.36
1020.907	2266.59
1021.073	2354.65
1021.24	2979.28
1021.406	3042.77
1021.573	2162.14
1021.739	2246.11
1021.906	2633.18
1022.072	2520.54
1022.239	2172.38
1022.405	2223.58
1022.571	2518.49
1022.738	2282.97
1022.904	2137.57
1023.07	2221.53
1023.237	2379.23
1023.403	2653.66
1023.569	2254.3
1023.735	2156
1023.902	2510.3
1024.068	2375.13
1024.234	1945.06
1024.4	2069.98
1024.566	2272.73
1024.732	2434.52
1024.898	2194.91
1025.065	1912.29
1025.231	2541.02
1025.397	2112.99
1025.563	2012.64
1025.729	1971.68
1025.895	1775.08
1026.061	1947.11
1026.227	1801.7
1026.392	2061.79
1026.558	2418.14
1026.724	2330.08
1026.89	1902.05
1027.056	1910.24
1027.222	2174.43
1027.388	2004.45
1027.553	1844.71
1027.719	1781.22
1027.885	2422.24
1028.051	2115.04
1028.216	1695.21
1028.382	1949.15
1028.548	2254.3
1028.713	1871.33
1028.879	1660.39
1029.045	1803.75
1029.21	2262.49
1029.376	2233.82
1029.541	1791.46
1029.707	1717.73
1029.873	2133.47
1030.038	2059.74
1030.204	1644.01
1030.369	1738.21
1030.534	2158.05
1030.7	1893.86
1030.865	1674.73
1031.031	1533.42
1031.196	1945.06
1031.361	1938.91
1031.527	1525.22
1031.692	1553.9
1031.857	1570.28
1032.023	1887.72
1032.188	1402.35
1032.353	1541.61
1032.518	2117.09
1032.684	1740.26
1032.849	1291.76
1033.014	1560.04
1033.179	1996.26
1033.344	1969.63
1033.509	1615.34
1033.674	1431.02
1033.839	1859.04
1034.004	1807.84
1034.17	1457.64
1034.335	1361.39
1034.5	1641.96
1034.664	1547.75
1034.829	1289.71
1034.994	1379.82
1035.159	1752.55
1035.324	1809.89
1035.489	1428.97
1035.654	1363.44
1035.819	1871.33
1035.984	1623.53
1036.148	1322.48
1036.313	1312.24
1036.478	1875.43
1036.643	1623.53
1036.807	1326.57
1036.972	1183.21
1037.137	1957.35
1037.301	1502.7
1037.466	1062.38
1037.631	1381.87
1037.795	1912.29
1037.96	1594.86
1038.124	1400.3
1038.289	1162.73
1038.454	1762.79
1038.618	1644.01
1038.783	1267.18
1038.947	1379.82
1039.111	1514.98
1039.276	1426.92
1039.44	1111.54
1039.605	1474.03
1039.769	1226.22
1039.933	1474.03
1040.098	1177.07
1040.262	1359.34
1040.426	1666.53
1040.591	1562.09
1040.755	1136.11
1040.919	1113.58
1041.083	1445.35
1041.248	1299.95
1041.412	970.23
1041.576	982.51
1041.74	1388.01
1041.904	1623.53
1042.068	1140.21
1042.232	1103.34
1042.397	1445.35
1042.561	1441.26
1042.725	882.16
1042.889	1209.84
1043.053	1562.09
1043.217	1541.61
1043.381	1148.4
1043.544	892.4
1043.708	1553.9
1043.872	1070.58
1044.036	740.85
1044.2	855.54
1044.364	1541.61
1044.528	1641.96
1044.691	3395.02
1044.855	986.61
1045.019	1363.44
1045.183	1353.2
1045.346	992.75
1045.51	904.69
1045.674	1299.95
1045.837	1437.16
1046.001	1082.86
1046.165	966.13
1046.328	1822.18
1046.492	1285.61
1046.655	1037.81
1046.819	974.32
1046.983	986.61
1047.146	1410.54
1047.31	972.27
1047.473	808.44
1047.636	1095.15
1047.8	1019.38
1047.963	968.18
1048.127	904.69
1048.29	959.99
