Data from Ink_Intensity_USB4F045381__7__00007.txt Node

Date: Mon Jul 17 09:30:14 EDT 2023
User: mmckonesweet
Spectrometer: USB4F04538
Trigger mode: 4
Integration Time (sec): 9.000000E-1
Scans to average: 1
Electric dark correction enabled: true
Nonlinearity correction enabled: false
Boxcar width: 0
XAxis mode: Wavelengths
Number of Pixels in Spectrum: 3648
>>>>>Begin Spectral Data<<<<<
345.52	-893.6
345.736	-893.6
345.952	-893.6
346.168	-959.13
346.384	-963.23
346.6	-164.52
346.816	-207.53
347.032	-180.9
347.248	271.7
347.464	-152.23
347.68	-0.68
347.896	77.14
348.112	320.85
348.328	-25.26
348.544	-92.84
348.76	-55.98
348.975	210.26
349.191	-199.34
349.407	-185
349.623	-29.35
349.839	-68.27
350.055	3.41
350.27	177.49
350.486	193.87
350.702	501.07
350.918	269.65
351.133	-90.79
351.349	185.68
351.565	326.99
351.781	-158.38
351.996	91.48
352.212	402.77
352.428	-90.79
352.644	-27.31
352.859	-139.94
353.075	333.14
353.291	7.51
353.506	-29.35
353.722	-105.13
353.938	-84.65
354.153	413.01
354.369	146.77
354.584	-92.84
354.8	398.67
355.016	-287.4
355.231	-170.66
355.447	21.85
355.662	109.91
355.878	1000.77
356.093	-193.19
356.309	77.14
356.524	-176.81
356.74	361.81
356.955	-72.36
357.171	171.35
357.386	101.72
357.602	-113.32
357.817	-21.16
358.033	-72.36
358.248	468.3
358.464	185.68
358.679	30.04
358.895	-146.09
359.11	11.61
359.325	402.77
359.541	367.95
359.756	152.92
359.972	-230.06
360.187	200.02
360.402	-31.4
360.618	9.56
360.833	970.05
361.048	202.07
361.264	-27.31
361.479	83.28
361.694	-49.83
361.909	324.94
362.125	-86.7
362.34	71
362.555	273.75
362.77	140.63
362.986	-217.77
363.201	-58.03
363.416	232.79
363.631	58.71
363.847	-25.26
364.062	-43.69
364.277	253.27
364.492	179.54
364.707	11.61
364.922	-205.48
365.138	370
365.353	406.86
365.568	-72.36
365.783	-10.92
365.998	109.91
366.213	623.95
366.428	-33.45
366.643	216.4
366.858	404.82
367.073	206.16
367.288	13.65
367.503	-84.65
367.718	271.7
367.933	347.47
368.148	-168.62
368.363	48.47
368.578	68.95
368.793	619.85
369.008	-41.64
369.223	-105.13
369.438	304.46
369.653	529.74
369.868	-139.94
370.083	7.51
370.298	154.96
370.513	466.25
370.728	212.31
370.943	-21.16
371.157	-103.08
371.372	589.13
371.587	-123.56
371.802	-86.7
372.017	154.96
372.232	466.25
372.446	118.1
372.661	11.61
372.876	402.77
373.091	224.59
373.306	118.1
373.52	48.47
373.735	-33.45
373.95	593.23
374.165	118.1
374.379	105.81
374.594	83.28
374.809	208.21
375.023	259.41
375.238	-78.51
375.453	396.62
375.667	-131.75
375.882	167.25
376.097	15.7
376.311	146.77
376.526	60.76
376.741	-17.07
376.955	247.12
377.17	724.3
377.384	752.97
377.599	181.59
377.813	11.61
378.028	718.15
378.242	300.37
378.457	249.17
378.672	-148.14
378.886	288.08
379.101	144.72
379.315	-27.31
379.53	64.85
379.744	390.48
379.958	312.66
380.173	71
380.387	40.28
380.602	370
380.816	85.33
381.031	134.48
381.245	208.21
381.459	400.72
381.674	2520.37
381.888	111.96
382.103	378.19
382.317	42.32
382.531	724.3
382.746	161.11
382.96	89.43
383.174	27.99
383.388	656.72
383.603	318.8
383.817	62.8
384.031	400.72
384.246	683.34
384.46	275.79
384.674	562.51
384.888	302.42
385.103	259.41
385.317	42.32
385.531	265.55
385.745	474.45
385.959	550.22
386.174	114
386.388	85.33
386.602	224.59
386.816	77.14
387.03	247.12
387.244	286.03
387.458	372.05
387.672	619.85
387.887	87.38
388.101	32.08
388.315	630.09
388.529	370
388.743	212.31
388.957	99.67
389.171	593.23
389.385	214.35
389.599	243.03
389.813	488.78
390.027	507.21
390.241	869.7
390.455	290.13
390.669	243.03
390.883	290.13
391.097	763.21
391.311	462.16
391.525	251.22
391.738	556.36
391.952	603.47
392.166	386.38
392.38	128.34
392.594	650.57
392.808	669
393.022	316.75
393.236	345.42
393.449	570.7
393.663	527.69
393.877	214.35
394.091	431.44
394.305	353.62
394.518	306.51
394.732	200.02
394.946	329.04
395.16	832.84
395.373	499.02
395.587	224.59
395.801	308.56
396.015	726.35
396.228	609.61
396.442	283.99
396.656	93.52
396.869	742.73
397.083	806.22
397.297	535.89
397.51	404.82
397.724	865.61
397.938	552.27
398.151	134.48
398.365	281.94
398.578	757.07
398.792	900.42
399.005	456.01
399.219	431.44
399.433	527.69
399.646	646.48
399.86	574.8
400.073	466.25
400.287	716.11
400.5	486.73
400.714	611.66
400.927	546.12
401.141	748.87
401.354	1453.38
401.567	732.49
401.781	359.76
401.994	838.98
402.208	1103.17
402.421	507.21
402.635	550.22
402.848	611.66
403.061	922.95
403.275	648.52
403.488	410.96
403.701	1191.24
403.915	738.63
404.128	707.91
404.341	509.26
404.555	800.07
404.768	599.37
404.981	613.71
405.195	496.97
405.408	1217.86
405.621	775.5
405.834	626
406.048	507.21
406.261	1068.36
406.474	1156.42
406.687	521.55
406.9	798.03
407.114	695.63
407.327	675.15
407.54	519.5
407.753	509.26
407.966	535.89
408.179	1033.54
408.392	544.08
408.605	576.84
408.819	965.96
409.032	896.33
409.245	564.56
409.458	740.68
409.671	910.66
409.884	1054.02
410.097	511.31
410.31	791.88
410.523	920.9
410.736	767.31
410.949	718.15
411.162	658.76
411.375	1213.76
411.588	988.49
411.801	929.1
412.014	591.18
412.227	736.59
412.44	726.35
412.653	712.01
412.865	798.03
413.078	939.34
413.291	1008.97
413.504	705.87
413.717	841.03
413.93	1078.6
414.143	822.6
414.356	791.88
414.568	632.14
414.781	1217.86
414.994	1004.87
415.207	871.75
415.42	871.75
415.632	1166.66
415.845	1404.22
416.058	658.76
416.271	716.11
416.483	968.01
416.696	1422.66
416.909	953.67
417.121	838.98
417.334	1244.48
417.547	1525.05
417.759	814.41
417.972	884.04
418.185	996.68
418.397	1240.39
418.61	800.07
418.823	937.29
419.035	1469.76
419.248	1047.88
419.46	953.67
419.673	1064.26
419.885	1334.59
420.098	1072.45
420.311	970.05
420.523	806.22
420.736	1226.05
420.948	1219.91
421.161	976.2
421.373	765.26
421.586	1185.09
421.798	1101.12
422.01	863.56
422.223	1039.69
422.435	994.63
422.648	1385.79
422.86	1183.04
423.073	998.73
423.285	1514.81
423.497	951.62
423.71	1125.7
423.922	1133.89
424.134	1346.88
424.347	1549.63
424.559	1338.69
424.771	1342.78
424.984	1166.66
425.196	1363.26
425.408	970.05
425.621	1015.11
425.833	1566.01
426.045	1563.97
426.257	1103.17
426.47	1121.6
426.682	1480
426.894	1510.72
427.106	1205.57
427.318	1244.48
427.531	1377.6
427.743	1559.87
427.955	1230.15
428.167	1645.88
428.379	1570.11
428.591	1367.36
428.804	1412.42
429.016	1328.45
429.228	1543.49
429.44	1568.06
429.652	1533.25
429.864	1277.25
430.076	1516.86
430.288	1604.92
430.5	1484.09
430.712	1514.81
430.924	1926.46
431.136	1553.73
431.348	1234.24
431.56	1494.33
431.772	1523.01
431.984	1635.64
432.196	1436.99
432.408	1490.24
432.62	1688.89
432.832	1760.57
433.044	1723.71
433.256	1660.22
433.468	1946.94
433.679	1357.12
433.891	1488.19
434.103	1801.53
434.315	2141.49
434.527	2008.37
434.739	1748.28
434.95	1758.52
435.162	2127.16
435.374	1619.26
435.586	1709.37
435.798	1731.9
436.009	1549.63
436.221	1879.35
436.433	1625.4
436.645	1740.09
436.856	1787.19
437.068	2182.45
437.28	1709.37
437.491	2059.57
437.703	2088.25
437.915	2035
438.126	1877.3
438.338	2108.73
438.55	1936.7
438.761	2071.86
438.973	1932.6
439.184	1822.01
439.396	2153.78
439.608	2467.12
439.819	1785.15
440.031	2059.57
440.242	2225.46
440.454	2272.56
440.665	2147.64
440.877	2192.69
441.088	2241.84
441.3	2153.78
441.511	1805.63
441.723	1940.79
441.934	2264.37
442.146	2170.16
442.357	2202.93
442.569	2336.05
442.78	2188.6
442.991	2592.05
443.203	2379.06
443.414	2039.09
443.626	2626.86
443.837	2217.27
444.048	2180.4
444.26	2092.34
444.471	2290.99
444.682	2534.7
444.894	2002.23
445.105	2088.25
445.316	2469.17
445.528	2477.36
445.739	2391.34
445.95	2346.29
446.161	2544.94
446.373	2796.84
446.584	2190.64
446.795	2319.67
447.006	2719.02
447.217	2940.2
447.429	2164.02
447.64	2252.08
447.851	2776.36
448.062	2667.82
448.273	2061.62
448.484	2325.81
448.695	2602.29
448.907	2477.36
449.118	2581.81
449.329	2571.57
449.54	2555.18
449.751	2477.36
449.962	2532.65
450.173	2518.32
450.384	3134.76
450.595	2999.59
450.806	2565.42
451.017	2544.94
451.228	2979.11
451.439	3159.33
451.65	2637.1
451.861	2401.58
452.072	2561.33
452.283	2788.65
452.494	2897.19
452.705	2747.69
452.915	3214.63
453.126	2903.34
453.337	2741.55
453.548	2788.65
453.759	3222.82
453.97	3558.69
454.181	3040.55
454.391	2956.58
454.602	3089.7
454.813	3278.12
455.024	2991.4
455.235	2950.44
455.445	3075.37
455.656	3335.46
455.867	2909.48
456.078	3052.84
456.288	3091.75
456.499	3312.93
456.71	3122.47
456.921	3269.92
457.131	3411.23
457.342	3292.45
457.553	3235.11
457.763	3249.44
457.974	3550.5
458.184	3587.36
458.395	3130.66
458.606	3200.29
458.816	3812.64
459.027	3994.9
459.237	3534.11
459.448	3218.72
459.659	3833.11
459.869	4179.22
460.08	3353.89
460.29	3685.66
460.501	4095.25
460.711	3659.04
460.922	3429.67
461.132	3679.52
461.343	4441.36
461.553	3597.6
461.764	3872.03
461.974	3730.72
462.184	4066.58
462.395	4103.45
462.605	3994.9
462.816	3765.53
463.026	4066.58
463.236	4449.55
463.447	3972.38
463.657	3906.84
463.867	4541.71
464.078	4250.9
464.288	4252.95
464.498	4230.42
464.709	4427.03
464.919	4289.81
465.129	4265.24
465.339	4269.33
465.55	4523.28
465.76	4574.48
465.97	4465.94
466.18	4336.92
466.391	4963.59
466.601	4744.46
466.811	4646.16
467.021	4549.9
467.231	5078.28
467.441	4979.98
467.651	4850.96
467.862	4592.91
468.072	5092.62
468.282	5350.66
468.492	4773.13
468.702	5281.03
468.912	5412.1
469.122	5610.75
469.332	5473.54
469.542	5156.1
469.752	5582.08
469.962	5719.29
470.172	5455.11
470.382	5510.4
470.592	5956.86
470.802	6089.98
471.012	5813.5
471.222	5793.02
471.432	6034.68
471.642	6206.71
471.852	6032.63
472.062	5940.47
472.272	6155.51
472.482	6071.54
472.691	5960.95
472.901	6132.98
473.111	6501.62
473.321	7068.91
473.531	6354.16
473.741	6487.28
473.95	6810.86
474.16	6952.17
474.37	6997.23
474.58	6759.66
474.79	7404.77
474.999	7253.22
475.209	6694.13
475.419	7169.26
475.628	7173.35
475.838	7423.2
476.048	7419.11
476.258	7056.62
476.467	8002.78
476.677	7636.19
476.886	7867.61
477.096	7808.22
477.306	7873.76
477.515	8148.18
477.725	7939.29
477.935	7873.76
478.144	8473.81
478.354	8064.22
478.563	8133.85
478.773	8207.58
478.982	8901.84
479.192	8983.76
479.401	8604.88
479.611	8582.35
479.82	8707.28
480.03	8944.84
480.239	8832.21
480.449	8715.47
480.658	9579.72
480.868	9037
481.077	9252.04
481.287	9100.49
481.496	9727.17
481.705	9841.86
481.915	9731.26
482.124	9718.98
482.333	9927.87
482.543	10153.15
482.752	10056.89
482.961	9903.29
483.171	10423.48
483.38	10118.33
483.589	10300.6
483.799	10400.95
484.008	10439.86
484.217	10818.74
484.426	10425.53
484.636	10398.9
484.845	10667.19
485.054	10611.89
485.263	11080.88
485.472	10878.13
485.682	11402.41
485.891	11240.62
486.1	10736.82
486.309	11277.48
486.518	11596.96
486.727	11766.95
486.936	11396.26
487.146	11654.31
487.355	12197.02
487.564	11609.25
487.773	11758.75
487.982	11627.68
488.191	11996.32
488.4	12149.92
488.609	12135.58
488.818	12119.2
489.027	13018.25
489.236	12725.4
489.445	12461.21
489.654	12473.5
489.863	12942.48
490.072	12690.58
490.281	12956.82
490.49	12776.59
490.698	13343.88
490.907	13360.27
491.116	13151.37
491.325	12745.87
491.534	13503.62
491.743	13368.46
491.952	13495.43
492.16	13442.18
492.369	13581.45
492.578	13917.31
492.787	13730.95
492.996	13413.51
493.204	13769.86
493.413	14214.27
493.622	13819.01
493.831	13761.67
494.039	14490.74
494.248	14040.19
494.457	14175.36
494.665	14318.71
494.874	14488.7
495.083	14849.14
495.291	14517.37
495.5	14337.15
495.709	14593.14
495.917	14969.97
496.126	14959.73
496.335	14537.85
496.543	14845.04
496.752	14963.82
496.96	15051.89
497.169	14777.46
497.377	15146.09
497.586	15821.92
497.794	15481.96
498.003	15318.12
498.211	15463.53
498.42	16235.61
498.628	15639.65
498.837	15674.47
499.045	15834.21
499.254	15862.88
499.462	15576.17
499.671	15705.19
499.879	16182.37
500.087	16432.22
500.296	15998.05
500.504	16075.87
500.713	16340.06
500.921	17073.23
501.129	15944.8
501.338	16020.58
501.546	16553.05
501.754	16628.82
501.962	16387.16
502.171	16292.96
502.379	16968.79
502.587	17214.54
502.795	16843.86
503.004	16614.49
503.212	17089.62
503.42	17400.91
503.628	16933.97
503.837	16979.03
504.045	17345.61
504.253	18025.54
504.461	17048.66
504.669	17239.12
504.877	17468.49
505.085	17546.31
505.294	17271.89
505.502	17544.27
505.71	17583.18
505.918	17833.03
506.126	17634.38
506.334	17585.22
506.542	18021.44
506.75	17687.62
506.958	18078.79
507.166	18203.71
507.374	17910.85
507.582	18551.87
507.79	18267.2
507.998	17830.98
508.206	18424.89
508.414	18181.18
508.622	18355.26
508.83	18275.39
509.037	18648.12
509.245	18265.15
509.453	18259.01
509.661	18392.12
509.869	18801.72
510.077	18322.49
510.285	18777.14
510.492	18410.56
510.7	19747.88
510.908	18707.51
511.116	18781.24
511.324	18865.21
511.531	19002.42
511.739	18871.35
511.947	18949.17
512.155	19141.68
512.362	19450.92
512.57	19041.33
512.778	18996.28
512.985	18955.32
513.193	19600.43
513.401	19794.98
513.608	19172.4
513.816	19364.91
514.024	19649.58
514.231	20204.58
514.439	19475.5
514.646	19690.54
514.854	19858.47
515.061	19819.56
515.269	19631.15
515.477	19844.13
515.684	19749.93
515.892	20130.85
516.099	19799.08
516.307	19895.33
516.514	20397.09
516.722	20489.24
516.929	20335.65
517.136	20093.99
517.344	20405.28
517.551	20651.03
517.759	20323.36
517.966	20098.08
518.173	20225.06
518.381	20775.96
518.588	20347.93
518.796	20691.99
519.003	20927.51
519.21	20714.52
519.418	20495.39
519.625	20694.04
519.832	20818.97
520.039	21304.34
520.247	20798.49
520.454	21330.96
520.661	21617.68
520.868	21390.35
521.076	21560.33
521.283	21388.3
521.49	21763.08
521.697	21691.4
521.904	21462.03
522.112	21009.43
522.319	21795.85
522.526	21490.7
522.733	21416.97
522.94	21537.8
523.147	21453.84
523.354	22234.11
523.561	21705.74
523.768	21806.09
523.975	22311.94
524.183	22012.93
524.39	22297.6
524.597	22162.44
524.804	22342.66
525.011	22346.75
525.218	21861.38
525.425	22561.79
525.632	22748.15
525.838	22457.34
526.045	22445.05
526.252	21957.64
526.459	23700.46
526.666	23430.13
526.873	22557.69
527.08	22365.18
527.287	23493.61
527.494	23073.78
527.701	22899.7
527.907	22881.27
528.114	23534.57
528.321	23215.09
528.528	22965.24
528.735	22981.62
528.941	22981.62
529.148	23024.63
529.355	23088.12
529.562	22688.76
529.768	23608.3
529.975	23368.69
530.182	23466.99
530.388	23206.9
530.595	24179.68
530.802	23729.13
531.008	23804.91
531.215	23983.08
531.422	24648.67
531.628	24679.39
531.835	24054.76
532.042	23882.73
532.248	24038.37
532.455	24284.13
532.661	24048.61
532.868	24007.65
533.074	24392.67
533.281	24638.43
533.487	24493.02
533.694	24331.23
533.9	24396.77
534.107	24431.58
534.313	24765.4
534.52	24497.12
534.726	24912.86
534.933	25322.45
535.139	24656.86
535.345	24814.55
535.552	25091.03
535.758	25086.93
535.965	25254.87
536.171	25056.21
536.377	25426.9
536.584	25506.77
536.79	25078.74
536.996	25121.75
537.203	25654.22
537.409	25600.97
537.615	25316.31
537.821	25500.62
538.028	26022.86
538.234	25789.39
538.44	25578.45
538.646	25760.72
538.853	25809.87
539.059	25592.78
539.265	25990.09
539.471	26008.52
539.677	26467.27
539.883	26491.84
540.09	26002.38
540.296	26751.93
540.502	26631.1
540.708	26045.38
540.914	26459.07
541.12	26354.63
541.326	26756.03
541.532	26864.57
541.738	26856.38
541.944	26528.7
542.15	27278.26
542.356	27302.84
542.562	26696.64
542.768	27202.49
542.974	28060.59
543.18	27552.69
543.386	26885.05
543.592	26934.2
543.798	27583.41
544.004	27659.18
544.21	27759.53
544.415	27655.09
544.621	27618.22
544.827	27935.66
545.033	27483.06
545.239	27532.21
545.445	27749.29
545.651	28066.73
545.856	27739.05
546.062	27890.6
546.268	27718.57
546.474	28152.74
546.679	27855.79
546.885	27560.88
547.091	27997.1
547.297	27960.23
547.502	27812.78
547.708	27659.18
547.914	28160.94
548.119	28515.23
548.325	28029.87
548.531	27859.88
548.736	28828.57
548.942	27870.12
549.147	28111.78
549.353	28787.61
549.559	28988.31
549.764	28517.28
549.97	28214.18
550.175	28588.96
550.381	28892.06
550.586	28191.66
550.792	28339.11
550.997	28457.89
551.203	28787.61
551.408	29125.53
551.614	28867.48
551.819	29088.67
552.025	29500.31
552.23	29823.89
552.435	28691.36
552.641	29868.94
552.846	29670.29
553.052	29870.99
553.257	29465.49
553.462	29748.11
553.668	29655.95
553.873	30057.35
554.078	29475.73
554.283	29492.12
554.489	30114.7
554.694	30284.68
554.899	29911.95
555.105	30098.31
555.31	30229.38
555.515	30153.61
555.72	30196.62
555.925	30102.41
556.131	30600.07
556.336	30233.48
556.541	30530.44
556.746	30153.61
556.951	30657.41
557.156	30765.95
557.361	30114.7
557.567	30677.89
557.772	31181.69
557.977	30518.15
558.182	30632.83
558.387	30475.14
558.592	30194.57
558.797	31337.34
559.002	30755.71
559.207	30749.57
559.412	30552.96
559.617	31433.59
559.822	30866.3
560.027	30876.54
560.232	31394.68
560.437	31279.99
560.642	30815.1
560.847	31028.09
561.051	31136.63
561.256	30724.99
561.461	30972.8
561.666	31138.68
561.871	31103.87
562.076	31454.07
562.281	31138.68
562.485	31507.32
562.69	31396.73
562.895	31443.83
563.1	31482.74
563.305	31349.62
563.509	31921.01
563.714	32129.9
563.919	31529.84
564.123	31394.68
564.328	31492.98
564.533	31916.91
564.737	31507.32
564.942	31513.46
565.147	32265.06
565.351	32160.62
565.556	31820.66
565.761	31693.68
565.965	31968.11
566.17	31622
566.374	32238.44
566.579	31824.75
566.784	32287.59
566.988	32559.97
567.193	32004.97
567.397	32058.22
567.602	31968.11
567.806	32035.69
568.011	32260.97
568.215	32412.52
568.42	32588.64
568.624	32736.1
568.828	32566.12
569.033	32310.12
569.237	32789.35
569.442	32904.03
569.646	32068.46
569.85	32484.2
570.055	32770.91
570.259	32861.02
570.463	32473.96
570.668	32299.88
570.872	32412.52
571.076	33323.86
571.281	32885.6
571.485	32901.98
571.689	33170.27
571.893	33370.97
572.098	33002.33
572.302	33039.2
572.506	33321.82
572.71	33702.74
572.914	33327.96
573.119	33442.65
573.323	33930.06
573.527	33794.9
573.731	33575.76
573.935	33389.4
574.139	33942.35
574.343	33178.46
574.547	33686.36
574.751	33334.1
574.955	34059.09
575.159	34022.22
575.364	33082.2
575.568	33340.25
575.772	33897.3
575.976	34325.32
576.18	33420.12
576.383	33946.45
576.587	34478.92
576.791	34331.47
576.995	33651.54
577.199	33839.95
577.403	34435.91
577.607	34675.52
577.811	34343.75
578.015	33971.02
578.219	34503.49
578.422	34921.28
578.626	34485.06
578.83	34323.27
579.034	34988.86
579.238	35150.65
579.442	34653
579.645	34808.64
579.849	34417.48
580.053	34952
580.257	34681.67
580.46	34595.65
580.664	35025.73
580.868	34911.04
581.071	35185.47
581.275	35119.93
581.479	34865.99
581.682	35169.08
581.886	35134.27
582.09	34843.46
582.293	35431.22
582.497	35322.68
582.7	35046.21
582.904	35009.34
583.107	35025.73
583.311	34947.9
583.515	35320.63
583.718	35595.06
583.922	35527.48
584.125	36193.07
584.329	35453.75
584.532	35715.89
584.735	36047.66
584.939	35607.35
585.142	35121.98
585.346	35185.47
585.549	36002.61
585.753	36018.99
585.956	35683.12
586.159	35916.59
586.363	36649.77
586.566	36363.05
586.769	36068.14
586.973	35988.27
587.176	35906.35
587.379	36483.88
587.582	36563.75
587.786	36129.58
587.989	36428.59
588.192	37319.45
588.395	36207.4
588.599	36537.13
588.802	36715.3
589.005	36868.9
589.208	36260.65
589.411	36727.59
589.615	36520.74
589.818	37100.32
590.021	37063.46
590.224	37061.41
590.427	37358.36
590.63	37346.08
590.833	36660.01
591.036	36756.26
591.239	37370.65
591.442	37159.71
591.645	37219.1
591.848	37239.58
592.051	37303.07
592.254	37315.36
592.457	37546.78
592.66	37518.1
592.863	37600.02
593.066	37872.4
593.269	37487.39
593.472	37288.73
593.675	37640.98
593.878	37663.51
594.081	37952.27
594.284	37608.22
594.486	37505.82
594.689	38073.1
594.892	37655.32
595.095	38091.54
595.298	37845.78
595.5	38413.07
595.703	38142.74
595.906	37837.59
596.109	38943.49
596.311	38906.63
596.514	37516.06
596.717	38048.53
596.92	39084.8
597.122	38660.87
597.325	38116.11
597.528	38255.37
597.73	38998.79
597.933	38355.72
598.136	38509.32
598.338	38456.07
598.541	38441.74
598.743	39156.48
598.946	38564.62
599.148	38705.93
599.351	39279.36
599.554	39230.21
599.756	39142.14
599.959	38955.78
600.161	39480.06
600.363	40119.03
600.566	39017.22
600.768	38941.44
600.971	40125.17
601.173	39240.45
601.376	39183.1
601.578	39322.37
601.78	39561.98
601.983	39777.01
602.185	39559.93
602.388	39150.34
602.59	39250.69
602.792	39516.92
602.995	39404.28
603.197	39371.52
603.399	39822.07
603.601	39449.34
603.804	39185.15
604.006	39361.28
604.208	39211.78
604.41	39318.27
604.613	39541.5
604.815	39594.75
605.017	40340.21
605.219	39254.78
605.421	40221.42
605.623	39424.76
605.826	40348.4
606.028	39854.84
606.23	39668.47
606.432	39402.24
606.634	40600.3
606.836	40108.79
607.038	39547.64
607.24	40061.68
607.442	39848.69
607.644	39885.56
607.846	40184.56
608.048	39656.18
608.25	40164.08
608.452	39885.56
608.654	40100.59
608.856	39568.12
609.058	40422.12
609.26	40301.29
609.462	40397.55
609.664	39709.43
609.866	40209.14
610.067	40622.83
610.269	40200.94
610.471	39942.9
610.673	40399.6
610.875	40577.77
611.077	39893.75
611.278	40338.16
611.48	39899.89
611.682	40379.12
611.884	40231.66
612.085	39897.84
612.287	40194.8
612.489	40442.6
612.69	40157.94
612.892	40286.96
613.094	40815.33
613.295	40491.76
613.497	40319.73
613.699	40989.41
613.9	41495.26
614.102	41130.72
614.304	40137.46
614.505	39723.77
614.707	40176.37
614.908	40364.78
615.11	39774.97
615.311	39910.13
615.513	40207.09
615.714	40551.15
615.916	40280.81
616.117	40145.65
616.319	40633.07
616.52	40639.21
616.722	40674.02
616.923	40835.81
617.124	41181.92
617.326	40694.5
617.527	40856.29
617.729	40880.87
617.93	40764.14
618.131	41126.63
618.333	40579.82
618.534	40520.43
618.735	40925.92
618.937	40925.92
619.138	40258.29
619.339	40420.08
619.54	41210.59
619.742	41171.68
619.943	40942.31
620.144	40954.6
620.345	41009.89
620.546	41087.71
620.748	40469.23
620.949	40405.74
621.15	40950.5
621.351	41224.93
621.552	40995.56
621.753	40674.02
621.954	41257.7
622.155	41267.94
622.356	40547.05
622.558	40727.27
622.759	41069.28
622.96	41329.37
623.161	40379.12
623.362	40714.98
623.563	41073.38
623.764	41046.75
623.965	40667.88
624.166	41231.07
624.366	40860.39
624.567	41083.62
624.768	40989.41
624.969	40311.53
625.17	40995.56
625.371	41308.89
625.572	40958.69
625.773	40946.4
625.973	41399.01
626.174	41261.79
626.375	41269.98
626.576	41214.69
626.777	41446.11
626.977	42105.55
627.178	40942.31
627.379	41114.34
627.58	41304.8
627.78	41589.47
627.981	40829.67
628.182	41128.67
628.382	41294.56
628.583	40837.86
628.784	41267.94
628.984	40917.73
629.185	41923.29
629.386	41267.94
629.586	41263.84
629.787	41401.05
629.987	42017.49
630.188	41831.13
630.388	41743.06
630.589	41269.98
630.79	42193.62
630.99	41501.4
631.191	41444.06
631.391	41878.23
631.591	41878.23
631.792	42277.58
631.992	41984.72
632.193	42005.2
632.393	42134.23
632.594	41724.63
632.794	41620.19
632.994	41755.35
633.195	41851.61
633.395	41970.39
633.595	41763.54
633.796	42300.11
633.996	42207.95
634.196	41927.38
634.397	41822.94
634.597	41614.04
634.797	41773.78
634.997	42486.48
635.198	41618.14
635.398	42111.7
635.598	42404.56
635.798	42304.21
635.998	42375.89
636.199	41892.57
636.399	41855.7
636.599	41984.72
636.799	41876.18
636.999	41773.78
637.199	42040.02
637.399	42226.39
637.599	42031.83
637.799	42058.45
637.999	42472.14
638.199	42818.25
638.399	41845.46
638.599	41974.48
638.799	42375.89
638.999	43014.85
639.199	42699.47
639.399	42214.1
639.599	43145.92
639.799	41773.78
639.999	41919.19
640.199	42212.05
640.399	42130.13
640.599	41335.52
640.799	42455.76
640.998	42056.4
641.198	42738.38
641.398	42222.29
641.598	42828.49
641.798	43000.52
641.997	43250.37
642.197	42166.99
642.397	43195.07
642.597	42781.38
642.796	43008.71
642.996	42748.62
643.196	42771.14
643.395	42298.06
643.595	43068.1
643.795	42769.1
643.994	42758.86
644.194	42613.45
644.394	42539.72
644.593	43066.05
644.793	43098.82
644.992	42590.92
645.192	42900.17
645.392	42621.64
645.591	42746.57
645.791	42713.8
645.99	43123.4
646.19	42678.99
646.389	43102.92
646.589	42869.45
646.788	43276.99
646.987	42783.43
647.187	43387.58
647.386	42984.13
647.586	42805.96
647.785	42988.23
647.984	42838.73
648.184	43129.54
648.383	43250.37
648.582	43035.33
648.782	43326.14
648.981	43373.25
649.18	42883.78
649.38	43659.96
649.579	43070.15
649.778	42941.13
649.977	43973.3
650.177	43211.46
650.376	43193.03
650.575	42848.97
650.774	43981.49
650.973	42937.03
651.173	42836.68
651.372	43201.22
651.571	43573.95
651.77	43778.75
651.969	43371.2
652.168	43010.76
652.367	43104.96
652.566	43401.92
652.765	43211.46
652.964	43629.24
653.163	43588.28
653.362	43453.12
653.561	43088.58
653.76	43162.31
653.959	44057.27
654.158	44290.74
654.357	44061.36
654.556	43317.95
654.755	44087.99
654.954	44212.91
655.153	43719.35
655.352	43750.07
655.551	44165.81
655.749	43858.62
655.948	43606.72
656.147	43809.46
656.346	43973.3
656.545	43662.01
656.743	43662.01
656.942	44221.11
657.141	43948.73
657.34	43702.97
657.538	43885.24
657.737	43635.39
657.936	43827.9
658.135	44108.47
658.333	43438.78
658.532	43584.19
658.731	44366.51
658.929	43817.66
659.128	44190.39
659.326	44090.04
659.525	44573.36
659.724	43958.97
659.922	44010.17
660.121	43303.62
660.319	43950.77
660.518	43686.59
660.716	44253.87
660.915	44061.36
661.113	44126.9
661.312	43885.24
661.51	43944.63
661.709	44159.67
661.907	44415.66
662.105	44505.77
662.304	44198.58
662.502	44096.18
662.701	44559.02
662.899	43805.37
663.097	44036.79
663.296	43483.84
663.494	44440.24
663.692	44251.83
663.891	44022.45
664.089	44051.13
664.287	44030.65
664.485	44911.27
664.684	44288.69
664.882	43944.63
665.08	44214.96
665.278	44485.29
665.476	43788.99
665.675	43989.69
665.873	44972.71
666.071	44898.98
666.269	44284.59
666.467	44032.69
666.665	44270.26
666.863	43879.1
667.061	44315.31
667.259	44128.95
667.457	44382.9
667.655	44186.29
667.853	43866.81
668.051	43895.48
668.249	43938.49
668.447	44350.13
668.645	43852.47
668.843	44309.17
669.041	44040.89
669.239	43735.74
669.437	44464.81
669.635	44239.54
669.833	44022.45
670.031	44348.08
670.229	43989.69
670.426	43674.3
670.624	44131
670.822	43524.8
671.02	43836.09
671.218	43524.8
671.415	43653.82
671.613	43913.91
671.811	43240.13
672.009	43758.27
672.206	44290.74
672.404	43995.83
672.602	43842.23
672.799	43745.98
672.997	44075.7
673.195	44124.85
673.392	43821.75
673.59	43662.01
673.788	43860.66
673.985	43578.04
674.183	43930.29
674.38	43584.19
674.578	44198.58
674.775	43637.44
674.973	43584.19
675.17	43494.08
675.368	44221.11
675.565	43717.31
675.763	43451.07
675.96	43727.55
676.158	44319.41
676.355	43299.52
676.553	43596.48
676.75	43375.3
676.947	43748.03
677.145	43909.82
677.342	43811.51
677.539	43573.95
677.737	43496.13
677.934	43604.67
678.131	43330.24
678.329	43604.67
678.526	43424.45
678.723	43870.9
678.92	43801.27
679.118	43358.91
679.315	43213.51
679.512	43776.7
679.709	43764.41
679.906	42910.41
680.104	43684.54
680.301	43598.52
680.498	43381.44
680.695	42951.37
680.892	43440.83
681.089	43346.62
681.286	43477.69
681.483	42640.07
681.68	43317.95
681.877	43526.85
682.075	42883.78
682.272	43195.07
682.469	43322.05
682.665	43223.75
682.862	43088.58
683.059	43078.34
683.256	43168.45
683.453	42957.51
683.65	43127.49
683.847	42959.56
684.044	43031.24
684.241	42957.51
684.438	43154.11
684.635	42547.92
684.831	43311.81
685.028	43246.27
685.225	42957.51
685.422	42916.55
685.619	42134.23
685.815	43047.62
686.012	42787.53
686.209	42050.26
686.405	42687.18
686.602	42945.22
686.799	42238.67
686.996	42834.63
687.192	42506.96
687.389	42748.62
687.586	42367.69
687.782	42785.48
687.979	42898.12
688.175	42410.7
688.372	42363.6
688.568	42146.51
688.765	42314.45
688.962	42842.82
689.158	42449.61
689.355	42117.84
689.551	42138.32
689.748	41865.94
689.944	41982.68
690.14	42017.49
690.337	42113.75
690.533	42334.93
690.73	42218.19
690.926	42107.6
691.123	41513.69
691.319	41802.46
691.515	41702.11
691.712	41382.62
691.908	41994.96
692.104	41898.71
692.301	42078.93
692.497	41650.91
692.693	42494.67
692.889	41919.19
693.086	41802.46
693.282	41728.73
693.478	41999.06
693.674	41984.72
693.87	41325.28
694.067	41388.77
694.263	41464.54
694.459	41607.9
694.655	41786.07
694.851	41777.88
695.047	41665.24
695.243	41861.85
695.439	41599.71
695.635	41241.31
695.831	41356
696.027	41509.6
696.224	41356
696.42	42042.07
696.615	42535.63
696.811	41738.97
697.007	41349.85
697.203	41444.06
697.399	41634.52
697.595	41566.94
697.791	40522.47
697.987	40930.02
698.183	41093.86
698.379	40852.2
698.575	41331.42
698.77	41151.2
698.966	41683.67
699.162	41607.9
699.358	41155.3
699.554	41251.55
699.749	41448.16
699.945	41278.18
700.141	40809.19
700.337	40737.51
700.532	40927.97
700.728	40864.49
700.924	40714.98
701.119	40727.27
701.315	40985.32
701.511	40622.83
701.706	40942.31
701.902	40391.4
702.097	41114.34
702.293	41040.61
702.489	40540.91
702.684	40678.12
702.88	40588.01
703.075	40458.99
703.271	40545
703.466	40217.33
703.662	40399.6
703.857	41009.89
704.053	40887.01
704.248	40958.69
704.443	41104.1
704.639	40737.51
704.834	40463.08
705.03	40487.66
705.225	40643.31
705.42	40600.3
705.616	40698.6
705.811	40225.52
706.006	40381.17
706.202	40190.7
706.397	39983.86
706.592	40137.46
706.787	40114.93
706.983	40463.08
707.178	40944.36
707.373	40276.72
707.568	40438.51
707.763	40469.23
707.959	40399.6
708.154	40092.4
708.349	40426.22
708.544	40485.61
708.739	40471.28
708.934	39740.15
709.129	40200.94
709.324	40153.84
709.519	40090.35
709.714	39803.64
709.909	40129.26
710.104	40012.53
710.299	39435
710.494	39600.89
710.689	39940.85
710.884	39615.22
711.079	39901.94
711.274	39930.61
711.469	40092.4
711.664	39828.21
711.859	39455.48
712.054	40010.48
712.249	39731.96
712.443	39693.05
712.638	39209.73
712.833	39273.21
713.028	39746.29
713.223	39629.56
713.417	39944.95
713.612	39686.9
713.807	40354.54
714.002	40217.33
714.196	39748.34
714.391	39123.71
714.586	39506.68
714.78	39488.25
714.975	39473.92
715.17	39185.15
715.364	39133.95
715.559	39484.15
715.754	38486.79
715.948	38996.74
716.143	39133.95
716.337	38767.37
716.532	39541.5
716.726	39199.49
716.921	39185.15
717.115	39453.44
717.31	39144.19
717.504	39564.03
717.699	39348.99
717.893	38730.5
718.088	38908.68
718.282	38945.54
718.476	39197.44
718.671	39189.25
718.865	38423.31
719.059	38456.07
719.254	38761.22
719.448	38900.48
719.642	39783.16
719.837	37919.51
720.031	38249.23
720.225	38724.36
720.419	38411.02
720.614	38435.59
720.808	38595.34
721.002	37933.84
721.196	38374.16
721.39	38064.91
721.585	38380.3
721.779	38583.05
721.973	38269.71
722.167	37827.35
722.361	37980.95
722.555	38669.06
722.749	37962.51
722.943	37917.46
723.137	37798.68
723.331	38054.67
723.525	37899.03
723.719	37907.22
723.913	38118.16
724.107	37976.85
724.301	38136.59
724.495	37708.57
724.689	38316.81
724.883	37935.89
725.077	38015.76
725.271	37817.11
725.465	38124.3
725.659	37960.47
725.853	37974.8
726.046	37526.3
726.24	37571.35
726.434	37557.02
726.628	37561.11
726.822	37485.34
727.015	38308.62
727.209	38064.91
727.403	37595.93
727.596	37407.51
727.79	37731.09
727.984	38394.64
728.177	37649.17
728.371	37708.57
728.565	37782.29
728.758	37483.29
728.952	37030.69
729.146	37149.47
729.339	37487.39
729.533	37536.54
729.726	37585.69
729.92	37053.22
730.113	37694.23
730.307	37616.41
730.5	37180.19
730.694	36995.87
730.887	36864.8
731.081	37804.82
731.274	37395.23
731.468	37018.4
731.661	37266.2
731.854	37817.11
732.048	37706.52
732.241	37501.72
732.435	37559.06
732.628	37849.88
732.821	37471
733.014	37239.58
733.208	37133.09
733.401	37618.46
733.594	37067.55
733.788	37444.38
733.981	37341.98
734.174	37929.75
734.367	37391.13
734.56	37364.51
734.754	37255.96
734.947	37436.19
735.14	37038.88
735.333	37255.96
735.526	37702.42
735.719	37026.59
735.912	37341.98
736.105	36877.09
736.298	37389.08
736.491	36991.78
736.684	37026.59
736.877	37354.27
737.07	37427.99
737.263	37104.42
737.456	36969.25
737.649	36811.56
737.842	37192.48
738.035	37042.98
738.228	36668.2
738.421	37237.53
738.614	38134.54
738.807	37677.85
739	36956.96
739.192	36711.21
739.385	37411.61
739.578	36967.2
739.771	36789.03
739.964	36418.35
740.156	37139.23
740.349	36459.31
740.542	37102.37
740.735	36444.97
740.927	36533.03
741.12	36961.06
741.313	36580.14
741.505	37329.69
741.698	36811.56
741.891	36885.28
742.083	36555.56
742.276	36676.39
742.468	36743.97
742.661	36838.18
742.854	36500.26
743.046	36291.37
743.239	36815.65
743.431	36821.8
743.624	36322.09
743.816	36252.46
744.009	36598.57
744.201	36520.74
744.393	36612.9
744.586	36309.8
744.778	36999.97
744.971	36477.74
745.163	36561.7
745.355	35975.98
745.548	36373.29
745.74	36199.21
745.932	36512.55
746.125	36328.24
746.317	37333.79
746.509	36338.47
746.702	36203.31
746.894	36440.87
747.086	36600.61
747.278	36567.85
747.471	36266.8
747.663	36182.83
747.855	35941.17
748.047	36201.26
748.239	35889.97
748.431	35930.93
748.623	36561.7
748.815	35928.88
749.008	35582.77
749.2	35547.96
749.392	36049.71
749.584	35941.17
749.776	35924.79
749.968	35955.5
750.16	36498.22
750.352	35705.65
750.544	35599.16
750.736	35746.61
750.928	36428.59
751.12	35971.89
751.311	35648.31
751.503	35937.07
751.695	35590.97
751.887	35285.82
752.079	35468.09
752.271	35371.83
752.463	36535.08
752.654	35545.91
752.846	35513.14
753.038	35539.77
753.23	35574.58
753.421	35269.44
753.613	34976.58
753.805	35201.85
753.997	35400.51
754.188	35429.18
754.38	34687.81
754.572	34972.48
754.763	35146.56
754.955	35279.68
755.146	34804.55
755.338	34761.54
755.53	35130.17
755.721	35226.43
755.913	34429.77
756.104	34661.19
756.296	34429.77
756.487	35029.82
756.679	34761.54
756.87	34353.99
757.062	34489.16
757.253	34751.3
757.445	35121.98
757.636	35134.27
757.827	34904.9
758.019	35097.41
758.21	34054.99
758.401	34605.89
758.593	34890.56
758.784	35038.01
758.975	34171.72
759.167	33944.4
759.358	34474.82
759.549	34800.45
759.74	33452.89
759.932	33827.67
760.123	34382.66
760.314	33844.05
760.505	33903.44
760.696	33782.61
760.888	34282.31
761.079	33594.2
761.27	33835.86
761.461	33256.28
761.652	34085.71
761.843	33444.69
762.034	33438.55
762.225	33776.47
762.416	33882.96
762.607	33575.76
762.798	33354.58
762.989	32889.7
763.18	33979.21
763.371	33188.7
763.562	33282.91
763.753	33057.63
763.944	33123.16
764.135	33485.65
764.326	33510.23
764.517	33221.47
764.708	33377.11
764.899	33311.58
765.089	32779.11
765.28	32699.23
765.471	33471.32
765.662	33080.16
765.853	32936.8
766.043	32303.98
766.234	33223.51
766.425	33053.53
766.615	32721.76
766.806	32598.88
766.997	32826.21
767.187	32607.08
767.378	32652.13
767.569	32090.99
767.759	32566.12
767.95	32684.9
768.141	32252.78
768.331	32224.11
768.522	32244.59
768.712	32570.21
768.903	32287.59
769.093	32080.75
769.284	32535.4
769.474	32529.25
769.665	31921.01
769.855	31988.59
770.046	32330.6
770.236	31857.52
770.426	31976.3
770.617	31437.69
770.807	32058.22
770.998	31507.32
771.188	31691.63
771.378	31396.73
771.569	32021.36
771.759	32342.89
771.949	31665.01
772.139	31423.35
772.33	31196.03
772.52	31843.18
772.71	31415.16
772.9	31153.02
773.09	31781.74
773.281	31681.39
773.471	30882.69
773.661	31261.56
773.851	31323
774.041	31167.35
774.231	31177.59
774.421	31179.64
774.611	31558.52
774.802	30925.69
774.992	30716.8
775.182	31173.5
775.372	31148.92
775.562	30774.14
775.752	30759.81
775.942	30432.13
776.131	30780.29
776.321	30620.55
776.511	30450.56
776.701	30464.9
776.891	30638.98
777.081	30401.41
777.271	30462.85
777.461	30452.61
777.651	30411.65
777.84	30819.2
778.03	30339.97
778.22	29819.79
778.41	30935.93
778.599	30028.68
778.789	30043.02
778.979	30356.36
779.169	30532.48
779.358	30598.02
779.548	30278.54
779.738	29533.07
779.927	30251.91
780.117	30118.79
780.307	30118.79
780.496	29678.48
780.686	30464.9
780.875	30092.17
781.065	29889.42
781.254	29322.13
781.444	29832.08
781.633	29922.19
781.823	29455.25
782.012	29119.38
782.202	29580.18
782.391	29735.82
782.581	29641.62
782.77	29735.82
782.96	29832.08
783.149	28816.29
783.338	28887.96
783.528	29219.74
783.717	29432.72
783.906	29561.75
784.096	29068.19
784.285	29033.37
784.474	29025.18
784.663	28785.57
784.853	29348.76
785.042	28832.67
785.231	29201.3
785.42	29295.51
785.61	29229.98
785.799	28935.07
785.988	29209.5
786.177	28877.72
786.366	28918.68
786.555	29512.59
786.744	29334.42
786.933	28838.81
787.122	29062.04
787.312	28863.39
787.501	28945.31
787.69	28808.09
787.879	28281.77
788.068	28332.96
788.257	28107.69
788.445	28548
788.634	28558.24
788.823	28502.95
789.012	29502.36
789.201	28799.9
789.39	28197.8
789.579	27939.75
789.768	28564.39
789.957	27974.57
790.145	28253.09
790.334	27851.69
790.523	28226.47
790.712	28326.82
790.9	28220.33
791.089	27898.8
791.278	28349.35
791.467	27825.07
791.655	28259.24
791.844	28343.2
792.033	27769.77
792.221	27450.29
792.41	27777.97
792.599	27634.61
792.787	28476.32
792.976	28310.44
793.164	27706.29
793.353	27835.31
793.541	27919.28
793.73	28050.35
793.918	27806.64
794.107	27630.51
794.295	27642.8
794.484	27292.6
794.672	27415.47
794.861	27411.38
795.049	27870.12
795.238	27796.4
795.426	27169.72
795.614	27511.73
795.803	27196.34
795.991	27937.71
796.179	27284.4
796.368	27411.38
796.556	27722.67
796.744	27192.25
796.932	27378.61
797.121	26940.35
797.309	27294.64
797.497	27976.62
797.685	27222.97
797.874	27444.15
798.062	27472.82
798.25	27421.62
798.438	27364.28
798.626	27134.9
798.814	27632.56
799.002	27802.54
799.19	27384.76
799.378	27071.42
799.566	27669.42
799.755	27581.36
799.943	27173.81
800.131	27095.99
800.318	27536.31
800.506	27612.08
800.694	26637.25
800.882	26782.65
801.07	27067.32
801.258	26897.34
801.446	27067.32
801.634	26778.56
801.822	27487.15
802.01	27337.65
802.197	27446.19
802.385	27345.84
802.573	27122.62
802.761	27268.02
802.949	27130.81
803.136	27153.33
803.324	27395
803.512	27182.01
803.699	27233.21
803.887	27179.96
804.075	27638.7
804.262	27110.33
804.45	27390.9
804.638	26844.09
804.825	27286.45
805.013	26670.01
805.201	27104.18
805.388	26520.51
805.576	26921.91
805.763	27829.16
805.951	27225.01
806.138	27452.34
806.326	27890.6
806.513	27308.98
806.701	27126.71
806.888	27155.38
807.075	27239.35
807.263	27487.15
807.45	27194.29
807.638	27413.43
807.825	28058.54
808.012	27818.92
808.2	27280.31
808.387	27898.8
808.574	27648.94
808.761	27642.8
808.949	27102.14
809.136	27599.79
809.323	27835.31
809.51	27491.25
809.698	27853.74
809.885	27679.66
810.072	27902.89
810.259	27483.06
810.446	27354.04
810.633	27388.85
810.82	27694
811.008	27919.28
811.195	27489.2
811.382	27798.45
811.569	28122.02
811.756	27571.12
811.943	27935.66
812.13	28062.63
812.317	27691.95
812.504	27517.87
812.691	27749.29
812.878	27663.28
813.064	28158.89
813.251	27757.49
813.438	27646.9
813.625	27317.17
813.812	27595.7
813.999	27968.43
814.186	27536.31
814.372	27360.18
814.559	27507.63
814.746	27777.97
814.933	27491.25
815.12	27401.14
815.306	27016.12
815.493	27673.52
815.68	27556.78
815.866	27255.73
816.053	27966.38
816.24	27937.71
816.426	27927.47
816.613	27628.46
816.799	27415.47
816.986	27712.43
817.173	27360.18
817.359	27036.6
817.546	27399.09
817.732	27245.49
817.919	27171.77
818.105	27259.83
818.292	27591.6
818.478	27634.61
818.665	27515.83
818.851	27505.59
819.037	27767.73
819.224	27261.88
819.41	27055.03
819.597	27098.04
819.783	27849.64
819.969	27462.58
820.156	27341.75
820.342	27268.02
820.528	27382.71
820.714	27288.5
820.901	27374.52
821.087	27048.89
821.273	27751.34
821.459	26471.36
821.646	26934.2
821.832	26579.9
822.018	26831.8
822.204	26508.22
822.39	26584
822.576	26606.53
822.762	26991.55
822.948	27038.65
823.134	26950.59
823.32	26526.66
823.507	26258.37
823.693	26297.28
823.879	26741.69
824.065	26266.56
824.25	26639.29
824.436	26481.6
824.622	26285
824.808	26364.87
824.994	26180.55
825.18	26227.65
825.366	26141.64
825.552	26301.38
825.738	26624.96
825.923	26753.98
826.109	26919.87
826.295	26129.35
826.481	25930.7
826.667	26297.28
826.852	26608.58
827.038	26102.73
827.224	26760.12
827.409	26835.9
827.595	25672.65
827.781	26459.07
827.966	26637.25
828.152	26229.7
828.338	26246.08
828.523	25861.07
828.709	26090.44
828.894	26264.52
829.08	25955.27
829.266	25861.07
829.451	25830.35
829.637	26061.77
829.822	25996.23
830.008	25572.3
830.193	25848.78
830.378	26008.52
830.564	25736.14
830.749	25480.14
830.935	25787.34
831.12	25861.07
831.305	25547.73
831.491	25418.71
831.676	25328.59
831.861	25643.98
832.047	25181.14
832.232	24951.77
832.417	25562.06
832.602	25101.27
832.788	25199.57
832.973	24710.11
833.158	25127.89
833.343	25084.89
833.528	24943.58
833.714	25308.12
833.899	25117.65
834.084	25156.57
834.269	25052.12
834.454	24820.7
834.639	25367.51
834.824	25258.96
835.009	25410.51
835.194	25093.08
835.379	25506.77
835.564	24783.84
835.749	24882.14
835.934	24769.5
836.119	25138.13
836.304	25037.78
836.489	24486.88
836.674	24869.85
836.859	24499.17
837.044	24990.68
837.228	24691.68
837.413	24177.64
837.598	24894.43
837.783	24736.73
837.968	24564.7
838.152	24402.91
838.337	24110.05
838.522	24812.51
838.707	25097.17
838.891	24626.14
839.076	25203.67
839.261	24898.52
839.445	24431.58
839.63	24357.86
839.815	24628.19
839.999	24404.96
840.184	24103.91
840.368	24034.28
840.553	24417.25
840.737	24241.12
840.922	23598.06
841.106	23938.02
841.291	23790.57
841.475	23757.8
841.66	24087.53
841.844	23862.25
842.029	24968.15
842.213	23974.89
842.397	23935.98
842.582	23403.5
842.766	23827.43
842.951	23679.98
843.135	23356.4
843.319	23217.14
843.504	23518.19
843.688	23458.8
843.872	23110.64
844.056	23327.73
844.241	23606.25
844.425	23174.13
844.609	23716.84
844.793	23344.11
844.977	23598.06
845.161	23360.5
845.346	23100.4
845.53	23186.42
845.714	23550.96
845.898	23598.06
846.082	22809.59
846.266	23266.29
846.45	23012.34
846.634	23249.91
846.818	23145.46
847.002	23206.9
847.186	23479.28
847.37	23053.3
847.554	23084.02
847.738	22795.26
847.922	22877.18
848.106	22971.38
848.29	22612.99
848.473	22629.37
848.657	22789.11
848.841	22797.31
849.025	22713.34
849.209	22574.08
849.392	22825.98
849.576	22674.43
849.76	22090.76
849.944	22469.63
850.127	23032.82
850.311	22189.06
850.495	22297.6
850.678	22127.62
850.862	23208.95
851.046	22936.57
851.229	22428.67
851.413	22303.74
851.596	22402.05
851.78	22541.31
851.964	22402.05
852.147	22146.05
852.331	22623.23
852.514	22434.81
852.698	21965.83
852.881	21826.57
853.065	22529.02
853.248	22174.72
853.431	22195.2
853.615	22064.13
853.798	22981.62
853.982	22236.16
854.165	22103.04
854.348	21806.09
854.532	21928.97
854.715	21845
854.898	21900.3
855.081	21552.14
855.265	22307.84
855.448	21976.07
855.631	21322.77
855.814	21513.23
855.997	21529.61
856.181	21519.37
856.364	21312.53
856.547	21107.73
856.73	21601.29
856.913	21677.07
857.096	21015.57
857.279	21281.81
857.462	21222.42
857.645	21920.77
857.828	21240.85
858.011	21310.48
858.194	21001.24
858.377	21388.3
858.56	21081.11
858.743	21158.93
858.926	20931.61
859.109	21122.07
859.292	20907.03
859.475	20900.89
859.658	21439.5
859.841	21263.38
860.023	20552.73
860.206	20354.08
860.389	21021.72
860.572	21302.29
860.755	20175.91
860.937	20493.34
861.12	20579.36
861.303	20845.59
861.486	20431.9
861.668	20354.08
861.851	20603.93
862.034	20894.74
862.216	20165.67
862.399	19657.77
862.581	20438.05
862.764	20616.22
862.947	20390.94
863.129	20069.41
863.312	19964.96
863.494	20423.71
863.677	19997.73
863.859	20022.31
864.042	20386.85
864.224	20526.11
864.406	19969.06
864.589	19725.35
864.771	20263.97
864.954	20003.88
865.136	19876.9
865.318	19766.31
865.501	19956.77
865.683	19645.48
865.865	19432.49
866.048	19612.71
866.23	19469.36
866.412	19551.27
866.594	19201.07
866.777	19586.09
866.959	19528.75
867.141	19328.05
867.323	19432.49
867.505	19244.08
867.687	19375.15
867.869	19381.29
868.052	19328.05
868.234	19467.31
868.416	19459.12
868.598	19467.31
868.78	19242.03
868.962	19252.27
869.144	19547.18
869.326	19401.77
869.508	18895.92
869.69	19237.94
869.872	19342.38
870.054	19762.22
870.236	18977.84
870.417	19133.49
870.599	19395.63
870.781	19520.56
870.963	19258.42
871.145	19141.68
871.327	18912.31
871.508	19561.51
871.69	18811.96
871.872	18992.18
872.054	19188.78
872.235	19037.23
872.417	18818.1
872.599	18650.17
872.78	19336.24
872.962	19008.56
873.144	18869.3
873.325	19020.85
873.507	19608.62
873.689	19364.91
873.87	18699.32
874.052	19053.62
874.233	19086.39
874.415	19547.18
874.596	18916.4
874.778	18619.45
874.959	19039.28
875.141	19192.88
875.322	18908.21
875.503	18973.75
875.685	19311.66
875.866	18443.32
876.048	18926.64
876.229	18830.39
876.41	19188.78
876.592	19209.26
876.773	18996.28
876.954	18861.11
877.136	19493.93
877.317	18975.8
877.498	18865.21
877.679	19180.59
877.86	19385.39
878.042	19295.28
878.223	19153.97
878.404	19375.15
878.585	19430.44
878.766	19919.91
878.947	19545.13
879.128	19532.84
879.309	19311.66
879.49	19629.1
879.672	19172.4
879.853	19250.22
880.034	19344.43
880.215	19495.98
880.396	19541.04
880.576	19338.29
880.757	19434.54
880.938	20077.6
881.119	19393.58
881.3	19455.02
881.481	19516.46
881.662	20673.56
881.843	19502.12
882.023	19751.98
882.204	19481.64
882.385	19756.07
882.566	19563.56
882.747	19579.95
882.927	19780.65
883.108	20083.75
883.289	19627.05
883.469	20073.51
883.65	20026.4
883.831	19946.53
884.011	19739.69
884.192	19784.74
884.373	20300.83
884.553	20182.05
884.734	19987.49
884.914	20255.78
885.095	20470.81
885.275	20227.1
885.456	20169.76
885.636	19725.35
885.817	20016.16
885.997	20198.43
886.178	19815.46
886.358	20200.48
886.538	20419.61
886.719	21261.33
886.899	20327.46
887.08	20290.59
887.26	20536.35
887.44	20055.08
887.621	20200.48
887.801	19960.87
887.981	20976.66
888.161	20483.1
888.342	20210.72
888.522	20464.67
888.702	20661.27
888.882	20415.52
889.062	20311.07
889.242	20057.12
889.423	20526.11
889.603	20384.8
889.783	20327.46
889.963	20022.31
890.143	20450.33
890.323	20485.15
890.503	20132.9
890.683	20200.48
890.863	20163.62
891.043	20122.66
891.223	20147.23
891.403	20460.57
891.583	20220.96
891.763	20272.16
891.943	20577.31
892.122	19872.81
892.302	20534.3
892.482	20460.57
892.662	20548.64
892.842	20298.78
893.022	20278.3
893.201	20280.35
893.381	20651.03
893.561	20339.74
893.741	20671.51
893.92	20773.91
894.1	20522.01
894.28	20581.4
894.459	20562.97
894.639	20616.22
894.819	20218.91
894.998	20571.16
895.178	20382.75
895.357	20470.81
895.537	20239.39
895.716	19979.3
895.896	20208.67
896.075	21015.57
896.255	20296.74
896.434	20077.6
896.614	20575.26
896.793	20657.18
896.973	20096.03
897.152	19723.3
897.331	20499.48
897.511	20507.68
897.69	19813.41
897.87	20016.16
898.049	20347.93
898.228	20403.23
898.407	20347.93
898.587	20036.64
898.766	19954.72
898.945	20079.65
899.124	19971.11
899.304	20212.77
899.483	20083.75
899.662	20370.46
899.841	19663.91
900.02	19803.18
900.199	20139.04
900.378	19969.06
900.557	19569.71
900.737	19190.83
900.916	19807.27
901.095	20194.34
901.274	19924.01
901.453	19801.13
901.632	19708.97
901.811	19995.68
901.989	19749.93
902.168	19512.36
902.347	19942.44
902.526	19698.73
902.705	19289.13
902.884	19233.84
903.063	20087.84
903.242	19690.54
903.42	19293.23
903.599	19409.97
903.778	19842.09
903.957	19651.63
904.135	19481.64
904.314	19563.56
904.493	19457.07
904.672	19672.11
904.85	19199.02
905.029	19178.54
905.207	19170.35
905.386	20259.87
905.565	19127.35
905.743	19344.43
905.922	19051.57
906.1	19340.33
906.279	18932.79
906.457	18920.5
906.636	19276.85
906.814	19072.05
906.993	18644.02
907.171	18793.53
907.35	19088.43
907.528	19045.43
907.707	18895.92
907.885	18314.3
908.063	19113.01
908.242	18789.43
908.42	18355.26
908.598	18234.43
908.777	18947.12
908.955	18533.43
909.133	18895.92
909.311	18256.96
909.49	18445.37
909.668	18351.17
909.846	18406.46
910.024	18285.63
910.202	18627.64
910.38	18418.75
910.559	17751.11
910.737	18035.78
910.915	18367.55
911.093	18426.94
911.271	18121.79
911.449	18310.21
911.627	18097.22
911.805	18680.89
911.983	17521.74
912.161	17669.19
912.339	17869.89
912.517	17927.24
912.695	17761.35
912.872	17583.18
913.05	17548.36
913.228	17849.41
913.406	17738.82
913.584	17620.04
913.762	17984.58
913.939	17263.69
914.117	17550.41
914.295	17327.18
914.473	17505.35
914.65	17357.9
914.828	17050.71
915.006	16911.44
915.184	17149.01
915.361	17402.96
915.539	17310.8
915.716	17179.73
915.894	17261.65
916.072	17376.33
916.249	17513.55
916.427	17144.91
916.604	16958.55
916.782	17126.48
916.959	16483.42
917.137	16833.62
917.314	17099.86
917.492	16940.11
917.669	16544.86
917.847	16927.83
918.024	16655.45
918.201	16577.62
918.379	16598.1
918.556	16217.18
918.733	16555.1
918.911	16172.13
919.088	16456.79
919.265	16116.83
919.442	16188.51
919.62	16135.26
919.797	16125.02
919.974	15729.77
920.151	16122.98
920.328	15928.42
920.506	15981.67
920.683	16172.13
920.86	15791.2
921.037	15895.65
921.214	15633.51
921.391	15524.97
921.568	16196.7
921.745	15754.34
921.922	15615.08
922.099	15500.39
922.276	15897.7
922.453	15740.01
922.63	15225.96
922.807	15711.33
922.984	15219.82
923.161	15092.85
923.338	14976.11
923.514	14834.8
923.691	14920.82
923.868	15058.03
924.045	14535.8
924.222	14609.53
924.399	14799.99
924.575	15053.94
924.752	15060.08
924.929	14660.73
925.105	14748.79
925.282	14480.5
925.459	14242.94
925.635	14427.26
925.812	14752.88
925.989	14302.33
926.165	14378.11
926.342	13876.35
926.518	13890.69
926.695	14324.86
926.871	13837.44
927.048	13933.7
927.224	14240.89
927.401	13868.16
927.577	13794.43
927.754	13651.08
927.93	14093.44
928.107	13917.31
928.283	13429.9
928.459	13694.08
928.636	13655.17
928.812	13646.98
928.988	13294.73
929.165	13055.12
929.341	13726.85
929.517	13413.51
929.693	13444.23
929.87	13194.38
930.046	13597.83
930.222	13030.54
930.398	13005.97
930.574	13030.54
930.751	13427.85
930.927	12688.53
931.103	12868.75
931.279	12860.56
931.455	12534.93
931.631	12702.87
931.807	12399.77
931.983	12446.87
932.159	12434.58
932.335	12483.73
932.511	12737.68
932.687	12262.55
932.863	12545.17
933.039	12276.89
933.215	11867.3
933.391	11981.98
933.566	11979.93
933.742	11799.71
933.918	11732.13
934.094	11402.41
934.27	11465.89
934.445	11429.03
934.621	11435.17
934.797	10914.99
934.973	11332.78
935.148	11340.97
935.324	10777.78
935.5	10419.38
935.675	10947.76
935.851	10857.65
936.027	10218.68
936.202	10343.61
936.378	10335.42
936.553	10091.71
936.729	10112.19
936.904	9581.76
937.08	9475.27
937.255	9399.49
937.431	9155.79
937.606	9069.77
937.782	9120.97
937.957	9043.15
938.133	8723.66
938.308	8598.74
938.483	8424.66
938.659	8301.78
938.834	8223.96
939.009	8166.62
939.185	7961.82
939.36	7847.13
939.535	7509.22
939.71	7746.78
939.886	7963.87
940.061	7748.83
940.236	7566.56
940.411	7337.19
940.586	7187.69
940.761	7259.37
940.937	7021.8
941.112	6911.21
941.287	6839.53
941.462	7003.37
941.637	6663.41
941.812	6767.85
941.987	7083.24
942.162	6663.41
942.337	6692.08
942.512	6630.64
942.687	6778.09
942.862	6839.53
943.037	6337.78
943.212	6077.69
943.386	6374.64
943.561	6427.89
943.736	6288.63
943.911	6530.29
944.086	6468.85
944.26	6536.43
944.435	6118.65
944.61	6194.42
944.785	6647.02
944.959	6630.64
945.134	6038.78
945.309	5893.37
945.483	6014.2
945.658	6505.71
945.833	5733.63
946.007	5815.55
946.182	6425.84
946.357	5833.98
946.531	5831.93
946.706	5922.04
946.88	5741.82
947.055	6026.49
947.229	5920
947.404	5743.87
947.578	6425.84
947.752	5938.43
947.927	5854.46
948.101	5907.71
948.276	6241.53
948.45	6302.97
948.624	6014.2
948.799	5893.37
948.973	6114.55
949.147	5774.59
949.321	6059.26
949.496	5952.76
949.67	6331.64
949.844	6128.89
950.018	6016.25
950.193	6061.3
950.367	6634.74
950.541	6042.87
950.715	6352.12
950.889	6208.76
951.063	6180.09
951.237	6305.01
951.411	5829.88
951.585	6026.49
951.759	6157.56
951.933	6137.08
952.107	6151.42
952.281	6165.75
952.455	6384.88
952.629	6251.77
952.803	5926.14
952.977	5799.16
953.151	6268.15
953.325	6302.97
953.499	6001.91
953.672	5907.71
953.846	5803.26
954.02	5973.24
954.194	5905.66
954.368	5793.02
954.541	6325.49
954.715	5797.12
954.889	5979.39
955.062	5876.99
955.236	6001.91
955.41	5786.88
955.583	6008.06
955.757	5752.06
955.93	5930.23
956.104	5772.54
956.278	5885.18
956.451	5987.58
956.625	6141.18
956.798	6655.22
956.972	6225.14
957.145	5920
957.319	5913.85
957.492	5862.65
957.665	5969.15
957.839	5692.67
958.012	5981.43
958.185	5821.69
958.359	5747.97
958.532	5819.64
958.705	6087.93
958.879	5971.19
959.052	5725.44
959.225	5383.43
959.398	5819.64
959.572	5793.02
959.745	5592.32
959.918	5575.94
960.091	5836.03
960.264	5907.71
960.438	5489.92
960.611	5594.37
960.784	5979.39
960.957	5623.04
961.13	6018.3
961.303	5639.42
961.476	5745.92
961.649	5719.29
961.822	5643.52
961.995	5575.94
962.168	5852.41
962.341	5547.26
962.514	5453.06
962.686	5506.31
962.859	5713.15
963.032	5682.43
963.205	5365
963.378	5283.08
963.551	5747.97
963.723	5506.31
963.896	5764.35
964.069	5623.04
964.242	5365
964.414	5631.23
964.587	5629.18
964.76	5715.2
964.932	5410.05
965.105	5469.44
965.278	5453.06
965.45	5424.39
965.623	5510.4
965.795	5577.98
965.968	5371.14
966.14	5391.62
966.313	5471.49
966.485	5512.45
966.658	5438.72
966.83	5369.09
967.003	5770.49
967.175	5604.61
967.348	5416.19
967.52	5256.45
967.692	5752.06
967.865	5575.94
968.037	5334.28
968.209	5510.4
968.382	5373.19
968.554	5713.15
968.726	5414.15
968.898	5250.31
969.071	5340.42
969.243	5750.01
969.415	5137.67
969.587	5457.15
969.759	5999.87
969.932	5604.61
970.104	5285.12
970.276	4967.69
970.448	5250.31
970.62	5375.24
970.792	5240.07
970.964	5180.68
971.136	5694.72
971.308	5373.19
971.48	5178.63
971.652	5240.07
971.824	5602.56
971.996	5256.45
972.168	5147.91
972.339	5223.69
972.511	5387.52
972.683	5094.66
972.855	5379.33
973.027	5121.29
973.199	5149.96
973.37	5289.22
973.542	5135.62
973.714	4889.87
973.886	5059.85
974.057	5276.93
974.229	4945.16
974.401	4869.39
974.572	4889.87
974.744	4695.31
974.915	5018.89
975.087	4816.14
975.259	5416.19
975.43	4885.77
975.602	4795.66
975.773	4719.89
975.945	4893.96
976.116	5111.05
976.288	4762.89
976.459	5035.27
976.63	4967.69
976.802	5209.35
976.973	4789.52
977.145	4932.87
977.316	5321.99
977.487	4951.31
977.659	4902.15
977.83	4787.47
978.001	5397.76
978.172	5133.58
978.344	4736.27
978.515	4683.02
978.686	4951.31
978.857	5238.02
979.028	4549.9
979.2	4545.81
979.371	4838.67
979.542	4842.76
979.713	4799.76
979.884	4332.82
980.055	4734.22
980.226	4625.68
980.397	4699.41
980.568	4551.95
980.739	4916.49
980.91	4535.57
981.081	4674.83
981.252	4369.68
981.423	4697.36
981.594	4760.84
981.765	4330.77
981.936	4384.02
982.106	4623.63
982.277	4781.32
982.448	4418.83
982.619	4601.1
982.79	4433.17
982.96	4879.63
983.131	4390.16
983.302	4113.69
983.472	4318.48
983.643	4619.53
983.814	4472.08
983.984	4248.85
984.155	4244.76
984.326	4769.04
984.496	4359.44
984.667	4341.01
984.837	4302.1
985.008	4732.17
985.178	4453.65
985.349	4285.72
985.519	4345.11
985.69	4255
985.86	4287.76
986.031	4160.79
986.201	4410.64
986.371	4576.53
986.542	4091.16
986.712	3945.75
986.882	4330.77
987.053	4394.26
987.223	3943.71
987.393	4281.62
987.563	4027.67
987.734	4377.87
987.904	4447.51
988.074	3927.32
988.244	4187.41
988.414	4056.34
988.585	3904.79
988.755	4156.69
988.925	4171.03
989.095	4496.66
989.265	3908.89
989.435	4222.23
989.605	4238.61
989.775	4179.22
989.945	4228.37
990.115	3851.55
990.285	3984.66
990.455	4023.58
990.625	3929.37
990.795	3767.58
990.965	4537.62
991.134	3740.96
991.304	3841.31
991.474	3829.02
991.644	3921.18
991.814	4390.16
991.984	3712.28
992.153	3759.39
992.323	3869.98
992.493	3826.97
992.662	3493.15
992.832	3724.57
993.002	4093.21
993.171	3929.37
993.341	3710.24
993.511	3736.86
993.68	3853.59
993.85	4156.69
994.019	3685.66
994.189	3519.78
994.358	3882.27
994.528	3761.44
994.697	3349.79
994.867	3540.26
995.036	3982.62
995.206	3761.44
995.375	3487.01
995.544	3740.96
995.714	3755.29
995.883	3566.88
996.052	3671.33
996.222	3421.47
996.391	4289.81
996.56	3738.91
996.73	3556.64
996.899	3360.03
997.068	4015.38
997.237	3585.31
997.406	3386.66
997.576	3323.17
997.745	3511.58
997.914	3597.6
998.083	3274.02
998.252	3325.22
998.421	3470.62
998.59	3321.12
998.759	3278.12
998.928	3317.03
999.097	3890.46
999.266	3505.44
999.435	3327.27
999.604	3077.41
999.773	3927.32
999.942	3462.43
1000.111	3101.99
1000.28	3042.6
1000.448	2975.02
1000.617	3192.1
1000.786	3335.46
1000.955	3011.88
1001.124	3530.02
1001.292	3953.95
1001.461	3056.93
1001.63	3114.28
1001.798	3667.23
1001.967	3663.13
1002.136	2903.34
1002.304	3020.07
1002.473	3300.64
1002.642	3376.42
1002.81	3048.74
1002.979	2985.26
1003.147	3441.95
1003.316	3847.45
1003.484	3030.31
1003.653	2940.2
1003.821	3487.01
1003.99	3255.59
1004.158	3054.89
1004.327	3065.13
1004.495	3224.87
1004.663	2936.1
1004.832	3061.03
1005	2680.11
1005.168	3251.49
1005.337	3153.19
1005.505	2747.69
1005.673	2919.72
1005.842	3192.1
1006.01	3007.78
1006.178	2874.67
1006.346	2749.74
1006.514	3253.54
1006.683	3323.17
1006.851	2690.35
1007.019	2821.42
1007.187	2807.08
1007.355	2733.36
1007.523	2671.92
1007.691	2598.19
1007.859	2577.71
1008.027	3310.88
1008.195	2778.41
1008.363	2608.43
1008.531	3134.76
1008.699	2690.35
1008.867	2663.72
1009.035	2532.65
1009.203	3038.5
1009.37	2913.58
1009.538	2585.9
1009.706	2915.62
1009.874	2889
1010.042	2792.75
1010.209	2331.95
1010.377	2487.6
1010.545	2749.74
1010.713	2805.03
1010.88	2577.71
1011.048	2512.17
1011.216	2622.77
1011.383	3114.28
1011.551	2493.74
1011.718	2420.02
1011.886	2972.97
1012.054	2602.29
1012.221	2420.02
1012.389	2432.3
1012.556	2577.71
1012.724	2866.47
1012.891	2495.79
1013.058	2108.73
1013.226	2680.11
1013.393	2649.39
1013.561	2381.11
1013.728	2276.66
1013.895	2686.25
1014.063	2633.01
1014.23	2184.5
1014.397	2190.64
1014.565	2673.96
1014.732	2405.68
1014.899	2256.18
1015.066	2192.69
1015.233	2417.97
1015.401	2555.18
1015.568	2317.62
1015.735	2334
1015.902	2391.34
1016.069	2530.61
1016.236	2078.01
1016.403	2106.68
1016.57	2309.43
1016.737	2549.04
1016.904	2225.46
1017.071	2110.77
1017.238	2262.32
1017.405	2628.91
1017.572	2247.99
1017.739	2229.56
1017.906	2372.91
1018.073	2356.53
1018.24	1961.27
1018.407	1905.98
1018.573	2635.05
1018.74	2280.75
1018.907	2118.96
1019.074	1973.56
1019.241	2510.13
1019.407	2340.15
1019.574	1940.79
1019.741	1873.21
1019.907	2286.9
1020.074	2297.14
1020.241	1772.86
1020.407	1832.25
1020.574	2348.34
1020.74	2247.99
1020.907	1914.17
1021.073	1746.23
1021.24	2665.77
1021.406	2538.8
1021.573	1785.15
1021.739	1852.73
1021.906	2268.47
1022.072	2209.08
1022.239	1871.16
1022.405	1752.38
1022.571	2067.77
1022.738	1905.98
1022.904	1772.86
1023.07	1740.09
1023.237	1895.74
1023.403	2331.95
1023.569	1701.18
1023.735	1793.34
1023.902	2184.5
1024.068	1987.89
1024.234	1688.89
1024.4	1695.04
1024.566	2051.38
1024.732	2178.36
1024.898	1740.09
1025.065	1631.55
1025.231	2202.93
1025.397	1822.01
1025.563	1690.94
1025.729	1596.73
1025.895	1649.98
1026.061	1852.73
1026.227	1453.38
1026.392	1690.94
1026.558	2329.91
1026.724	1977.66
1026.89	1598.78
1027.056	1629.5
1027.222	2026.81
1027.388	1785.15
1027.553	1621.31
1027.719	1647.93
1027.885	2204.98
1028.051	1975.61
1028.216	1365.31
1028.382	1465.66
1028.548	1934.65
1028.713	1703.23
1028.879	1445.18
1029.045	1572.16
1029.21	2047.29
1029.376	2084.15
1029.541	1623.36
1029.707	1523.01
1029.873	1879.35
1030.038	1920.31
1030.204	1539.39
1030.369	1553.73
1030.534	1744.19
1030.7	1537.34
1030.865	1475.9
1031.031	1422.66
1031.196	1735.99
1031.361	1779
1031.527	1350.98
1031.692	1197.38
1031.857	1334.59
1032.023	1744.19
1032.188	1295.68
1032.353	1406.27
1032.518	2018.61
1032.684	1695.04
1032.849	1240.39
1033.014	1453.38
1033.179	1762.62
1033.344	1750.33
1033.509	1469.76
1033.674	1258.82
1033.839	1819.96
1034.004	1727.8
1034.17	1297.73
1034.335	1197.38
1034.5	1475.9
1034.664	1404.22
1034.829	1215.81
1034.994	1281.35
1035.159	1658.17
1035.324	1584.45
1035.489	1260.87
1035.654	1258.82
1035.819	1735.99
1035.984	1639.74
1036.148	1346.88
1036.313	1236.29
1036.478	1770.81
1036.643	1545.53
1036.807	1211.71
1036.972	1187.14
1037.137	1805.63
1037.301	1494.33
1037.466	1002.82
1037.631	1224
1037.795	1813.82
1037.96	1463.62
1038.124	1305.92
1038.289	965.96
1038.454	1590.59
1038.618	1523.01
1038.783	1011.01
1038.947	1203.52
1039.111	1559.87
1039.276	1279.3
1039.44	1033.54
1039.605	1559.87
1039.769	1400.13
1039.933	1391.94
1040.098	1215.81
1040.262	1234.24
1040.426	1566.01
1040.591	1504.57
1040.755	978.25
1040.919	1035.59
1041.083	1303.87
1041.248	1295.68
1041.412	968.01
1041.576	988.49
1041.74	1193.28
1041.904	1561.92
1042.068	949.57
1042.232	1058.12
1042.397	1455.42
1042.561	1271.11
1042.725	736.59
1042.889	1094.98
1043.053	1424.7
1043.217	1381.7
1043.381	1064.26
1043.544	904.52
1043.708	1500.48
1043.872	984.39
1044.036	675.15
1044.2	705.87
1044.364	1408.32
1044.528	1613.12
1044.691	5076.23
1044.855	832.84
1045.019	1453.38
1045.183	1340.74
1045.346	941.38
1045.51	814.41
1045.674	1262.91
1045.837	1324.35
1046.001	955.72
1046.165	847.18
1046.328	1787.19
1046.492	1381.7
1046.655	976.2
1046.819	910.66
1046.983	1072.45
1047.146	1363.26
1047.31	920.9
1047.473	646.48
1047.636	1195.33
1047.8	892.23
1047.963	892.23
1048.127	722.25
1048.29	978.25
