Data from Ink_Intensity_USB4F045381__169__00169.txt Node

Date: Mon Jul 17 11:36:29 EDT 2023
User: mmckonesweet
Spectrometer: USB4F04538
Trigger mode: 4
Integration Time (sec): 9.000000E-1
Scans to average: 1
Electric dark correction enabled: true
Nonlinearity correction enabled: false
Boxcar width: 0
XAxis mode: Wavelengths
Number of Pixels in Spectrum: 3648
>>>>>Begin Spectral Data<<<<<
345.52	-976.37
345.736	-976.37
345.952	-976.37
346.168	-1041.9
346.384	-1048.05
346.6	-97.79
346.816	-247.29
347.032	-208.38
347.248	215.55
347.464	-177.66
347.68	-120.32
347.896	88.57
348.112	334.33
348.328	-83.45
348.544	-48.64
348.76	113.15
348.975	231.93
349.191	-200.19
349.407	-185.85
349.623	-38.4
349.839	-81.41
350.055	-220.67
350.27	66.05
350.486	162.3
350.702	342.52
350.918	217.6
351.133	-237.05
351.349	176.64
351.565	442.87
351.781	-237.05
351.996	-26.11
352.212	297.47
352.428	-153.09
352.644	-198.14
352.859	-321.02
353.075	315.9
353.291	102.91
353.506	-116.22
353.722	-222.72
353.938	-116.22
354.153	449.02
354.369	100.86
354.584	-263.68
354.8	303.61
355.016	-271.87
355.231	-263.68
355.447	-40.45
355.662	119.29
355.878	848.37
356.093	-327.16
356.309	-89.6
356.524	-116.22
356.74	182.78
356.955	-253.44
357.171	-79.36
357.386	133.63
357.602	-230.91
357.817	-101.89
358.033	-128.51
358.248	338.43
358.464	158.21
358.679	-173.57
358.895	-306.68
359.11	-116.22
359.325	326.14
359.541	104.96
359.756	-9.73
359.972	-296.44
360.187	178.69
360.402	-200.19
360.618	-243.2
360.833	1006.06
361.048	166.4
361.264	-249.34
361.479	-89.6
361.694	14.85
361.909	215.55
362.125	-157.18
362.34	-103.93
362.555	207.36
362.77	92.67
362.986	-275.96
363.201	-216.57
363.416	231.93
363.631	55.81
363.847	-251.39
364.062	-132.61
364.277	154.11
364.492	2.56
364.707	-155.13
364.922	-384.51
365.138	229.88
365.353	315.9
365.568	-224.76
365.783	-132.61
365.998	109.05
366.213	530.94
366.428	-290.3
366.643	4.61
366.858	238.08
367.073	141.82
367.288	-114.17
367.503	-280.06
367.718	80.38
367.933	297.47
368.148	-230.91
368.363	-34.3
368.578	-34.3
368.793	477.69
369.008	-146.94
369.223	-259.58
369.438	104.96
369.653	334.33
369.868	-286.2
370.083	-202.24
370.298	47.62
370.513	346.62
370.728	-13.82
370.943	-183.81
371.157	-112.13
371.372	559.61
371.587	-292.35
371.802	-245.24
372.017	98.81
372.232	408.06
372.446	-93.69
372.661	-296.44
372.876	152.06
373.091	166.4
373.306	-99.84
373.52	-235
373.735	-120.32
373.95	371.19
374.165	-179.71
374.379	-153.09
374.594	-202.24
374.809	164.35
375.023	-13.82
375.238	-218.62
375.453	260.6
375.667	-187.9
375.882	-165.37
376.097	-194.05
376.311	113.15
376.526	-22.02
376.741	-155.13
376.955	213.5
377.17	547.32
377.384	590.33
377.599	-103.93
377.813	-359.93
378.028	659.96
378.242	231.93
378.457	-108.03
378.672	-407.03
378.886	57.86
379.101	-46.59
379.315	-306.68
379.53	-173.57
379.744	150.01
379.958	145.92
380.173	-235
380.387	-187.9
380.602	162.3
380.816	-120.32
381.031	-159.23
381.245	-185.85
381.459	221.69
381.674	2638.3
381.888	-181.76
382.103	37.38
382.317	-112.13
382.531	418.3
382.746	-144.89
382.96	-157.18
383.174	-116.22
383.388	436.73
383.603	49.66
383.817	-288.25
384.031	57.86
384.246	510.46
384.46	-67.07
384.674	289.28
384.888	-17.92
385.103	33.28
385.317	-306.68
385.531	-50.69
385.745	352.76
385.959	336.38
386.174	-187.9
386.388	-304.64
386.602	-48.64
386.816	-163.33
387.03	-130.56
387.244	-120.32
387.458	64
387.672	363
387.887	-355.83
388.101	-382.46
388.315	358.91
388.529	156.16
388.743	-175.61
388.957	-210.43
389.171	311.8
389.385	-177.66
389.599	-144.89
389.813	55.81
390.027	125.44
390.241	631.29
390.455	-189.95
390.669	-103.93
390.883	-93.69
391.097	295.42
391.311	41.47
391.525	-290.3
391.738	182.78
391.952	141.82
392.166	-101.89
392.38	-253.44
392.594	326.14
392.808	346.62
393.022	-118.27
393.236	-126.46
393.449	250.36
393.663	88.57
393.877	-294.4
394.091	8.7
394.305	-71.17
394.518	-169.47
394.732	-181.76
394.946	-110.08
395.16	449.02
395.373	86.53
395.587	-298.49
395.801	-173.57
396.015	305.66
396.228	113.15
396.442	-353.79
396.656	-380.41
396.869	274.94
397.083	371.19
397.297	-89.6
397.51	-198.14
397.724	352.76
397.938	121.34
398.151	-402.94
398.365	-325.12
398.578	195.07
398.792	350.71
399.005	-124.41
399.219	-89.6
399.433	86.53
399.646	213.5
399.86	-15.87
400.073	12.8
400.287	162.3
400.5	-26.11
400.714	-7.68
400.927	-87.55
401.141	283.13
401.354	1112.56
401.567	190.97
401.781	-198.14
401.994	180.73
402.208	557.56
402.421	-128.51
402.635	-198.14
402.848	-9.73
403.061	262.65
403.275	-67.07
403.488	-267.77
403.701	424.44
403.915	188.93
404.128	-50.69
404.341	-224.76
404.555	176.64
404.768	51.71
404.981	35.33
405.195	-189.95
405.408	436.73
405.621	281.08
405.834	76.29
406.048	-237.05
406.261	385.53
406.474	453.11
406.687	-196.09
406.9	-91.65
407.114	25.09
407.327	219.64
407.54	-284.16
407.753	-345.59
407.966	-89.6
408.179	205.31
408.392	-271.87
408.605	-304.64
408.819	229.88
409.032	166.4
409.245	-124.41
409.458	39.42
409.671	178.69
409.884	203.26
410.097	-245.24
410.31	29.18
410.523	201.21
410.736	-71.17
410.949	-52.74
411.162	-173.57
411.375	416.25
411.588	205.31
411.801	47.62
412.014	-208.38
412.227	14.85
412.44	-77.31
412.653	-222.72
412.865	109.05
413.078	219.64
413.291	279.04
413.504	-122.37
413.717	-216.57
413.93	186.88
414.143	-95.74
414.356	-206.33
414.568	-351.74
414.781	246.27
414.994	104.96
415.207	-124.41
415.42	-75.26
415.632	221.69
415.845	481.78
416.058	-407.03
416.271	-368.12
416.483	-42.5
416.696	334.33
416.909	-243.2
417.121	-214.52
417.334	131.58
417.547	498.17
417.759	-198.14
417.972	-288.25
418.185	-105.98
418.397	307.71
418.61	-253.44
418.823	-235
419.035	432.63
419.248	-22.02
419.46	-128.51
419.673	-48.64
419.885	145.92
420.098	20.99
420.311	-165.37
420.523	-402.94
420.736	188.93
420.948	66.05
421.161	-153.09
421.373	-329.21
421.586	49.66
421.798	-157.18
422.01	-333.31
422.223	-50.69
422.435	-157.18
422.648	201.21
422.86	-159.23
423.073	-206.33
423.285	248.32
423.497	-253.44
423.71	-210.43
423.922	-157.18
424.134	154.11
424.347	412.15
424.559	66.05
424.771	104.96
424.984	-101.89
425.196	150.01
425.408	-411.13
425.621	-278.01
425.833	270.84
426.045	363
426.257	-327.16
426.47	-210.43
426.682	164.35
426.894	186.88
427.106	-194.05
427.318	-126.46
427.531	-122.37
427.743	184.83
427.955	-204.28
428.167	180.73
428.379	125.44
428.591	-22.02
428.804	-105.98
429.016	-290.3
429.228	-91.65
429.44	164.35
429.652	-1.54
429.864	-353.79
430.076	-40.45
430.288	-69.12
430.5	-151.04
430.712	-73.21
430.924	231.93
431.136	104.96
431.348	-351.74
431.56	-192
431.772	10.75
431.984	-46.59
432.196	-214.52
432.408	-173.57
432.62	-144.89
432.832	111.1
433.044	70.14
433.256	-105.98
433.468	178.69
433.679	-341.5
433.891	-296.44
434.103	-40.45
434.315	252.41
434.527	166.4
434.739	-89.6
434.95	-140.8
435.162	285.18
435.374	-157.18
435.586	-212.48
435.798	-267.77
436.009	-288.25
436.221	16.9
436.433	-218.62
436.645	-144.89
436.856	-36.35
437.068	260.6
437.28	-173.57
437.491	190.97
437.703	158.21
437.915	64
438.126	-105.98
438.338	82.43
438.55	-95.74
438.761	213.5
438.973	-206.33
439.184	-144.89
439.396	23.04
439.608	227.84
439.819	-333.31
440.031	-108.03
440.242	209.4
440.454	244.22
440.665	-103.93
440.877	-42.5
441.088	127.49
441.3	-95.74
441.511	-353.79
441.723	-235
441.934	205.31
442.146	90.62
442.357	-13.82
442.569	59.9
442.78	-38.4
442.991	406.01
443.203	117.25
443.414	-243.2
443.626	393.72
443.837	-204.28
444.048	-321.02
444.26	-357.88
444.471	59.9
444.682	240.12
444.894	-439.8
445.105	-364.03
445.316	276.99
445.528	172.54
445.739	-112.13
445.95	-120.32
446.161	100.86
446.373	281.08
446.584	-196.09
446.795	-208.38
447.006	133.63
447.217	383.48
447.429	-292.35
447.64	-304.64
447.851	375.29
448.062	49.66
448.273	-376.31
448.484	-294.4
448.695	195.07
448.907	-67.07
449.118	-79.36
449.329	-56.83
449.54	-161.28
449.751	-216.57
449.962	-247.29
450.173	-169.47
450.384	305.66
450.595	313.85
450.806	-181.76
451.017	-75.26
451.228	313.85
451.439	266.75
451.65	-179.71
451.861	-435.71
452.072	-222.72
452.283	-38.4
452.494	-50.69
452.705	-296.44
452.915	363
453.126	14.85
453.337	-230.91
453.548	-214.52
453.759	293.37
453.97	588.28
454.181	-30.21
454.391	-173.57
454.602	35.33
454.813	178.69
455.024	-138.75
455.235	-239.1
455.445	18.94
455.656	131.58
455.867	-71.17
456.078	-218.62
456.288	-79.36
456.499	158.21
456.71	-337.4
456.921	88.57
457.131	74.24
457.342	90.62
457.553	-179.71
457.763	-218.62
457.974	172.54
458.184	162.3
458.395	-302.59
458.606	-323.07
458.816	244.22
459.027	424.44
459.237	-153.09
459.448	-380.41
459.659	356.86
459.869	621.05
460.08	-378.36
460.29	-171.52
460.501	526.84
460.711	-87.55
460.922	-298.49
461.132	-325.12
461.343	653.81
461.553	-304.64
461.764	-210.43
461.974	-275.96
462.184	195.07
462.395	117.25
462.605	-208.38
462.816	-312.83
463.026	-42.5
463.236	268.8
463.447	-353.79
463.657	-222.72
463.867	268.8
464.078	-81.41
464.288	-177.66
464.498	-275.96
464.709	20.99
464.919	-7.68
465.129	-171.52
465.339	-376.31
465.55	123.39
465.76	229.88
465.97	-275.96
466.18	-232.96
466.391	178.69
466.601	33.28
466.811	-157.18
467.021	-407.03
467.231	102.91
467.441	365.05
467.651	-232.96
467.862	-407.03
468.072	14.85
468.282	279.04
468.492	-278.01
468.702	-228.86
468.912	-58.88
469.122	586.23
469.332	23.04
469.542	-329.21
469.752	184.83
469.962	72.19
470.172	-392.7
470.382	-273.92
470.592	188.93
470.802	299.52
471.012	-140.8
471.222	-261.63
471.432	223.74
471.642	172.54
471.852	-54.78
472.062	-286.2
472.272	-44.54
472.482	-187.9
472.691	-280.06
472.901	-392.7
473.111	-19.97
473.321	518.65
473.531	-300.54
473.741	-99.84
473.95	172.54
474.16	174.59
474.37	-159.23
474.58	-337.4
474.79	504.31
474.999	236.03
475.209	-327.16
475.419	-273.92
475.628	6.66
475.838	254.46
476.048	-206.33
476.258	-404.99
476.467	258.56
476.677	-144.89
476.886	-17.92
477.096	-122.37
477.306	-159.23
477.515	340.47
477.725	-157.18
477.935	-144.89
478.144	367.1
478.354	-52.74
478.563	-239.1
478.773	-255.48
478.982	258.56
479.192	227.84
479.401	-177.66
479.611	-284.16
479.82	-138.75
480.03	119.29
480.239	-222.72
480.449	-341.5
480.658	418.3
480.868	-161.28
481.077	-120.32
481.287	-173.57
481.496	121.34
481.705	391.67
481.915	2.56
482.124	12.8
482.333	39.42
482.543	389.63
482.752	-112.13
482.961	-280.06
483.171	166.4
483.38	35.33
483.589	-146.94
483.799	-284.16
484.008	-91.65
484.217	289.28
484.426	-187.9
484.636	-308.73
484.845	45.57
485.054	-339.45
485.263	74.24
485.472	-216.57
485.682	492.02
485.891	59.9
486.1	-361.98
486.309	-267.77
486.518	176.64
486.727	387.58
486.936	-280.06
487.146	-75.26
487.355	412.15
487.564	-208.38
487.773	-169.47
487.982	-271.87
488.191	-89.6
488.4	49.66
488.609	-241.15
488.818	-300.54
489.027	565.75
489.236	412.15
489.445	-230.91
489.654	-247.29
489.863	256.51
490.072	170.49
490.281	111.1
490.49	-251.39
490.698	494.07
490.907	375.29
491.116	-208.38
491.325	-345.59
491.534	350.71
491.743	39.42
491.952	-165.37
492.16	-226.81
492.369	152.06
492.578	178.69
492.787	-87.55
492.996	-419.32
493.204	-134.65
493.413	471.54
493.622	-505.34
493.831	-349.69
494.039	375.29
494.248	-267.77
494.457	-198.14
494.665	-392.7
494.874	117.25
495.083	469.5
495.291	-249.34
495.5	-265.72
495.709	293.37
495.917	64
496.126	-103.93
496.335	-300.54
496.543	-122.37
496.752	96.77
496.96	-19.97
497.169	-343.55
497.377	51.71
497.586	166.4
497.794	-118.27
498.003	-423.42
498.211	-7.68
498.42	444.92
498.628	-206.33
498.837	-351.74
499.045	121.34
499.254	84.48
499.462	-255.48
499.671	-282.11
499.879	457.21
500.087	238.08
500.296	-286.2
500.504	-230.91
500.713	162.3
500.921	543.22
501.129	-194.05
501.338	-179.71
501.546	98.81
501.754	96.77
501.962	-241.15
502.171	-312.83
502.379	35.33
502.587	283.13
502.795	-181.76
503.004	-216.57
503.212	37.38
503.42	291.32
503.628	-288.25
503.837	-187.9
504.045	150.01
504.253	434.68
504.461	-296.44
504.669	-400.89
504.877	180.73
505.085	485.88
505.294	-437.75
505.502	-124.41
505.71	137.73
505.918	227.84
506.126	-267.77
506.334	-427.51
506.542	-91.65
506.75	107.01
506.958	-110.08
507.166	-257.53
507.374	-9.73
507.582	512.5
507.79	-157.18
507.998	-255.48
508.206	178.69
508.414	240.12
508.622	-288.25
508.83	-257.53
509.037	459.26
509.245	-5.63
509.453	-255.48
509.661	-392.7
509.869	291.32
510.077	-136.7
510.285	-75.26
510.492	-556.54
510.7	594.42
510.908	-189.95
511.116	-288.25
511.324	-361.98
511.531	-62.98
511.739	53.76
511.947	-69.12
512.155	-50.69
512.362	104.96
512.57	-288.25
512.778	-321.02
512.985	-407.03
513.193	279.04
513.401	385.53
513.608	-144.89
513.816	-294.4
514.024	213.5
514.231	367.1
514.439	-232.96
514.646	-312.83
514.854	223.74
515.061	348.67
515.269	-259.58
515.477	-214.52
515.684	-202.24
515.892	240.12
516.099	-427.51
516.307	-376.31
516.514	223.74
516.722	383.48
516.929	-329.21
517.136	-423.42
517.344	397.82
517.551	133.63
517.759	-296.44
517.966	-222.72
518.173	-136.7
518.381	-36.35
518.588	-161.28
518.796	-372.22
519.003	166.4
519.21	-38.4
519.418	-304.64
519.625	-9.73
519.832	23.04
520.039	180.73
520.247	-450.04
520.454	-290.3
520.661	244.22
520.868	213.5
521.076	-220.67
521.283	-157.18
521.49	686.58
521.697	147.97
521.904	-253.44
522.112	-251.39
522.319	281.08
522.526	203.26
522.733	-300.54
522.94	-296.44
523.147	29.18
523.354	244.22
523.561	-392.7
523.768	-153.09
523.975	260.6
524.183	92.67
524.39	-161.28
524.597	-404.99
524.804	49.66
525.011	-126.46
525.218	-374.27
525.425	-237.05
525.632	276.99
525.838	-134.65
526.045	-267.77
526.252	-294.4
526.459	1133.04
526.666	819.7
526.873	-271.87
527.08	-208.38
527.287	375.29
527.494	150.01
527.701	-474.62
527.907	-345.59
528.114	256.51
528.321	-22.02
528.528	-243.2
528.735	-376.31
528.941	-91.65
529.148	-110.08
529.355	-206.33
529.562	-321.02
529.768	465.4
529.975	27.14
530.182	-237.05
530.388	-325.12
530.595	250.36
530.802	-181.76
531.008	-97.79
531.215	-239.1
531.422	438.78
531.628	862.71
531.835	-151.04
532.042	-226.81
532.248	-58.88
532.455	88.57
532.661	-214.52
532.868	-286.2
533.074	172.54
533.281	250.36
533.487	-108.03
533.694	-286.2
533.9	-257.53
534.107	147.97
534.313	-312.83
534.52	-407.03
534.726	293.37
534.933	530.94
535.139	-300.54
535.345	-337.4
535.552	156.16
535.758	-3.58
535.965	-228.86
536.171	-243.2
536.377	115.2
536.584	444.92
536.79	-232.96
536.996	-239.1
537.203	201.21
537.409	131.58
537.615	-271.87
537.821	-128.51
538.028	172.54
538.234	145.92
538.44	-302.59
538.646	-206.33
538.853	201.21
539.059	-26.11
539.265	45.57
539.471	-443.9
539.677	295.42
539.883	-34.3
540.09	-321.02
540.296	160.25
540.502	25.09
540.708	-95.74
540.914	-116.22
541.12	-288.25
541.326	182.78
541.532	76.29
541.738	-142.85
541.944	-249.34
542.15	246.27
542.356	-28.16
542.562	-273.92
542.768	-202.24
542.974	637.43
543.18	586.23
543.386	-312.83
543.592	-382.46
543.798	369.15
544.004	338.43
544.21	-339.45
544.415	-134.65
544.621	41.47
544.827	317.95
545.033	-298.49
545.239	-58.88
545.445	-245.24
545.651	51.71
545.856	-210.43
546.062	-218.62
546.268	-124.41
546.474	55.81
546.679	-183.81
546.885	-146.94
547.091	16.9
547.297	498.17
547.502	-204.28
547.708	-404.99
547.914	-69.12
548.119	242.17
548.325	-271.87
548.531	-318.97
548.736	477.69
548.942	-134.65
549.147	-232.96
549.353	-42.5
549.559	307.71
549.764	158.21
549.97	-271.87
550.175	-114.17
550.381	147.97
550.586	-132.61
550.792	-230.91
550.997	-212.48
551.203	170.49
551.408	242.17
551.614	-452.09
551.819	-300.54
552.025	403.96
552.23	510.46
552.435	-318.97
552.641	-93.69
552.846	-138.75
553.052	391.67
553.257	-187.9
553.462	-288.25
553.668	-130.56
553.873	205.31
554.078	-361.98
554.283	-302.59
554.489	92.67
554.694	59.9
554.899	-339.45
555.105	-46.59
555.31	238.08
555.515	238.08
555.72	-128.51
555.925	-300.54
556.131	211.45
556.336	-126.46
556.541	-239.1
556.746	-382.46
556.951	358.91
557.156	401.91
557.361	-206.33
557.567	-165.37
557.772	569.85
557.977	199.16
558.182	-284.16
558.387	-239.1
558.592	-38.4
558.797	322.04
559.002	-212.48
559.207	-120.32
559.412	-22.02
559.617	461.3
559.822	-210.43
560.027	-333.31
560.232	102.91
560.437	285.18
560.642	-378.36
560.847	-312.83
561.051	39.42
561.256	98.81
561.461	-239.1
561.666	-370.17
561.871	123.39
562.076	248.32
562.281	-198.14
562.485	-267.77
562.69	174.59
562.895	350.71
563.1	-247.29
563.305	-321.02
563.509	330.23
563.714	614.9
563.919	-253.44
564.123	-224.76
564.328	-32.26
564.533	354.81
564.737	-214.52
564.942	-241.15
565.147	367.1
565.351	549.37
565.556	-101.89
565.761	-157.18
565.965	90.62
566.17	-85.5
566.374	-206.33
566.579	-409.08
566.784	29.18
566.988	-34.3
567.193	-368.12
567.397	-247.29
567.602	-257.53
567.806	29.18
568.011	-173.57
568.215	-265.72
568.42	-62.98
568.624	-11.78
568.828	-239.1
569.033	-105.98
569.237	260.6
569.442	176.64
569.646	-349.69
569.85	-196.09
570.055	-56.83
570.259	76.29
570.463	-17.92
570.668	-261.63
570.872	55.81
571.076	18.94
571.281	-75.26
571.485	-175.61
571.689	100.86
571.893	207.36
572.098	-120.32
572.302	-249.34
572.506	219.64
572.71	86.53
572.914	-171.52
573.119	-278.01
573.323	383.48
573.527	356.86
573.731	-280.06
573.935	-304.64
574.139	162.3
574.343	-189.95
574.547	-212.48
574.751	-194.05
574.955	379.39
575.159	360.95
575.364	-241.15
575.568	-314.88
575.772	47.62
575.976	272.89
576.18	-359.93
576.383	-413.18
576.587	315.9
576.791	276.99
576.995	-390.65
577.199	-402.94
577.403	350.71
577.607	283.13
577.811	-341.5
578.015	-71.17
578.219	156.16
578.422	233.98
578.626	-136.7
578.83	-30.21
579.034	381.43
579.238	109.05
579.442	-312.83
579.645	193.02
579.849	23.04
580.053	186.88
580.257	-243.2
580.46	-157.18
580.664	279.04
580.868	272.89
581.071	-34.3
581.275	-38.4
581.479	-232.96
581.682	221.69
581.886	-288.25
582.09	-144.89
582.293	217.6
582.497	268.8
582.7	29.18
582.904	-267.77
583.107	178.69
583.311	-1.54
583.515	-151.04
583.718	-189.95
583.922	231.93
584.125	502.26
584.329	-220.67
584.532	-83.45
584.735	385.53
584.939	342.52
585.142	-300.54
585.346	-329.21
585.549	231.93
585.753	16.9
585.956	-189.95
586.159	53.76
586.363	518.65
586.566	166.4
586.769	-288.25
586.973	-384.51
587.176	217.6
587.379	338.43
587.582	152.06
587.786	-89.6
587.989	166.4
588.192	702.97
588.395	-85.5
588.599	121.34
588.802	186.88
589.005	248.32
589.208	-179.71
589.411	-298.49
589.615	324.09
589.818	461.3
590.021	55.81
590.224	-40.45
590.427	301.56
590.63	231.93
590.833	-374.27
591.036	-157.18
591.239	6.66
591.442	-30.21
591.645	31.23
591.848	-198.14
592.051	152.06
592.254	289.28
592.457	-116.22
592.66	-146.94
592.863	37.38
593.066	164.35
593.269	-138.75
593.472	-89.6
593.675	-155.13
593.878	209.4
594.081	-22.02
594.284	-239.1
594.486	231.93
594.689	125.44
594.892	-54.78
595.095	-50.69
595.298	336.38
595.5	0.51
595.703	-73.21
595.906	-32.26
596.109	449.02
596.311	311.8
596.514	-447.99
596.717	-146.94
596.92	461.3
597.122	215.55
597.325	-382.46
597.528	-181.76
597.73	328.19
597.933	121.34
598.136	-179.71
598.338	-460.28
598.541	180.73
598.743	487.93
598.946	-99.84
599.148	-187.9
599.351	420.35
599.554	295.42
599.756	-87.55
599.959	-153.09
600.161	401.91
600.363	645.62
600.566	115.2
600.768	-136.7
600.971	547.32
601.173	266.75
601.376	-144.89
601.578	-155.13
601.78	281.08
601.983	766.45
602.185	-204.28
602.388	74.24
602.59	229.88
602.792	20.99
602.995	113.15
603.197	-165.37
603.399	387.58
603.601	246.27
603.804	-34.3
604.006	-159.23
604.208	88.57
604.41	-239.1
604.613	-22.02
604.815	-153.09
605.017	700.92
605.219	-24.06
605.421	227.84
605.623	-112.13
605.826	510.46
606.028	516.6
606.23	-105.98
606.432	-128.51
606.634	467.45
606.836	506.36
607.038	-187.9
607.24	80.38
607.442	233.98
607.644	197.12
607.846	-5.63
608.048	-226.81
608.25	444.92
608.452	8.7
608.654	-124.41
608.856	-314.88
609.058	74.24
609.26	229.88
609.462	-48.64
609.664	-118.27
609.866	592.37
610.067	358.91
610.269	90.62
610.471	-105.98
610.673	64
610.875	231.93
611.077	-294.4
611.278	-11.78
611.48	176.64
611.682	541.18
611.884	31.23
612.085	-56.83
612.287	8.7
612.489	283.13
612.69	-269.82
612.892	25.09
613.094	524.79
613.295	188.93
613.497	-183.81
613.699	-56.83
613.9	508.41
614.102	428.54
614.304	-101.89
614.505	-116.22
614.707	211.45
614.908	164.35
615.11	-245.24
615.311	8.7
615.513	295.42
615.714	365.05
615.916	-189.95
616.117	-128.51
616.319	188.93
616.52	410.11
616.722	-159.23
616.923	-161.28
617.124	444.92
617.326	252.41
617.527	-1.54
617.729	123.39
617.93	276.99
618.131	430.59
618.333	25.09
618.534	18.94
618.735	2.56
618.937	598.52
619.138	-239.1
619.339	-118.27
619.54	363
619.742	104.96
619.943	104.96
620.144	39.42
620.345	358.91
620.546	506.36
620.748	-142.85
620.949	-75.26
621.15	201.21
621.351	293.37
621.552	-128.51
621.753	-226.81
621.954	-132.61
622.155	776.69
622.356	-108.03
622.558	199.16
622.759	158.21
622.96	649.72
623.161	100.86
623.362	-54.78
623.563	238.08
623.764	279.04
623.965	-24.06
624.166	186.88
624.366	199.16
624.567	350.71
624.768	-407.03
624.969	-91.65
625.17	53.76
625.371	383.48
625.572	16.9
625.773	-183.81
625.973	504.31
626.174	395.77
626.375	-11.78
626.576	35.33
626.777	291.32
626.977	770.55
627.178	-103.93
627.379	72.19
627.58	195.07
627.78	205.31
627.981	80.38
628.182	92.67
628.382	528.89
628.583	-126.46
628.784	-187.9
628.984	109.05
629.185	440.83
629.386	475.64
629.586	37.38
629.787	-108.03
629.987	485.88
630.188	231.93
630.388	47.62
630.589	39.42
630.79	772.6
630.99	385.53
631.191	80.38
631.391	100.86
631.591	371.19
631.792	623.09
631.992	172.54
632.193	-1.54
632.393	680.44
632.594	375.29
632.794	-38.4
632.994	129.53
633.195	227.84
633.395	307.71
633.595	-99.84
633.796	162.3
633.996	227.84
634.196	524.79
634.397	-196.09
634.597	145.92
634.797	113.15
634.997	590.33
635.198	242.17
635.398	-11.78
635.598	281.08
635.798	565.75
635.998	403.96
636.199	4.61
636.399	147.97
636.599	47.62
636.799	-30.21
636.999	170.49
637.199	338.43
637.399	590.33
637.599	-95.74
637.799	178.69
637.999	113.15
638.199	702.97
638.399	-62.98
638.599	-26.11
638.799	440.83
638.999	717.3
639.199	147.97
639.399	129.53
639.599	596.47
639.799	100.86
639.999	-67.07
640.199	-34.3
640.399	352.76
640.599	389.63
640.799	133.63
640.998	219.64
641.198	633.33
641.398	539.13
641.598	205.31
641.798	129.53
641.997	1255.92
642.197	244.22
642.397	145.92
642.597	68.09
642.796	532.98
642.996	584.18
643.196	268.8
643.395	-62.98
643.595	397.82
643.795	-56.83
643.994	78.33
644.194	92.67
644.394	494.07
644.593	412.15
644.793	-89.6
644.992	145.92
645.192	391.67
645.392	-198.14
645.591	203.26
645.791	109.05
645.99	457.21
646.19	238.08
646.389	246.27
646.589	100.86
646.788	545.27
646.987	479.74
647.187	332.28
647.386	229.88
647.586	299.52
647.785	559.61
647.984	84.48
648.184	170.49
648.383	256.51
648.582	254.46
648.782	154.11
648.981	301.56
649.18	139.77
649.38	348.67
649.579	154.11
649.778	-48.64
649.977	485.88
650.177	453.11
650.376	64
650.575	-62.98
650.774	821.75
650.973	147.97
651.173	-87.55
651.372	162.3
651.571	332.28
651.77	567.8
651.969	88.57
652.168	117.25
652.367	104.96
652.566	391.67
652.765	82.43
652.964	375.29
653.163	827.89
653.362	348.67
653.561	123.39
653.76	205.31
653.959	244.22
654.158	492.02
654.357	410.11
654.556	156.16
654.755	430.59
654.954	588.28
655.153	178.69
655.352	123.39
655.551	729.59
655.749	133.63
655.948	211.45
656.147	172.54
656.346	440.83
656.545	352.76
656.743	242.17
656.942	211.45
657.141	432.63
657.34	186.88
657.538	156.16
657.737	199.16
657.936	301.56
658.135	481.78
658.333	80.38
658.532	256.51
658.731	901.62
658.929	598.52
659.128	438.78
659.326	129.53
659.525	702.97
659.724	451.07
659.922	-40.45
660.121	-42.5
660.319	522.74
660.518	174.59
660.716	8.7
660.915	14.85
661.113	682.49
661.312	88.57
661.51	330.23
661.709	113.15
661.907	543.22
662.105	836.08
662.304	102.91
662.502	309.76
662.701	696.82
662.899	354.81
663.097	469.5
663.296	-15.87
663.494	698.87
663.692	754.16
663.891	70.14
664.089	64
664.287	442.87
664.485	682.49
664.684	145.92
664.882	262.65
665.08	391.67
665.278	522.74
665.476	37.38
665.675	428.54
665.873	889.33
666.071	682.49
666.269	113.15
666.467	457.21
666.665	502.26
666.863	590.33
667.061	285.18
667.259	150.01
667.457	467.45
667.655	606.71
667.853	61.95
668.051	326.14
668.249	287.23
668.447	520.7
668.645	41.47
668.843	426.49
669.041	705.01
669.239	295.42
669.437	307.71
669.635	348.67
669.833	295.42
670.031	696.82
670.229	285.18
670.426	393.72
670.624	279.04
670.822	348.67
671.02	238.08
671.218	340.47
671.415	236.03
671.613	494.07
671.811	338.43
672.009	279.04
672.206	680.44
672.404	463.35
672.602	506.36
672.799	322.04
672.997	559.61
673.195	696.82
673.392	342.52
673.59	174.59
673.788	612.85
673.985	-1.54
674.183	326.14
674.38	328.19
674.578	604.66
674.775	334.33
674.973	143.87
675.17	16.9
675.368	836.08
675.565	510.46
675.763	244.22
675.96	195.07
676.158	735.73
676.355	406.01
676.553	254.46
676.75	305.66
676.947	563.7
677.145	489.98
677.342	350.71
677.539	358.91
677.737	569.85
677.934	989.68
678.131	500.22
678.329	297.47
678.526	877.04
678.723	647.67
678.92	317.95
679.118	344.57
679.315	334.33
679.512	834.04
679.709	350.71
679.906	397.82
680.104	737.78
680.301	467.45
680.498	143.87
680.695	156.16
680.892	371.19
681.089	391.67
681.286	276.99
681.483	182.78
681.68	664.05
681.877	655.86
682.075	330.23
682.272	481.78
682.469	676.34
682.665	465.4
682.862	141.82
683.059	141.82
683.256	662.01
683.453	547.32
683.65	367.1
683.847	301.56
684.044	526.84
684.241	270.84
684.438	412.15
684.635	215.55
684.831	899.57
685.028	1032.69
685.225	324.09
685.422	453.11
685.619	428.54
685.815	584.18
686.012	440.83
686.209	385.53
686.405	233.98
686.602	694.77
686.799	170.49
686.996	147.97
687.192	309.76
687.389	977.39
687.586	270.84
687.782	373.24
687.979	801.27
688.175	764.4
688.372	451.07
688.568	383.48
688.765	524.79
688.962	905.71
689.158	465.4
689.355	199.16
689.551	725.49
689.748	479.74
689.944	365.05
690.14	170.49
690.337	682.49
690.533	381.43
690.73	473.59
690.926	346.62
691.123	653.81
691.319	621.05
691.515	207.36
691.712	545.27
691.908	735.73
692.104	752.12
692.301	502.26
692.497	332.28
692.693	840.18
692.889	784.88
693.086	590.33
693.282	154.11
693.478	555.51
693.674	1028.59
693.87	453.11
694.067	211.45
694.263	662.01
694.459	616.95
694.655	487.93
694.851	475.64
695.047	770.55
695.243	752.12
695.439	498.17
695.635	403.96
695.831	815.6
696.027	672.25
696.224	350.71
696.42	688.63
696.615	877.04
696.811	729.59
697.007	178.69
697.203	395.77
697.399	723.44
697.595	893.43
697.791	320
697.987	457.21
698.183	342.52
698.379	416.25
698.575	383.48
698.77	465.4
698.966	809.46
699.162	950.77
699.358	485.88
699.554	489.98
699.749	760.31
699.945	899.57
700.141	586.23
700.337	571.9
700.532	649.72
700.728	532.98
700.924	326.14
701.119	399.87
701.315	791.03
701.511	563.7
701.706	608.76
701.902	283.13
702.097	596.47
702.293	793.08
702.489	555.51
702.684	485.88
702.88	614.9
703.075	551.42
703.271	471.54
703.466	326.14
703.662	674.29
703.857	711.16
704.053	338.43
704.248	385.53
704.443	793.08
704.639	844.28
704.834	449.02
705.03	451.07
705.225	813.56
705.42	850.42
705.616	606.71
705.811	254.46
706.006	573.94
706.202	530.94
706.397	598.52
706.592	324.09
706.787	647.67
706.983	680.44
707.178	748.02
707.373	498.17
707.568	801.27
707.763	958.96
707.959	365.05
708.154	416.25
708.349	786.93
708.544	805.36
708.739	674.29
708.934	309.76
709.129	836.08
709.324	961.01
709.519	446.97
709.714	377.34
709.909	870.9
710.104	795.12
710.299	479.74
710.494	530.94
710.689	817.65
710.884	715.25
711.079	616.95
711.274	709.11
711.469	889.33
711.664	729.59
711.859	375.29
712.054	625.14
712.249	811.51
712.443	1065.46
712.638	393.72
712.833	457.21
713.028	651.77
713.223	649.72
713.417	752.12
713.612	426.49
713.807	936.43
714.002	1255.92
714.196	682.49
714.391	506.36
714.586	1010.16
714.78	719.35
714.975	500.22
715.17	453.11
715.364	694.77
715.559	920.05
715.754	182.78
715.948	449.02
716.143	1135.09
716.337	799.22
716.532	784.88
716.726	502.26
716.921	874.99
717.115	1110.51
717.31	410.11
717.504	965.11
717.699	707.06
717.893	907.76
718.088	446.97
718.282	322.04
718.476	766.45
718.671	936.43
718.865	537.08
719.059	571.9
719.254	754.16
719.448	1186.29
719.642	1821.16
719.837	301.56
720.031	983.54
720.225	997.87
720.419	555.51
720.614	473.59
720.808	973.3
721.002	702.97
721.196	494.07
721.39	557.56
721.585	1001.97
721.779	791.03
721.973	590.33
722.167	461.3
722.361	899.57
722.555	1028.59
722.749	530.94
722.943	498.17
723.137	498.17
723.331	813.56
723.525	580.09
723.719	489.98
723.913	893.43
724.107	1098.22
724.301	508.41
724.495	664.05
724.689	1274.35
724.883	1137.13
725.077	528.89
725.271	543.22
725.465	1024.5
725.659	805.36
725.853	692.73
726.046	438.78
726.24	623.09
726.434	997.87
726.628	557.56
726.822	688.63
727.015	1094.13
727.209	1120.75
727.403	551.42
727.596	481.78
727.79	1006.06
727.984	981.49
728.177	621.05
728.371	676.34
728.565	1034.74
728.758	506.36
728.952	567.8
729.146	446.97
729.339	1024.5
729.533	776.69
729.726	569.85
729.92	461.3
730.113	1114.61
730.307	879.09
730.5	551.42
730.694	508.41
730.887	780.79
731.081	965.11
731.274	467.45
731.468	664.05
731.661	975.35
731.854	737.78
732.048	627.19
732.241	414.2
732.435	715.25
732.628	928.24
732.821	629.24
733.014	580.09
733.208	598.52
733.401	1087.98
733.594	600.57
733.788	567.8
733.981	1120.75
734.174	805.36
734.367	543.22
734.56	750.07
734.754	1098.22
734.947	877.04
735.14	633.33
735.333	590.33
735.526	1120.75
735.719	772.6
735.912	506.36
736.105	551.42
736.298	829.94
736.491	741.88
736.684	662.01
736.877	625.14
737.07	932.34
737.263	1151.47
737.456	612.85
737.649	592.37
737.842	870.9
738.035	850.42
738.228	752.12
738.421	834.04
738.614	1190.38
738.807	1124.85
739	563.7
739.192	567.8
739.385	1018.35
739.578	1026.54
739.771	868.85
739.964	678.39
740.156	1008.11
740.349	903.67
740.542	801.27
740.735	551.42
740.927	674.29
741.12	756.21
741.313	473.59
741.505	741.88
741.698	930.29
741.891	1012.21
742.083	846.32
742.276	670.2
742.468	920.05
742.661	868.85
742.854	725.49
743.046	612.85
743.239	1300.97
743.431	834.04
743.624	745.97
743.816	539.13
744.009	887.28
744.201	1038.83
744.393	819.7
744.586	489.98
744.778	1264.11
744.971	934.39
745.163	786.93
745.355	860.66
745.548	862.71
745.74	918
745.932	813.56
746.125	725.49
746.317	1434.09
746.509	983.54
746.702	709.11
746.894	727.54
747.086	1030.64
747.278	1296.88
747.471	887.28
747.663	743.92
747.855	1042.93
748.047	1333.74
748.239	612.85
748.431	707.06
748.623	1329.64
748.815	1401.32
749.008	596.47
749.2	719.35
749.392	1092.08
749.584	1055.22
749.776	760.31
749.968	811.51
750.16	1366.51
750.352	999.92
750.544	805.36
750.736	741.88
750.928	1061.36
751.12	893.43
751.311	668.15
751.503	834.04
751.695	1112.56
751.887	973.3
752.079	479.74
752.271	641.53
752.463	1792.48
752.654	1217.01
752.846	760.31
753.038	711.16
753.23	858.61
753.421	1182.19
753.613	774.64
753.805	997.87
753.997	1126.89
754.188	1165.81
754.38	651.77
754.572	764.4
754.763	928.24
754.955	1100.27
755.146	760.31
755.338	748.02
755.53	1100.27
755.721	1022.45
755.913	625.14
756.104	629.24
756.296	948.72
756.487	1071.6
756.679	580.09
756.87	805.36
757.062	891.38
757.253	1239.53
757.445	739.83
757.636	788.98
757.827	1118.7
758.019	1581.54
758.21	653.81
758.401	776.69
758.593	1505.77
758.784	1239.53
758.975	647.67
759.167	621.05
759.358	1034.74
759.549	1204.72
759.74	731.64
759.932	731.64
760.123	1300.97
760.314	911.86
760.505	948.72
760.696	811.51
760.888	1456.62
761.079	877.04
761.27	760.31
761.461	625.14
761.652	1348.08
761.843	928.24
762.034	809.46
762.225	981.49
762.416	1026.54
762.607	1145.33
762.798	821.75
762.989	731.64
763.18	1892.84
763.371	893.43
763.562	760.31
763.753	834.04
763.944	1329.64
764.135	1278.44
764.326	973.3
764.517	782.84
764.708	1069.55
764.899	1106.42
765.089	717.3
765.28	614.9
765.471	1090.03
765.662	1182.19
765.853	870.9
766.043	702.97
766.234	1292.78
766.425	1366.51
766.615	872.95
766.806	596.47
766.997	1335.79
767.187	1153.52
767.378	733.68
767.569	647.67
767.759	1155.57
767.95	1098.22
768.141	944.63
768.331	713.21
768.522	1049.07
768.712	1298.92
768.903	786.93
769.093	690.68
769.284	1534.44
769.474	1079.79
769.665	641.53
769.855	561.66
770.046	1343.98
770.236	1001.97
770.426	889.33
770.617	702.97
770.807	1112.56
770.998	1096.18
771.188	965.11
771.378	752.12
771.569	1405.42
771.759	1239.53
771.949	711.16
772.139	590.33
772.33	1079.79
772.52	1434.09
772.71	825.84
772.9	756.21
773.09	1464.81
773.281	1389.03
773.471	842.23
773.661	752.12
773.851	1194.48
774.041	866.8
774.231	768.5
774.421	920.05
774.611	1321.45
774.802	1122.8
774.992	907.76
775.182	633.33
775.372	1047.02
775.562	1272.3
775.752	827.89
775.942	834.04
776.131	1395.18
776.321	1180.14
776.511	815.6
776.701	672.25
776.891	1436.14
777.081	852.47
777.271	958.96
777.461	727.54
777.651	1370.6
777.84	1348.08
778.03	934.39
778.22	811.51
778.41	1341.93
778.599	967.15
778.789	883.19
778.979	741.88
779.169	1221.1
779.358	999.92
779.548	1137.13
779.738	768.5
779.927	1171.95
780.117	801.27
780.307	852.47
780.496	588.28
780.686	1231.34
780.875	1624.55
781.065	711.16
781.254	786.93
781.444	1200.62
781.633	1047.02
781.823	768.5
782.012	760.31
782.202	954.87
782.391	1016.3
782.581	739.83
782.77	954.87
782.96	1272.3
783.149	1114.61
783.338	809.46
783.528	616.95
783.717	1391.08
783.906	1378.79
784.096	854.51
784.285	715.25
784.474	1069.55
784.663	979.44
784.853	913.91
785.042	811.51
785.231	1057.26
785.42	1346.03
785.61	965.11
785.799	715.25
785.988	954.87
786.177	993.78
786.366	975.35
786.555	1112.56
786.744	1333.74
786.933	1014.26
787.122	735.73
787.312	711.16
787.501	887.28
787.69	1264.11
787.879	825.84
788.068	780.79
788.257	809.46
788.445	1100.27
788.634	881.14
788.823	725.49
789.012	1786.34
789.201	1468.91
789.39	981.49
789.579	717.3
789.768	1083.89
789.957	1171.95
790.145	903.67
790.334	614.9
790.523	1014.26
790.712	981.49
790.9	924.15
791.089	702.97
791.278	1382.89
791.467	1180.14
791.655	1149.42
791.844	1339.88
792.033	991.73
792.221	1116.65
792.41	967.15
792.599	633.33
792.787	1194.48
792.976	1300.97
793.164	801.27
793.353	858.61
793.541	1329.64
793.73	1272.3
793.918	948.72
794.107	739.83
794.295	1157.61
794.484	1114.61
794.672	788.98
794.861	895.47
795.049	1212.91
795.238	1520.1
795.426	725.49
795.614	944.63
795.803	1300.97
795.991	1540.58
796.179	809.46
796.368	870.9
796.556	1427.95
796.744	877.04
796.932	807.41
797.121	721.4
797.309	1083.89
797.497	1354.22
797.685	924.15
797.874	809.46
798.062	1100.27
798.25	1473
798.438	772.6
798.626	809.46
798.814	1229.29
799.002	1704.42
799.19	1028.59
799.378	944.63
799.566	1468.91
799.755	1491.43
799.943	1018.35
800.131	846.32
800.318	1253.87
800.506	1237.49
800.694	838.13
800.882	1032.69
801.07	1497.58
801.258	1110.51
801.446	811.51
801.634	889.33
801.822	1141.23
802.01	1133.04
802.197	932.34
802.385	1010.16
802.573	1159.66
802.761	911.86
802.949	971.25
803.136	813.56
803.324	1464.81
803.512	1245.68
803.699	1077.74
803.887	752.12
804.075	1569.26
804.262	1079.79
804.45	819.7
804.638	1049.07
804.825	1067.5
805.013	1100.27
805.201	936.43
805.388	760.31
805.576	1182.19
805.763	1503.72
805.951	911.86
806.138	1227.25
806.326	1714.66
806.513	1309.16
806.701	1044.98
806.888	899.57
807.075	1235.44
807.263	1583.59
807.45	842.23
807.638	1176.05
807.825	1681.89
808.012	1485.29
808.2	965.11
808.387	1206.77
808.574	1305.07
808.761	1667.56
808.949	944.63
809.136	1145.33
809.323	1161.71
809.51	1229.29
809.698	1182.19
809.885	1108.46
810.072	1294.83
810.259	1499.63
810.446	985.58
810.633	969.2
810.82	1591.78
811.008	1587.69
811.195	1102.32
811.382	1063.41
811.569	1292.78
811.756	1014.26
811.943	969.2
812.13	961.01
812.317	1245.68
812.504	1161.71
812.691	1163.76
812.878	1157.61
813.064	1642.98
813.251	1233.39
813.438	932.34
813.625	1235.44
813.812	1210.86
813.999	1235.44
814.186	1114.61
814.372	1227.25
814.559	1364.46
814.746	1681.89
814.933	1106.42
815.12	1237.49
815.306	1247.72
815.493	1036.78
815.68	948.72
815.866	1130.99
816.053	1673.7
816.24	1749.48
816.426	1178.09
816.613	956.91
816.799	1481.19
816.986	1554.92
817.173	1067.5
817.359	1085.94
817.546	1485.29
817.732	1057.26
817.919	801.27
818.105	1128.94
818.292	1294.83
818.478	1554.92
818.665	1194.48
818.851	1028.59
819.037	1874.4
819.224	1405.42
819.41	911.86
819.597	1100.27
819.783	1788.39
819.969	1526.25
820.156	1169.9
820.342	1036.78
820.528	2064.86
820.714	1247.72
820.901	1305.07
821.087	1159.66
821.273	1780.2
821.459	1309.16
821.646	989.68
821.832	940.53
822.018	1403.37
822.204	1448.43
822.39	1124.85
822.576	954.87
822.762	1505.77
822.948	1495.53
823.134	1389.03
823.32	1104.37
823.507	1149.42
823.693	1427.95
823.879	1411.56
824.065	1034.74
824.25	1309.16
824.436	1221.1
824.622	1157.61
824.808	1087.98
824.994	1159.66
825.18	1098.22
825.366	981.49
825.552	1049.07
825.738	1251.82
825.923	1528.3
826.109	1346.03
826.295	1100.27
826.481	1188.33
826.667	1343.98
826.852	1237.49
827.038	977.39
827.224	1640.93
827.409	1712.61
827.595	1038.83
827.781	1300.97
827.966	1673.7
828.152	1595.88
828.338	1118.7
828.523	893.43
828.709	1296.88
828.894	1690.09
829.08	1219.05
829.266	1020.4
829.451	1380.84
829.637	1513.96
829.822	1231.34
830.008	1155.57
830.193	1681.89
830.378	1757.67
830.564	1196.53
830.749	1092.08
830.935	1481.19
831.12	1571.3
831.305	1008.11
831.491	1237.49
831.676	1063.41
831.861	1653.22
832.047	1286.64
832.232	1036.78
832.417	1642.98
832.602	1366.51
832.788	1098.22
832.973	1055.22
833.158	1348.08
833.343	1466.86
833.528	1188.33
833.714	1147.37
833.899	1487.34
834.084	1677.8
834.269	1309.16
834.454	1280.49
834.639	1595.88
834.824	1333.74
835.009	1333.74
835.194	1182.19
835.379	1571.3
835.564	1790.44
835.749	1294.83
835.934	1073.65
836.119	1642.98
836.304	1374.7
836.489	1051.12
836.674	1391.08
836.859	1198.57
837.044	1681.89
837.228	1249.77
837.413	993.78
837.598	1473
837.783	1628.65
837.968	1174
838.152	1120.75
838.337	920.05
838.522	1761.77
838.707	1473
838.891	1292.78
839.076	1677.8
839.261	1677.8
839.445	1141.23
839.63	1227.25
839.815	1714.66
839.999	1354.22
840.184	1061.36
840.368	1106.42
840.553	1526.25
840.737	1599.98
840.922	1090.03
841.106	1004.02
841.291	1130.99
841.475	1522.15
841.66	1090.03
841.844	1167.85
842.029	2060.77
842.213	1157.61
842.397	1186.29
842.582	885.23
842.766	1704.42
842.951	1647.08
843.135	1163.76
843.319	1219.05
843.504	1509.86
843.688	1735.14
843.872	1157.61
844.056	1063.41
844.241	1522.15
844.425	1399.27
844.609	1333.74
844.793	924.15
844.977	1610.22
845.161	1569.26
845.346	1051.12
845.53	1155.57
845.714	1468.91
845.898	1823.2
846.082	977.39
846.266	1128.94
846.45	1415.66
846.634	1473
846.818	1040.88
847.002	1360.36
847.186	1548.78
847.37	1176.05
847.554	1065.46
847.738	1214.96
847.922	1473
848.106	1554.92
848.29	1079.79
848.473	1137.13
848.657	1612.26
848.841	1303.02
849.025	1253.87
849.209	915.95
849.392	1597.93
849.576	1245.68
849.76	952.82
849.944	1227.25
850.127	1851.88
850.311	1122.8
850.495	989.68
850.678	985.58
850.862	1628.65
851.046	1718.76
851.229	1366.51
851.413	1006.06
851.596	1450.47
851.78	1491.43
851.964	1321.45
852.147	1133.04
852.331	2050.53
852.514	1665.51
852.698	1245.68
852.881	989.68
853.065	1616.36
853.248	1427.95
853.431	1245.68
853.615	1204.72
853.798	2003.43
853.982	1591.78
854.165	1339.88
854.348	1028.59
854.532	1356.27
854.715	1288.68
854.898	1108.46
855.081	1137.13
855.265	1829.35
855.448	1804.77
855.631	1026.54
855.814	1145.33
855.997	1679.85
856.181	1366.51
856.364	1264.11
856.547	1006.06
856.73	1581.54
856.913	1509.86
857.096	1141.23
857.279	1196.53
857.462	1247.72
857.645	1624.55
857.828	1284.59
858.011	1292.78
858.194	1335.79
858.377	1622.5
858.56	1044.98
858.743	1149.42
858.926	1171.95
859.109	1622.5
859.292	1145.33
859.475	1049.07
859.658	1622.5
859.841	1630.7
860.023	981.49
860.206	1122.8
860.389	1505.77
860.572	1626.6
860.755	1155.57
860.937	1122.8
861.12	1534.44
861.303	1358.32
861.486	1272.3
861.668	999.92
861.851	1612.26
862.034	1495.53
862.216	1282.54
862.399	1024.5
862.581	1546.73
862.764	1884.64
862.947	1161.71
863.129	1094.13
863.312	1270.25
863.494	1849.83
863.677	1415.66
863.859	877.04
864.042	1624.55
864.224	1714.66
864.406	1305.07
864.589	1020.4
864.771	1479.15
864.954	1243.63
865.136	1155.57
865.318	924.15
865.501	1653.22
865.683	977.39
865.865	987.63
866.048	1139.18
866.23	1505.77
866.412	1327.6
866.594	1057.26
866.777	1137.13
866.959	1597.93
867.141	1174
867.323	1311.21
867.505	1305.07
867.687	1438.19
867.869	1362.41
868.052	1231.34
868.234	956.91
868.416	1409.51
868.598	1524.2
868.78	1106.42
868.962	1001.97
869.144	1755.62
869.326	1499.63
869.508	1102.32
869.69	1047.02
869.872	1276.4
870.054	1645.03
870.236	1001.97
870.417	1057.26
870.599	1335.79
870.781	1737.19
870.963	1221.1
871.145	1073.65
871.327	1087.98
871.508	1677.8
871.69	1128.94
871.872	1180.14
872.054	1309.16
872.235	1522.15
872.417	1149.42
872.599	999.92
872.78	1710.57
872.962	1473
873.144	1098.22
873.325	1206.77
873.507	1774.05
873.689	1511.91
873.87	1079.79
874.052	1231.34
874.233	1372.65
874.415	1739.24
874.596	1235.44
874.778	1063.41
874.959	1522.15
875.141	1624.55
875.322	1180.14
875.503	1126.89
875.685	1542.63
875.866	1124.85
876.048	1065.46
876.229	1128.94
876.41	1368.56
876.592	1505.77
876.773	1133.04
876.954	1047.02
877.136	1804.77
877.317	1401.32
877.498	1026.54
877.679	1305.07
877.86	1513.96
878.042	1464.81
878.223	1128.94
878.404	1509.86
878.585	1626.6
878.766	2017.76
878.947	1473
879.128	1413.61
879.309	1735.14
879.49	1835.49
879.672	1333.74
879.853	1184.24
880.034	1311.21
880.215	1446.38
880.396	1182.19
880.576	1251.82
880.757	1366.51
880.938	1837.54
881.119	1348.08
881.3	1237.49
881.481	1356.27
881.662	2374.11
881.843	1171.95
882.023	1194.48
882.204	1685.99
882.385	1518.06
882.566	1337.84
882.747	1237.49
882.927	1536.49
883.108	1499.63
883.289	1182.19
883.469	1489.39
883.65	1448.43
883.831	1544.68
884.011	1526.25
884.192	1276.4
884.373	1800.68
884.553	1651.17
884.734	1442.28
884.914	1532.39
885.095	2300.38
885.275	1907.17
885.456	1620.46
885.636	1296.88
885.817	1348.08
885.997	1688.04
886.178	1251.82
886.358	1358.32
886.538	1628.65
886.719	2703.83
886.899	1298.92
887.08	1366.51
887.26	1851.88
887.44	1432.04
887.621	1235.44
887.801	1448.43
887.981	2271.71
888.161	1845.73
888.342	1440.23
888.522	1444.33
888.702	1825.25
888.882	1974.75
889.062	1520.1
889.242	1303.02
889.423	1980.9
889.603	1653.22
889.783	1468.91
889.963	1300.97
890.143	1737.19
890.323	1851.88
890.503	1346.03
890.683	1382.89
890.863	1659.37
891.043	1653.22
891.223	1473
891.403	1614.31
891.583	1579.5
891.763	1763.81
891.943	1442.28
892.122	1292.78
892.302	1661.41
892.482	1642.98
892.662	1569.26
892.842	1493.48
893.022	1677.8
893.201	1548.78
893.381	1651.17
893.561	1421.8
893.741	1917.41
893.92	1786.34
894.1	1626.6
894.28	1563.11
894.459	1941.99
894.639	1833.44
894.819	1401.32
894.998	1624.55
895.178	1784.29
895.357	1829.35
895.537	1559.02
895.716	1434.09
895.896	1694.18
896.075	2095.58
896.255	1569.26
896.434	1346.03
896.614	1898.98
896.793	2195.93
896.973	1634.79
897.152	1540.58
897.331	1796.58
897.511	1919.46
897.69	1391.08
897.87	1657.32
898.049	1882.6
898.228	1706.47
898.407	1782.24
898.587	1638.89
898.766	1559.02
898.945	1835.49
899.124	1706.47
899.304	1630.7
899.483	1825.25
899.662	2140.64
899.841	1563.11
900.02	1448.43
900.199	2021.86
900.378	1925.6
900.557	1497.58
900.737	1335.79
900.916	1804.77
901.095	1968.61
901.274	1741.29
901.453	1442.28
901.632	1604.07
901.811	1540.58
901.989	1384.94
902.168	1399.27
902.347	1919.46
902.526	1706.47
902.705	1489.39
902.884	1563.11
903.063	2169.31
903.242	2071.01
903.42	1370.6
903.599	1655.27
903.778	1944.03
903.957	2105.82
904.135	1583.59
904.314	1663.46
904.493	1765.86
904.672	1862.12
904.85	1526.25
905.029	1450.47
905.207	1964.51
905.386	2451.93
905.565	1341.93
905.743	1516.01
905.922	1612.26
906.1	1800.68
906.279	1489.39
906.457	1497.58
906.636	1612.26
906.814	1608.17
906.993	1446.38
907.171	1421.8
907.35	1784.29
907.528	1956.32
907.707	1782.24
907.885	1442.28
908.063	2284
908.242	1458.67
908.42	1350.12
908.598	1137.13
908.777	1849.83
908.955	1651.17
909.133	1559.02
909.311	1415.66
909.49	1554.92
909.668	1694.18
909.846	1485.29
910.024	1223.15
910.202	1860.07
910.38	1898.98
910.559	1335.79
910.737	1298.92
910.915	1653.22
911.093	1829.35
911.271	1450.47
911.449	1507.82
911.627	1733.09
911.805	2302.43
911.983	1378.79
912.161	1354.22
912.339	1819.11
912.517	2075.1
912.695	1636.84
912.872	1458.67
913.05	1507.82
913.228	1788.39
913.406	1485.29
913.584	1384.94
913.762	1909.22
913.939	1602.02
914.117	1393.13
914.295	1253.87
914.473	1776.1
914.65	1767.91
914.828	1335.79
915.006	1329.64
915.184	1251.82
915.361	1735.14
915.539	1505.77
915.716	1530.34
915.894	1833.44
916.072	1784.29
916.249	1567.21
916.427	1554.92
916.604	1262.06
916.782	1739.24
916.959	1223.15
917.137	1370.6
917.314	1735.14
917.492	1794.53
917.669	1522.15
917.847	1538.54
918.024	1780.2
918.201	1429.99
918.379	1483.24
918.556	1358.32
918.733	1843.68
918.911	1493.48
919.088	1559.02
919.265	1350.12
919.442	1704.42
919.62	1522.15
919.797	1288.68
919.974	1268.2
920.151	1509.86
920.328	1532.39
920.506	1352.17
920.683	1579.5
920.86	1307.12
921.037	1454.57
921.214	1513.96
921.391	1296.88
921.568	1763.81
921.745	1417.71
921.922	1399.27
922.099	1202.67
922.276	1782.24
922.453	1583.59
922.63	1178.09
922.807	1626.6
922.984	1624.55
923.161	1432.04
923.338	1272.3
923.514	1178.09
923.691	1460.71
923.868	1632.74
924.045	1266.16
924.222	1212.91
924.399	1595.88
924.575	1763.81
924.752	1389.03
924.929	1425.9
925.105	1671.65
925.282	1268.2
925.459	1233.39
925.635	1368.56
925.812	1477.1
925.989	1376.75
926.165	1341.93
926.342	1098.22
926.518	1280.49
926.695	1534.44
926.871	1122.8
927.048	1143.28
927.224	1602.02
927.401	1243.63
927.577	1360.36
927.754	1087.98
927.93	1614.31
928.107	1632.74
928.283	1143.28
928.459	1292.78
928.636	1579.5
928.812	1479.15
928.988	1063.41
929.165	1042.93
929.341	1473
929.517	1507.82
929.693	1427.95
929.87	958.96
930.046	1583.59
930.222	1337.84
930.398	1167.85
930.574	1257.96
930.751	1473
930.927	1262.06
931.103	1239.53
931.279	1286.64
931.455	1202.67
931.631	1391.08
931.807	909.81
931.983	942.58
932.159	1024.5
932.335	1436.14
932.511	1085.94
932.687	1137.13
932.863	1391.08
933.039	1319.4
933.215	981.49
933.391	918
933.566	1151.47
933.742	1296.88
933.918	1145.33
934.094	901.62
934.27	1366.51
934.445	1350.12
934.621	1137.13
934.797	995.82
934.973	1419.75
935.148	1452.52
935.324	842.23
935.5	612.85
935.675	1442.28
935.851	1346.03
936.027	1034.74
936.202	969.2
936.378	1206.77
936.553	1137.13
936.729	1268.2
936.904	795.12
937.08	811.51
937.255	1032.69
937.431	739.83
937.606	723.44
937.782	907.76
937.957	1063.41
938.133	860.66
938.308	651.77
938.483	1038.83
938.659	760.31
938.834	858.61
939.009	678.39
939.185	784.88
939.36	735.73
939.535	428.54
939.71	840.18
939.886	1049.07
940.061	1047.02
940.236	770.55
940.411	723.44
940.586	969.2
940.761	1047.02
940.937	621.05
941.112	580.09
941.287	864.75
941.462	905.71
941.637	516.6
941.812	614.9
941.987	840.18
942.162	858.61
942.337	694.77
942.512	563.7
942.687	1055.22
942.862	1104.37
943.037	414.2
943.212	295.42
943.386	756.21
943.561	780.79
943.736	758.26
943.911	915.95
944.086	973.3
944.26	850.42
944.435	518.65
944.61	643.57
944.785	1038.83
944.959	1151.47
945.134	588.28
945.309	457.21
945.483	625.14
945.658	1077.74
945.833	281.08
946.007	360.95
946.182	1161.71
946.357	410.11
946.531	543.22
946.706	393.72
946.88	338.43
947.055	778.74
947.229	471.54
947.404	410.11
947.578	1087.98
947.752	729.59
947.927	465.4
948.101	377.34
948.276	776.69
948.45	829.94
948.624	748.02
948.799	416.25
948.973	840.18
949.147	522.74
949.321	580.09
949.496	510.46
949.67	1016.3
949.844	788.98
950.018	559.61
950.193	481.78
950.367	1278.44
950.541	623.09
950.715	688.63
950.889	643.57
951.063	639.48
951.237	903.67
951.411	324.09
951.585	272.89
951.759	940.53
951.933	600.57
952.107	432.63
952.281	645.62
952.455	1135.09
952.629	889.33
952.803	440.83
952.977	387.58
953.151	911.86
953.325	836.08
953.499	655.86
953.672	406.01
953.846	547.32
954.02	631.29
954.194	467.45
954.368	418.3
954.541	776.69
954.715	594.42
954.889	547.32
955.062	465.4
955.236	690.68
955.41	752.12
955.583	584.18
955.757	252.41
955.93	616.95
956.104	453.11
956.278	481.78
956.451	543.22
956.625	780.79
956.798	1112.56
956.972	723.44
957.145	473.59
957.319	719.35
957.492	672.25
957.665	612.85
957.839	449.02
958.012	813.56
958.185	555.51
958.359	514.55
958.532	674.29
958.705	893.43
958.879	870.9
959.052	586.23
959.225	363
959.398	772.6
959.572	770.55
959.745	385.53
959.918	463.35
960.091	594.42
960.264	838.13
960.438	367.1
960.611	403.96
960.784	899.57
960.957	619
961.13	858.61
961.303	401.91
961.476	727.54
961.649	1018.35
961.822	356.86
961.995	575.99
962.168	821.75
962.341	780.79
962.514	526.84
962.686	416.25
962.859	784.88
963.032	801.27
963.205	440.83
963.378	268.8
963.551	774.64
963.723	666.1
963.896	555.51
964.069	641.53
964.242	686.58
964.414	958.96
964.587	614.9
964.76	662.01
964.932	764.4
965.105	680.44
965.278	549.37
965.45	481.78
965.623	702.97
965.795	899.57
965.968	514.55
966.14	436.73
966.313	629.24
966.485	707.06
966.658	471.54
966.83	434.68
967.003	948.72
967.175	877.04
967.348	432.63
967.52	512.5
967.692	1090.03
967.865	745.97
968.037	602.61
968.209	674.29
968.382	606.71
968.554	899.57
968.726	494.07
968.898	408.06
969.071	834.04
969.243	801.27
969.415	510.46
969.587	496.12
969.759	1210.86
969.932	827.89
970.104	485.88
970.276	287.23
970.448	594.42
970.62	694.77
970.792	569.85
970.964	532.98
971.136	1087.98
971.308	877.04
971.48	408.06
971.652	387.58
971.824	1087.98
971.996	575.99
972.168	463.35
972.339	485.88
972.511	934.39
972.683	664.05
972.855	739.83
973.027	510.46
973.199	702.97
973.37	842.23
973.542	655.86
973.714	633.33
973.886	727.54
974.057	915.95
974.229	315.9
974.401	512.5
974.572	565.75
974.744	238.08
974.915	354.81
975.087	395.77
975.259	948.72
975.43	526.84
975.602	297.47
975.773	418.3
975.945	436.73
976.116	860.66
976.288	489.98
976.459	608.76
976.63	586.23
976.802	739.83
976.973	399.87
977.145	522.74
977.316	1133.04
977.487	748.02
977.659	596.47
977.83	600.57
978.001	1087.98
978.172	688.63
978.344	258.56
978.515	500.22
978.686	625.14
978.857	1042.93
979.028	530.94
979.2	334.33
979.371	858.61
979.542	676.34
979.713	688.63
979.884	72.19
980.055	522.74
980.226	504.31
980.397	387.58
980.568	363
980.739	891.38
980.91	588.28
981.081	520.7
981.252	444.92
981.423	782.84
981.594	834.04
981.765	305.66
981.936	498.17
982.106	711.16
982.277	915.95
982.448	387.58
982.619	600.57
982.79	506.36
982.96	940.53
983.131	551.42
983.302	195.07
983.472	528.89
983.643	772.6
983.814	506.36
983.984	340.47
984.155	582.14
984.326	879.09
984.496	475.64
984.667	406.01
984.837	430.59
985.008	932.34
985.178	549.37
985.349	485.88
985.519	625.14
985.69	463.35
985.86	422.39
986.031	342.52
986.201	750.07
986.371	858.61
986.542	303.61
986.712	219.64
986.882	874.99
987.053	762.36
987.223	281.08
987.393	612.85
987.563	526.84
987.734	635.38
987.904	686.58
988.074	401.91
988.244	760.31
988.414	567.8
988.585	440.83
988.755	479.74
988.925	614.9
989.095	1014.26
989.265	356.86
989.435	494.07
989.605	756.21
989.775	698.87
989.945	662.01
990.115	279.04
990.285	653.81
990.455	702.97
990.625	471.54
990.795	375.29
990.965	879.09
991.134	469.5
991.304	330.23
991.474	387.58
991.644	641.53
991.814	971.25
991.984	186.88
992.153	350.71
992.323	614.9
992.493	575.99
992.662	100.86
992.832	573.94
993.002	682.49
993.171	686.58
993.341	274.94
993.511	522.74
993.68	412.15
993.85	836.08
994.019	211.45
994.189	231.93
994.358	526.84
994.528	453.11
994.697	90.62
994.867	213.5
995.036	713.21
995.206	469.5
995.375	207.36
995.544	391.67
995.714	725.49
995.883	436.73
996.052	428.54
996.222	121.34
996.391	1063.41
996.56	582.14
996.73	207.36
996.899	70.14
997.068	874.99
997.237	512.5
997.406	205.31
997.576	135.68
997.745	602.61
997.914	504.31
998.083	18.94
998.252	240.12
998.421	487.93
998.59	442.87
998.759	219.64
998.928	16.9
999.097	879.09
999.266	635.38
999.435	322.04
999.604	47.62
999.773	1004.02
999.942	481.78
1000.111	88.57
1000.28	37.38
1000.448	238.08
1000.617	340.47
1000.786	422.39
1000.955	92.67
1001.124	573.94
1001.292	1221.1
1001.461	150.01
1001.63	88.57
1001.798	743.92
1001.967	844.28
1002.136	76.29
1002.304	45.57
1002.473	602.61
1002.642	575.99
1002.81	178.69
1002.979	150.01
1003.147	733.68
1003.316	991.73
1003.484	170.49
1003.653	154.11
1003.821	864.75
1003.99	457.21
1004.158	350.71
1004.327	184.83
1004.495	682.49
1004.663	254.46
1004.832	219.64
1005	123.39
1005.168	621.05
1005.337	520.7
1005.505	90.62
1005.673	313.85
1005.842	580.09
1006.01	641.53
1006.178	74.24
1006.346	211.45
1006.514	631.29
1006.683	846.32
1006.851	170.49
1007.019	-60.93
1007.187	264.7
1007.355	74.24
1007.523	-28.16
1007.691	47.62
1007.859	141.82
1008.027	709.11
1008.195	145.92
1008.363	-1.54
1008.531	672.25
1008.699	371.19
1008.867	-24.06
1009.035	64
1009.203	856.56
1009.37	428.54
1009.538	170.49
1009.706	520.7
1009.874	473.59
1010.042	420.35
1010.209	-34.3
1010.377	133.63
1010.545	629.24
1010.713	414.2
1010.88	47.62
1011.048	121.34
1011.216	379.39
1011.383	768.5
1011.551	64
1011.718	18.94
1011.886	610.81
1012.054	403.96
1012.221	12.8
1012.389	80.38
1012.556	434.68
1012.724	854.51
1012.891	262.65
1013.058	-81.41
1013.226	502.26
1013.393	651.77
1013.561	-44.54
1013.728	8.7
1013.895	614.9
1014.063	578.04
1014.23	-54.78
1014.397	55.81
1014.565	629.24
1014.732	313.85
1014.899	16.9
1015.066	51.71
1015.233	514.55
1015.401	584.18
1015.568	113.15
1015.735	178.69
1015.902	492.02
1016.069	485.88
1016.236	121.34
1016.403	-19.97
1016.57	190.97
1016.737	639.48
1016.904	147.97
1017.071	-30.21
1017.238	264.7
1017.405	614.9
1017.572	43.52
1017.739	211.45
1017.906	500.22
1018.073	641.53
1018.24	-50.69
1018.407	72.19
1018.573	694.77
1018.74	469.5
1018.907	119.29
1019.074	-134.65
1019.241	719.35
1019.407	410.11
1019.574	-3.58
1019.741	-30.21
1019.907	420.35
1020.074	565.75
1020.241	-173.57
1020.407	-87.55
1020.574	510.46
1020.74	535.03
1020.907	55.81
1021.073	-120.32
1021.24	963.06
1021.406	705.01
1021.573	-34.3
1021.739	43.52
1021.906	623.09
1022.072	242.17
1022.239	111.1
1022.405	88.57
1022.571	375.29
1022.738	197.12
1022.904	53.76
1023.07	94.72
1023.237	395.77
1023.403	584.18
1023.569	0.51
1023.735	18.94
1023.902	471.54
1024.068	449.02
1024.234	-91.65
1024.4	-5.63
1024.566	365.05
1024.732	625.14
1024.898	-7.68
1025.065	-105.98
1025.231	569.85
1025.397	285.18
1025.563	-1.54
1025.729	-124.41
1025.895	-73.21
1026.061	158.21
1026.227	-183.81
1026.392	-24.06
1026.558	575.99
1026.724	512.5
1026.89	-34.3
1027.056	10.75
1027.222	475.64
1027.388	223.74
1027.553	8.7
1027.719	4.61
1027.885	733.68
1028.051	469.5
1028.216	-118.27
1028.382	35.33
1028.548	549.37
1028.713	236.03
1028.879	-99.84
1029.045	164.35
1029.21	668.15
1029.376	586.23
1029.541	57.86
1029.707	20.99
1029.873	555.51
1030.038	537.08
1030.204	-42.5
1030.369	-24.06
1030.534	672.25
1030.7	211.45
1030.865	0.51
1031.031	-112.13
1031.196	408.06
1031.361	342.52
1031.527	-67.07
1031.692	-97.79
1031.857	-44.54
1032.023	432.63
1032.188	-91.65
1032.353	31.23
1032.518	682.49
1032.684	432.63
1032.849	-144.89
1033.014	31.23
1033.179	485.88
1033.344	436.73
1033.509	35.33
1033.674	-42.5
1033.839	477.69
1034.004	432.63
1034.17	-26.11
1034.335	-108.03
1034.5	285.18
1034.664	166.4
1034.829	-159.23
1034.994	-48.64
1035.159	461.3
1035.324	428.54
1035.489	-58.88
1035.654	-22.02
1035.819	733.68
1035.984	459.26
1036.148	39.42
1036.313	6.66
1036.478	623.09
1036.643	332.28
1036.807	-91.65
1036.972	-130.56
1037.137	700.92
1037.301	322.04
1037.466	-169.47
1037.631	92.67
1037.795	608.76
1037.96	414.2
1038.124	217.6
1038.289	-183.81
1038.454	465.4
1038.618	358.91
1038.783	84.48
1038.947	88.57
1039.111	346.62
1039.276	268.8
1039.44	-124.41
1039.605	442.87
1039.769	240.12
1039.933	303.61
1040.098	-79.36
1040.262	162.3
1040.426	551.42
1040.591	471.54
1040.755	-146.94
1040.919	-71.17
1041.083	408.06
1041.248	322.04
1041.412	-245.24
1041.576	-146.94
1041.74	399.87
1041.904	494.07
1042.068	-144.89
1042.232	31.23
1042.397	610.81
1042.561	440.83
1042.725	-386.55
1042.889	164.35
1043.053	422.39
1043.217	498.17
1043.381	31.23
1043.544	-212.48
1043.708	590.33
1043.872	59.9
1044.036	-361.98
1044.2	-83.45
1044.364	645.62
1044.528	680.44
1044.691	3297.74
1044.855	-157.18
1045.019	567.8
1045.183	483.83
1045.346	-17.92
1045.51	-105.98
1045.674	424.44
1045.837	418.3
1046.001	-75.26
1046.165	-67.07
1046.328	874.99
1046.492	569.85
1046.655	55.81
1046.819	43.52
1046.983	240.12
1047.146	406.01
1047.31	-15.87
1047.473	-235
1047.636	342.52
1047.8	96.77
1047.963	-5.63
1048.127	-148.99
1048.29	176.64
