Data from Ink_Intensity_USB4F045381__163__00163.txt Node

Date: Mon Jul 17 11:34:41 EDT 2023
User: mmckonesweet
Spectrometer: USB4F04538
Trigger mode: 4
Integration Time (sec): 9.000000E-1
Scans to average: 1
Electric dark correction enabled: true
Nonlinearity correction enabled: false
Boxcar width: 0
XAxis mode: Wavelengths
Number of Pixels in Spectrum: 3648
>>>>>Begin Spectral Data<<<<<
345.52	-1100.1
345.736	-1100.1
345.952	-1100.1
346.168	-985.41
346.384	-1040.71
346.6	-104.79
346.816	-262.48
347.032	-133.46
347.248	300.71
347.464	-233.81
347.68	-106.84
347.896	147.11
348.112	429.73
348.328	-67.92
348.544	-125.27
348.76	1.71
348.975	155.3
349.191	-309.58
349.407	-201.04
349.623	13.99
349.839	-248.15
350.055	-121.17
350.27	-2.39
350.486	196.26
350.702	286.37
350.918	153.26
351.133	-256.34
351.349	-31.06
351.565	390.82
351.781	-289.1
351.996	-22.87
352.212	233.13
352.428	-108.88
352.644	-270.67
352.859	-285.01
353.075	286.37
353.291	46.76
353.506	-188.75
353.722	-272.72
353.938	-76.12
354.153	368.29
354.369	40.62
354.584	-203.09
354.8	149.16
355.016	-346.45
355.231	-219.47
355.447	-174.42
355.662	54.95
355.878	824.99
356.093	-377.17
356.309	-117.08
356.524	-254.29
356.74	198.31
356.955	-225.62
357.171	-88.4
357.386	104.11
357.602	-299.34
357.817	-104.79
358.033	-166.23
358.248	349.86
358.464	132.78
358.679	-184.66
358.895	-272.72
359.11	-14.68
359.325	290.47
359.541	-63.83
359.756	-57.68
359.972	-223.57
360.187	173.74
360.402	-219.47
360.618	-215.38
360.833	919.2
361.048	114.34
361.264	-178.51
361.479	-104.79
361.694	-10.58
361.909	206.5
362.125	-203.09
362.34	-135.51
362.555	265.89
362.77	83.63
362.986	-381.26
363.201	-174.42
363.416	147.11
363.631	-59.73
363.847	-170.32
364.062	-205.14
364.277	130.73
364.492	87.72
364.707	-168.27
364.922	-387.41
365.138	288.42
365.353	286.37
365.568	-268.63
365.783	-147.8
365.998	85.67
366.213	501.41
366.428	-407.89
366.643	-0.34
366.858	206.5
367.073	130.73
367.288	-133.46
367.503	-338.26
367.718	65.19
367.933	319.14
368.148	-325.97
368.363	-108.88
368.578	-16.73
368.793	399.01
369.008	-164.18
369.223	-309.58
369.438	120.49
369.653	448.16
369.868	-280.91
370.083	-256.34
370.298	128.68
370.513	386.72
370.728	-16.73
370.943	-223.57
371.157	-227.67
371.372	583.33
371.587	-305.49
371.802	-362.83
372.017	-14.68
372.232	415.4
372.446	-29.01
372.661	-289.1
372.876	145.06
373.091	122.54
373.306	-106.84
373.52	-239.95
373.735	-211.28
373.95	388.77
374.165	-178.51
374.379	-112.98
374.594	-133.46
374.809	186.02
375.023	-6.49
375.238	-291.15
375.453	134.82
375.667	-250.19
375.882	-194.9
376.097	-244.05
376.311	69.29
376.526	-39.25
376.741	-260.43
376.955	112.3
377.17	568.99
377.384	638.62
377.599	-112.98
377.813	-387.41
378.028	513.7
378.242	192.17
378.457	-117.08
378.672	-377.17
378.886	-4.44
379.101	-41.3
379.315	-381.26
379.53	-196.95
379.744	206.5
379.958	177.83
380.173	-207.19
380.387	-252.24
380.602	181.93
380.816	-135.51
381.031	-266.58
381.245	-213.33
381.459	165.54
381.674	2688.64
381.888	-280.91
382.103	91.82
382.317	-278.87
382.531	333.48
382.746	-147.8
382.96	-211.28
383.174	-108.88
383.388	446.12
383.603	32.43
383.817	-325.97
384.031	83.63
384.246	376.48
384.46	-115.03
384.674	245.41
384.888	-51.54
385.103	67.24
385.317	-325.97
385.531	-61.78
385.745	405.16
385.959	186.02
386.174	-233.81
386.388	-285.01
386.602	-65.88
386.816	-180.56
387.03	-145.75
387.244	-115.03
387.458	1.71
387.672	253.61
387.887	-346.45
388.101	-375.12
388.315	345.77
388.529	140.97
388.743	-61.78
388.957	-246.1
389.171	251.56
389.385	-291.15
389.599	-198.99
389.813	87.72
390.027	91.82
390.241	530.08
390.455	-133.46
390.669	-147.8
390.883	-131.41
391.097	401.06
391.311	-80.21
391.525	-260.43
391.738	163.5
391.952	163.5
392.166	-67.92
392.38	-287.06
392.594	167.59
392.808	333.48
393.022	-125.27
393.236	-184.66
393.449	34.47
393.663	140.97
393.877	-305.49
394.091	-149.84
394.305	-0.34
394.518	-158.03
394.732	-297.3
394.946	-137.56
395.16	394.92
395.373	42.67
395.587	-293.2
395.801	-272.72
396.015	333.48
396.228	91.82
396.442	-350.54
396.656	-399.7
396.869	333.48
397.083	462.5
397.297	-121.17
397.51	-174.42
397.724	368.29
397.938	91.82
398.151	-295.25
398.365	-246.1
398.578	128.68
398.792	292.52
399.005	-135.51
399.219	-264.53
399.433	145.06
399.646	194.22
399.86	-51.54
400.073	9.9
400.287	243.37
400.5	-90.45
400.714	-127.32
400.927	-133.46
401.141	210.6
401.354	1099.42
401.567	145.06
401.781	-311.63
401.994	263.85
402.208	607.91
402.421	-184.66
402.635	-235.86
402.848	-4.44
403.061	267.94
403.275	-67.92
403.488	-260.43
403.701	454.31
403.915	255.65
404.128	-6.49
404.341	-237.91
404.555	83.63
404.768	-26.96
404.981	9.9
405.195	-239.95
405.408	472.74
405.621	163.5
405.834	-24.92
406.048	-264.53
406.261	362.15
406.474	509.6
406.687	-178.51
406.9	-47.44
407.114	50.86
407.327	167.59
407.54	-338.26
407.753	-334.16
407.966	-246.1
408.179	145.06
408.392	-231.76
408.605	-401.74
408.819	169.64
409.032	226.98
409.245	-205.14
409.458	38.57
409.671	239.27
409.884	339.62
410.097	-244.05
410.31	-49.49
410.523	169.64
410.736	-49.49
410.949	-133.46
411.162	-207.19
411.375	382.63
411.588	251.56
411.801	32.43
412.014	-274.77
412.227	-14.68
412.44	-78.16
412.653	-182.61
412.865	-104.79
413.078	237.22
413.291	116.39
413.504	-178.51
413.717	-239.95
413.93	272.04
414.143	-252.24
414.356	-201.04
414.568	-379.22
414.781	210.6
414.994	63.15
415.207	-158.03
415.42	-80.21
415.632	265.89
415.845	505.51
416.058	-293.2
416.271	-289.1
416.483	18.09
416.696	509.6
416.909	-242
417.121	-239.95
417.334	112.3
417.547	470.69
417.759	-209.23
417.972	-250.19
418.185	-74.07
418.397	226.98
418.61	-170.32
418.823	-237.91
419.035	364.2
419.248	50.86
419.46	-170.32
419.673	-131.41
419.885	194.22
420.098	-117.08
420.311	-180.56
420.523	-473.42
420.736	202.41
420.948	-18.77
421.161	-186.71
421.373	-407.89
421.586	20.14
421.798	-162.13
422.01	-328.02
422.223	-121.17
422.435	-63.83
422.648	212.65
422.86	-246.1
423.073	-207.19
423.285	274.09
423.497	-239.95
423.71	-313.68
423.922	-260.43
424.134	104.11
424.347	405.16
424.559	-35.16
424.771	159.4
424.984	-33.11
425.196	149.16
425.408	-440.65
425.621	-393.55
425.833	241.32
426.045	284.33
426.257	-278.87
426.47	-153.94
426.682	87.72
426.894	110.25
427.106	-252.24
427.318	-190.8
427.531	-186.71
427.743	179.88
427.955	-201.04
428.167	220.84
428.379	134.82
428.591	-76.12
428.804	-80.21
429.016	-272.72
429.228	-82.26
429.44	145.06
429.652	-117.08
429.864	-328.02
430.076	-2.39
430.288	-10.58
430.5	-170.32
430.712	-125.27
430.924	269.99
431.136	52.91
431.348	-354.64
431.56	-270.67
431.772	-74.07
431.984	-166.23
432.196	-285.01
432.408	-215.38
432.62	-22.87
432.832	108.2
433.044	38.57
433.256	-139.6
433.468	177.83
433.679	-325.97
433.891	-293.2
434.103	-63.83
434.315	390.82
434.527	194.22
434.739	-69.97
434.95	-211.28
435.162	251.56
435.374	-51.54
435.586	-158.03
435.798	-184.66
436.009	-260.43
436.221	-67.92
436.433	-246.1
436.645	-102.74
436.856	-92.5
437.068	243.37
437.28	-358.74
437.491	-4.44
437.703	100.01
437.915	81.58
438.126	-158.03
438.338	57
438.55	50.86
438.761	159.4
438.973	-178.51
439.184	-252.24
439.396	63.15
439.608	202.41
439.819	-225.62
440.031	-143.7
440.242	177.83
440.454	173.74
440.665	-211.28
440.877	-117.08
441.088	138.92
441.3	-55.64
441.511	-334.16
441.723	-268.63
441.934	130.73
442.146	22.19
442.357	1.71
442.569	42.67
442.78	-8.53
442.991	370.34
443.203	24.23
443.414	-332.11
443.626	310.95
443.837	-151.89
444.048	-287.06
444.26	-293.2
444.471	32.43
444.682	226.98
444.894	-325.97
445.105	-356.69
445.316	231.08
445.528	155.3
445.739	-102.74
445.95	-252.24
446.161	46.76
446.373	313
446.584	-151.89
446.795	-250.19
447.006	159.4
447.217	378.53
447.429	-385.36
447.64	-373.07
447.851	333.48
448.062	57
448.273	-373.07
448.484	-334.16
448.695	97.96
448.907	-90.45
449.118	-104.79
449.329	11.95
449.54	-106.84
449.751	-239.95
449.962	-207.19
450.173	-168.27
450.384	257.7
450.595	313
450.806	-289.1
451.017	-172.37
451.228	263.85
451.439	218.79
451.65	-207.19
451.861	-489.81
452.072	-198.99
452.283	-59.73
452.494	61.1
452.705	-291.15
452.915	399.01
453.126	104.11
453.337	-182.61
453.548	-231.76
453.759	218.79
453.97	515.75
454.181	1.71
454.391	-207.19
454.602	48.81
454.813	186.02
455.024	-190.8
455.235	-151.89
455.445	138.92
455.656	165.54
455.867	-24.92
456.078	-211.28
456.288	-80.21
456.499	108.2
456.71	-332.11
456.921	52.91
457.131	112.3
457.342	81.58
457.553	-158.03
457.763	-213.33
457.974	186.02
458.184	181.93
458.395	-315.73
458.606	-371.02
458.816	341.67
459.027	462.5
459.237	-72.02
459.448	-418.13
459.659	286.37
459.869	562.85
460.08	-420.17
460.29	-186.71
460.501	362.15
460.711	-112.98
460.922	-389.46
461.132	-254.29
461.343	710.3
461.553	-336.21
461.764	-301.39
461.974	-221.52
462.184	216.74
462.395	73.39
462.605	-137.56
462.816	-299.34
463.026	102.06
463.236	224.94
463.447	-328.02
463.657	-287.06
463.867	296.61
464.078	-92.5
464.288	-184.66
464.498	-289.1
464.709	63.15
464.919	-14.68
465.129	-174.42
465.339	-371.02
465.55	118.44
465.76	155.3
465.97	-155.99
466.18	-264.53
466.391	239.27
466.601	106.15
466.811	-256.34
467.021	-317.78
467.231	71.34
467.441	335.53
467.651	-151.89
467.862	-493.9
468.072	-59.73
468.282	370.34
468.492	-325.97
468.702	-196.95
468.912	-20.82
469.122	560.8
469.332	145.06
469.542	-190.8
469.752	183.98
469.962	22.19
470.172	-397.65
470.382	-354.64
470.592	153.26
470.802	212.65
471.012	-80.21
471.222	-371.02
471.432	171.69
471.642	147.11
471.852	-184.66
472.062	-366.93
472.272	-49.49
472.482	-235.86
472.691	-350.54
472.901	-379.22
473.111	36.52
473.321	554.66
473.531	-393.55
473.741	-135.51
473.95	161.45
474.16	231.08
474.37	-182.61
474.58	-405.84
474.79	442.02
474.999	173.74
475.209	-293.2
475.419	-319.82
475.628	-51.54
475.838	327.33
476.048	-180.56
476.258	-379.22
476.467	251.56
476.677	-184.66
476.886	-63.83
477.096	-166.23
477.306	-188.75
477.515	259.75
477.725	-115.03
477.935	-194.9
478.144	421.54
478.354	-180.56
478.563	-131.41
478.773	-332.11
478.982	194.22
479.192	339.62
479.401	-141.65
479.611	-358.74
479.82	-182.61
480.03	54.95
480.239	-260.43
480.449	-319.82
480.658	380.58
480.868	-129.36
481.077	-170.32
481.287	-254.29
481.496	110.25
481.705	405.16
481.915	-35.16
482.124	26.28
482.333	95.91
482.543	337.57
482.752	-190.8
482.961	-305.49
483.171	212.65
483.38	5.8
483.589	-166.23
483.799	-303.44
484.008	-119.12
484.217	163.5
484.426	-211.28
484.636	-348.5
484.845	97.96
485.054	-332.11
485.263	69.29
485.472	-256.34
485.682	403.11
485.891	71.34
486.1	-334.16
486.309	-287.06
486.518	112.3
486.727	325.29
486.936	-301.39
487.146	-149.84
487.355	315.05
487.564	-106.84
487.773	-180.56
487.982	-239.95
488.191	-137.56
488.4	-12.63
488.609	-297.3
488.818	-231.76
489.027	587.43
489.236	308.9
489.445	-221.52
489.654	-338.26
489.863	222.89
490.072	-0.34
490.281	81.58
490.49	-254.29
490.698	417.44
490.907	407.2
491.116	-231.76
491.325	-391.5
491.534	413.35
491.743	67.24
491.952	-160.08
492.16	-180.56
492.369	173.74
492.578	231.08
492.787	-155.99
492.996	-387.41
493.204	-180.56
493.413	439.97
493.622	-504.14
493.831	-405.84
494.039	358.05
494.248	-223.57
494.457	-289.1
494.665	-457.04
494.874	116.39
495.083	427.68
495.291	-168.27
495.5	-385.36
495.709	290.47
495.917	95.91
496.126	-213.33
496.335	-346.45
496.543	-6.49
496.752	83.63
496.96	32.43
497.169	-454.99
497.377	18.09
497.586	276.13
497.794	-211.28
498.003	-493.9
498.211	-24.92
498.42	325.29
498.628	-201.04
498.837	-414.03
499.045	95.91
499.254	95.91
499.462	-336.21
499.671	-321.87
499.879	358.05
500.087	159.4
500.296	-313.68
500.504	-158.03
500.713	50.86
500.921	536.23
501.129	-325.97
501.338	-239.95
501.546	30.38
501.754	63.15
501.962	-272.72
502.171	-342.35
502.379	161.45
502.587	351.91
502.795	-223.57
503.004	-280.91
503.212	18.09
503.42	202.41
503.628	-235.86
503.837	-242
504.045	120.49
504.253	382.63
504.461	-299.34
504.669	-348.5
504.877	179.88
505.085	349.86
505.294	-407.89
505.502	-57.68
505.71	63.15
505.918	267.94
506.126	-231.76
506.334	-346.45
506.542	-0.34
506.75	81.58
506.958	-141.65
507.166	-178.51
507.374	-51.54
507.582	403.11
507.79	-121.17
507.998	-356.69
508.206	188.07
508.414	71.34
508.622	-280.91
508.83	-262.48
509.037	362.15
509.245	-41.3
509.453	-285.01
509.661	-336.21
509.869	179.88
510.077	-80.21
510.285	-198.99
510.492	-547.15
510.7	607.91
510.908	-61.78
511.116	-297.3
511.324	-293.2
511.531	-80.21
511.739	61.1
511.947	-35.16
512.155	16.04
512.362	198.31
512.57	-239.95
512.778	-321.87
512.985	-477.52
513.193	202.41
513.401	448.16
513.608	-207.19
513.816	-297.3
514.024	110.25
514.231	247.46
514.439	-295.25
514.646	-244.05
514.854	136.87
515.061	263.85
515.269	-295.25
515.477	-321.87
515.684	-252.24
515.892	237.22
516.099	-373.07
516.307	-432.46
516.514	175.78
516.722	306.85
516.929	-256.34
517.136	-375.12
517.344	419.49
517.551	87.72
517.759	-362.83
517.966	-176.47
518.173	-45.4
518.381	-35.16
518.588	-231.76
518.796	-362.83
519.003	249.51
519.21	-18.77
519.418	-274.77
519.625	-43.35
519.832	9.9
520.039	95.91
520.247	-450.89
520.454	-334.16
520.661	202.41
520.868	91.82
521.076	-252.24
521.283	-219.47
521.49	612
521.697	161.45
521.904	-256.34
522.112	-272.72
522.319	132.78
522.526	128.68
522.733	-330.06
522.94	-330.06
523.147	-39.25
523.354	233.13
523.561	-307.54
523.768	-180.56
523.975	259.75
524.183	93.87
524.39	-252.24
524.597	-379.22
524.804	136.87
525.011	-172.37
525.218	-344.4
525.425	-221.52
525.632	413.35
525.838	-217.43
526.045	-311.63
526.252	-348.5
526.459	1048.22
526.666	786.08
526.873	-321.87
527.08	-336.21
527.287	362.15
527.494	165.54
527.701	-348.5
527.907	-305.49
528.114	177.83
528.321	-22.87
528.528	-270.67
528.735	-258.39
528.941	-47.44
529.148	-162.13
529.355	-194.9
529.562	-430.41
529.768	362.15
529.975	-78.16
530.182	-278.87
530.388	-215.38
530.595	286.37
530.802	-221.52
531.008	-72.02
531.215	-229.71
531.422	417.44
531.628	693.92
531.835	-131.41
532.042	-164.18
532.248	-139.6
532.455	32.43
532.661	-172.37
532.868	-303.44
533.074	85.67
533.281	325.29
533.487	-145.75
533.694	-295.25
533.9	-262.48
534.107	145.06
534.313	-354.64
534.52	-364.88
534.726	169.64
534.933	386.72
535.139	-330.06
535.345	-418.13
535.552	73.39
535.758	-6.49
535.965	-276.82
536.171	-330.06
536.377	161.45
536.584	470.69
536.79	-276.82
536.996	-170.32
537.203	122.54
537.409	206.5
537.615	-205.14
537.821	-194.9
538.028	104.11
538.234	159.4
538.44	-248.15
538.646	-287.06
538.853	173.74
539.059	-33.11
539.265	163.5
539.471	-481.61
539.677	255.65
539.883	-47.44
540.09	-346.45
540.296	130.73
540.502	-51.54
540.708	-115.03
540.914	-63.83
541.12	-237.91
541.326	206.5
541.532	32.43
541.738	-221.52
541.944	-178.51
542.15	276.13
542.356	-26.96
542.562	-358.74
542.768	-239.95
542.974	583.33
543.18	620.19
543.386	-266.58
543.592	-459.09
543.798	401.06
544.004	267.94
544.21	-297.3
544.415	-174.42
544.621	134.82
544.827	274.09
545.033	-309.58
545.239	-63.83
545.445	-250.19
545.651	202.41
545.856	-309.58
546.062	-301.39
546.268	-104.79
546.474	26.28
546.679	-274.77
546.885	-166.23
547.091	-94.55
547.297	505.51
547.502	-211.28
547.708	-385.36
547.914	-176.47
548.119	169.64
548.325	-401.74
548.531	-305.49
548.736	337.57
548.942	-100.69
549.147	-264.53
549.353	-67.92
549.559	343.72
549.764	153.26
549.97	-276.82
550.175	-168.27
550.381	243.37
550.586	-82.26
550.792	-221.52
550.997	-323.92
551.203	243.37
551.408	231.08
551.614	-336.21
551.819	-239.95
552.025	411.3
552.23	595.62
552.435	-368.98
552.641	-82.26
552.846	-133.46
553.052	313
553.257	-80.21
553.462	-252.24
553.668	-192.85
553.873	292.52
554.078	-397.65
554.283	-340.3
554.489	167.59
554.694	9.9
554.899	-293.2
555.105	-55.64
555.31	194.22
555.515	206.5
555.72	-162.13
555.925	-309.58
556.131	224.94
556.336	63.15
556.541	-313.68
556.746	-420.17
556.951	349.86
557.156	362.15
557.361	-149.84
557.567	-82.26
557.772	525.99
557.977	226.98
558.182	-301.39
558.387	-264.53
558.592	-121.17
558.797	302.76
559.002	-166.23
559.207	-160.08
559.412	-2.39
559.617	591.52
559.822	-256.34
560.027	-323.92
560.232	106.15
560.437	304.81
560.642	-442.7
560.847	-401.74
561.051	59.05
561.256	65.19
561.461	-207.19
561.666	-389.46
561.871	38.57
562.076	218.79
562.281	-205.14
562.485	-350.54
562.69	280.23
562.895	349.86
563.1	-221.52
563.305	-305.49
563.509	384.68
563.714	534.18
563.919	-256.34
564.123	-328.02
564.328	83.63
564.533	374.44
564.737	-155.99
564.942	-227.67
565.147	380.58
565.351	562.85
565.556	-98.64
565.761	-133.46
565.965	151.21
566.17	-133.46
566.374	-207.19
566.579	-338.26
566.784	163.5
566.988	-55.64
567.193	-399.7
567.397	-272.72
567.602	-235.86
567.806	89.77
568.011	-233.81
568.215	-207.19
568.42	71.34
568.624	-26.96
568.828	-227.67
569.033	-26.96
569.237	243.37
569.442	257.7
569.646	-350.54
569.85	-248.15
570.055	7.85
570.259	95.91
570.463	-26.96
570.668	-170.32
570.872	97.96
571.076	57
571.281	-125.27
571.485	-92.5
571.689	149.16
571.893	255.65
572.098	-106.84
572.302	-254.29
572.506	155.3
572.71	50.86
572.914	-235.86
573.119	-223.57
573.323	382.63
573.527	423.59
573.731	-127.32
573.935	-223.57
574.139	122.54
574.343	-84.31
574.547	-221.52
574.751	-207.19
574.955	431.78
575.159	403.11
575.364	-274.77
575.568	-303.44
575.772	130.73
575.976	415.4
576.18	-244.05
576.383	-362.83
576.587	333.48
576.791	97.96
576.995	-407.89
577.199	-506.19
577.403	337.57
577.607	302.76
577.811	-346.45
578.015	-96.6
578.219	130.73
578.422	300.71
578.626	-174.42
578.83	-59.73
579.034	329.38
579.238	13.99
579.442	-272.72
579.645	143.02
579.849	24.23
580.053	145.06
580.257	-151.89
580.46	-207.19
580.664	284.33
580.868	237.22
581.071	-29.01
581.275	-158.03
581.479	-272.72
581.682	265.89
581.886	-270.67
582.09	-151.89
582.293	304.81
582.497	333.48
582.7	18.09
582.904	-203.09
583.107	40.62
583.311	42.67
583.515	-104.79
583.718	-104.79
583.922	200.36
584.125	513.7
584.329	-252.24
584.532	-92.5
584.735	415.4
584.939	177.83
585.142	-254.29
585.346	-270.67
585.549	122.54
585.753	13.99
585.956	-135.51
586.159	-125.27
586.363	478.88
586.566	220.84
586.769	-278.87
586.973	-280.91
587.176	161.45
587.379	382.63
587.582	149.16
587.786	63.15
587.989	75.43
588.192	612
588.395	-112.98
588.599	124.58
588.802	169.64
589.005	237.22
589.208	-209.23
589.411	-188.75
589.615	456.36
589.818	505.51
590.021	9.9
590.224	-2.39
590.427	298.66
590.63	251.56
590.833	-354.64
591.036	-190.8
591.239	9.9
591.442	-14.68
591.645	52.91
591.848	-223.57
592.051	226.98
592.254	382.63
592.457	-121.17
592.66	-92.5
592.863	54.95
593.066	257.7
593.269	-112.98
593.472	5.8
593.675	-137.56
593.878	323.24
594.081	-69.97
594.284	-188.75
594.486	339.62
594.689	63.15
594.892	-72.02
595.095	-88.4
595.298	321.19
595.5	-65.88
595.703	-49.49
595.906	30.38
596.109	523.94
596.311	403.11
596.514	-418.13
596.717	7.85
596.92	450.21
597.122	194.22
597.325	-409.94
597.528	-160.08
597.73	466.6
597.933	186.02
598.136	-178.51
598.338	-379.22
598.541	276.13
598.743	444.07
598.946	-106.84
599.148	-149.84
599.351	415.4
599.554	353.96
599.756	-35.16
599.959	-100.69
600.161	415.4
600.363	761.5
600.566	95.91
600.768	-158.03
600.971	550.56
601.173	263.85
601.376	-106.84
601.578	-121.17
601.78	280.23
601.983	708.26
602.185	-153.94
602.388	116.39
602.59	214.7
602.792	63.15
602.995	91.82
603.197	-164.18
603.399	442.02
603.601	261.8
603.804	-80.21
604.006	-100.69
604.208	104.11
604.41	-223.57
604.613	104.11
604.815	-164.18
605.017	657.06
605.219	-35.16
605.421	237.22
605.623	-172.37
605.826	499.36
606.028	546.47
606.23	-155.99
606.432	-67.92
606.634	700.06
606.836	464.55
607.038	-272.72
607.24	-26.96
607.442	175.78
607.644	202.41
607.846	1.71
608.048	-174.42
608.25	548.51
608.452	18.09
608.654	-10.58
608.856	-272.72
609.058	77.48
609.26	321.19
609.462	-20.82
609.664	-10.58
609.866	685.73
610.067	403.11
610.269	100.01
610.471	-39.25
610.673	188.07
610.875	392.87
611.077	-237.91
611.278	48.81
611.48	302.76
611.682	626.34
611.884	7.85
612.085	-26.96
612.287	-49.49
612.489	386.72
612.69	-297.3
612.892	11.95
613.094	433.83
613.295	259.75
613.497	-112.98
613.699	-0.34
613.9	593.57
614.102	444.07
614.304	-14.68
614.505	-205.14
614.707	132.78
614.908	206.5
615.11	-215.38
615.311	32.43
615.513	429.73
615.714	292.52
615.916	-186.71
616.117	-67.92
616.319	210.6
616.52	429.73
616.722	-137.56
616.923	-94.55
617.124	534.18
617.326	362.15
617.527	138.92
617.729	169.64
617.93	388.77
618.131	423.59
618.333	-49.49
618.534	-35.16
618.735	126.63
618.937	579.23
619.138	-104.79
619.339	-74.07
619.54	411.3
619.742	128.68
619.943	102.06
620.144	40.62
620.345	423.59
620.546	448.16
620.748	-135.51
620.949	-90.45
621.15	226.98
621.351	401.06
621.552	-37.2
621.753	-172.37
621.954	-123.22
622.155	781.98
622.356	1.71
622.558	214.7
622.759	194.22
622.96	603.81
623.161	67.24
623.362	-35.16
623.563	278.18
623.764	288.42
623.965	-29.01
624.166	112.3
624.366	200.36
624.567	325.29
624.768	-346.45
624.969	-37.2
625.17	198.31
625.371	345.77
625.572	44.71
625.773	-80.21
625.973	485.03
626.174	403.11
626.375	-33.11
626.576	104.11
626.777	351.91
626.977	767.65
627.178	-10.58
627.379	34.47
627.58	183.98
627.78	290.47
627.981	145.06
628.182	151.21
628.382	595.62
628.583	-29.01
628.784	-117.08
628.984	116.39
629.185	456.36
629.386	448.16
629.586	36.52
629.787	-108.88
629.987	433.83
630.188	280.23
630.388	87.72
630.589	81.58
630.79	851.61
630.99	372.39
631.191	120.49
631.391	169.64
631.591	448.16
631.792	753.31
631.992	138.92
632.193	13.99
632.393	718.5
632.594	282.28
632.794	-26.96
632.994	212.65
633.195	323.24
633.395	343.72
633.595	7.85
633.796	212.65
633.996	110.25
634.196	632.48
634.397	-133.46
634.597	145.06
634.797	122.54
634.997	773.79
635.198	267.94
635.398	-14.68
635.598	437.92
635.798	673.44
635.998	521.89
636.199	48.81
636.399	194.22
636.599	153.26
636.799	97.96
636.999	325.29
637.199	554.66
637.399	607.91
637.599	-0.34
637.799	272.04
637.999	255.65
638.199	693.92
638.399	-59.73
638.599	120.49
638.799	417.44
638.999	800.41
639.199	216.74
639.399	204.46
639.599	710.3
639.799	138.92
639.999	3.75
640.199	-26.96
640.399	427.68
640.599	423.59
640.799	222.89
640.998	280.23
641.198	612
641.398	431.78
641.598	241.32
641.798	186.02
641.997	1230.49
642.197	269.99
642.397	323.24
642.597	102.06
642.796	519.84
642.996	585.38
643.196	218.79
643.395	24.23
643.595	575.14
643.795	-55.64
643.994	226.98
644.194	218.79
644.394	515.75
644.593	460.45
644.793	-55.64
644.992	321.19
645.192	517.79
645.392	57
645.591	269.99
645.791	186.02
645.99	532.13
646.19	349.86
646.389	159.4
646.589	190.12
646.788	579.23
646.987	577.19
647.187	370.34
647.386	382.63
647.586	366.25
647.785	571.04
647.984	179.88
648.184	243.37
648.383	411.3
648.582	267.94
648.782	181.93
648.981	284.33
649.18	272.04
649.38	439.97
649.579	149.16
649.778	42.67
649.977	528.03
650.177	534.18
650.376	149.16
650.575	136.87
650.774	788.13
650.973	247.46
651.173	73.39
651.372	126.63
651.571	429.73
651.77	640.67
651.969	155.3
652.168	247.46
652.367	151.21
652.566	485.03
652.765	134.82
652.964	472.74
653.163	978.59
653.362	374.44
653.561	161.45
653.76	280.23
653.959	339.62
654.158	544.42
654.357	411.3
654.556	208.55
654.755	634.53
654.954	599.71
655.153	231.08
655.352	300.71
655.551	743.07
655.749	296.61
655.948	272.04
656.147	304.81
656.346	487.08
656.545	308.9
656.743	409.25
656.942	196.26
657.141	521.89
657.34	308.9
657.538	216.74
657.737	237.22
657.936	401.06
658.135	482.98
658.333	272.04
658.532	360.1
658.731	951.96
658.929	644.77
659.128	618.15
659.326	157.35
659.525	788.13
659.724	482.98
659.922	9.9
660.121	81.58
660.319	548.51
660.518	349.86
660.716	149.16
660.915	67.24
661.113	738.98
661.312	222.89
661.51	335.53
661.709	138.92
661.907	683.68
662.105	865.95
662.304	245.41
662.502	288.42
662.701	759.46
662.899	327.33
663.097	618.15
663.296	124.58
663.494	759.46
663.692	880.29
663.891	243.37
664.089	190.12
664.287	595.62
664.485	827.04
664.684	171.69
664.882	505.51
665.08	538.27
665.278	548.51
665.476	112.3
665.675	534.18
665.873	1107.61
666.071	853.66
666.269	296.61
666.467	476.84
666.665	521.89
666.863	517.79
667.061	444.07
667.259	321.19
667.457	482.98
667.655	673.44
667.853	118.44
668.051	442.02
668.249	380.58
668.447	530.08
668.645	261.8
668.843	435.88
669.041	695.97
669.239	382.63
669.437	456.36
669.635	341.67
669.833	452.26
670.031	728.74
670.229	489.12
670.426	427.68
670.624	444.07
670.822	376.48
671.02	315.05
671.218	399.01
671.415	251.56
671.613	530.08
671.811	575.14
672.009	419.49
672.206	710.3
672.404	605.86
672.602	626.34
672.799	505.51
672.997	712.35
673.195	800.41
673.392	435.88
673.59	200.36
673.788	724.64
673.985	210.6
674.183	378.53
674.38	286.37
674.578	804.51
674.775	480.93
674.973	243.37
675.17	331.43
675.368	941.72
675.565	663.2
675.763	290.47
675.96	300.71
676.158	865.95
676.355	495.27
676.553	327.33
676.75	413.35
676.947	702.11
677.145	579.23
677.342	462.5
677.539	566.95
677.737	710.3
677.934	1148.57
678.131	581.28
678.329	306.85
678.526	1031.83
678.723	759.46
678.92	540.32
679.118	427.68
679.315	310.95
679.512	919.2
679.709	439.97
679.906	474.79
680.104	898.72
680.301	693.92
680.498	390.82
680.695	286.37
680.892	568.99
681.089	446.12
681.286	493.22
681.483	261.8
681.68	685.73
681.877	786.08
682.075	460.45
682.272	679.58
682.469	644.77
682.665	603.81
682.862	341.67
683.059	202.41
683.256	706.21
683.453	671.39
683.65	497.32
683.847	468.64
684.044	642.72
684.241	458.4
684.438	538.27
684.635	308.9
684.831	1140.38
685.028	1070.75
685.225	384.68
685.422	585.38
685.619	607.91
685.815	685.73
686.012	571.04
686.209	632.48
686.405	437.92
686.602	870.05
686.799	290.47
686.996	333.48
687.192	448.16
687.389	1185.43
687.586	411.3
687.782	497.32
687.979	1035.93
688.175	861.85
688.372	507.55
688.568	417.44
688.765	677.54
688.962	949.92
689.158	583.33
689.355	292.52
689.551	792.22
689.748	554.66
689.944	521.89
690.14	329.38
690.337	843.42
690.533	464.55
690.73	673.44
690.926	521.89
691.123	693.92
691.319	726.69
691.515	384.68
691.712	642.72
691.908	820.89
692.104	769.69
692.301	554.66
692.497	390.82
692.693	917.15
692.889	966.3
693.086	655.01
693.282	276.13
693.478	745.12
693.674	1117.85
693.87	503.46
694.067	358.05
694.263	818.85
694.459	661.15
694.655	714.4
694.851	628.39
695.047	939.68
695.243	933.53
695.439	734.88
695.635	448.16
695.831	865.95
696.027	753.31
696.224	530.08
696.42	865.95
696.615	1123.99
696.811	894.62
697.007	353.96
697.203	505.51
697.399	784.03
697.595	1058.46
697.791	495.27
697.987	657.06
698.183	497.32
698.379	538.27
698.575	646.82
698.77	657.06
698.966	972.44
699.162	927.39
699.358	595.62
699.554	687.78
699.749	949.92
699.945	972.44
700.141	714.4
700.337	552.61
700.532	749.22
700.728	673.44
700.924	472.74
701.119	439.97
701.315	1001.12
701.511	779.93
701.706	657.06
701.902	261.8
702.097	726.69
702.293	935.58
702.489	562.85
702.684	554.66
702.88	796.32
703.075	763.55
703.271	579.23
703.466	413.35
703.662	777.89
703.857	890.53
704.053	544.42
704.248	650.91
704.443	974.49
704.639	1011.36
704.834	558.75
705.03	571.04
705.225	892.57
705.42	1062.55
705.616	673.44
705.811	423.59
706.006	661.15
706.202	689.82
706.397	663.2
706.592	587.43
706.787	898.72
706.983	802.46
707.178	853.66
707.373	712.35
707.568	1031.83
707.763	1070.75
707.959	521.89
708.154	542.37
708.349	921.24
708.544	947.87
708.739	908.96
708.934	523.94
709.129	1070.75
709.324	1175.19
709.519	548.51
709.714	419.49
709.909	1121.95
710.104	906.91
710.299	747.17
710.494	706.21
710.689	1132.19
710.884	851.61
711.079	738.98
711.274	779.93
711.469	984.73
711.664	954.01
711.859	616.1
712.054	720.54
712.249	1060.51
712.443	1136.28
712.638	515.75
712.833	599.71
713.028	904.86
713.223	837.28
713.417	857.76
713.612	638.62
713.807	1119.9
714.002	1488.53
714.196	847.52
714.391	583.33
714.586	1093.27
714.78	790.17
714.975	544.42
715.17	675.49
715.364	833.18
715.559	1121.95
715.754	364.2
715.948	630.43
716.143	1402.52
716.337	978.59
716.532	984.73
716.726	661.15
716.921	1181.34
717.115	1265.3
717.31	530.08
717.504	1111.71
717.699	779.93
717.893	984.73
718.088	552.61
718.282	558.75
718.476	972.44
718.671	1046.17
718.865	575.14
719.059	607.91
719.254	929.44
719.448	1250.97
719.642	2037.39
719.837	456.36
720.031	1042.07
720.225	1244.82
720.419	792.22
720.614	665.25
720.808	1119.9
721.002	792.22
721.196	499.36
721.39	636.58
721.585	1283.74
721.779	1101.47
721.973	763.55
722.167	552.61
722.361	988.83
722.555	1207.96
722.749	790.17
722.943	718.5
723.137	607.91
723.331	941.72
723.525	663.2
723.719	685.73
723.913	1072.79
724.107	1244.82
724.301	657.06
724.495	759.46
724.689	1316.5
724.883	1287.83
725.077	644.77
725.271	726.69
725.465	1054.36
725.659	898.72
725.853	706.21
726.046	583.33
726.24	808.61
726.434	1205.91
726.628	587.43
726.822	816.8
727.015	1318.55
727.209	1205.91
727.403	763.55
727.596	513.7
727.79	1218.2
727.984	1246.87
728.177	681.63
728.371	857.76
728.565	1271.45
728.758	759.46
728.952	603.81
729.146	714.4
729.339	1210.01
729.533	956.06
729.726	818.85
729.92	636.58
730.113	1126.04
730.307	972.44
730.5	771.74
730.694	755.36
730.887	947.87
731.081	1193.62
731.274	741.02
731.468	792.22
731.661	1013.4
731.854	900.76
732.048	693.92
732.241	618.15
732.435	988.83
732.628	1009.31
732.821	956.06
733.014	671.39
733.208	843.42
733.401	1203.86
733.594	820.89
733.788	763.55
733.981	1463.96
734.174	1048.22
734.367	745.12
734.56	849.57
734.754	1214.1
734.947	1025.69
735.14	761.5
735.333	824.99
735.526	1228.44
735.719	886.43
735.912	679.58
736.105	675.49
736.298	1037.98
736.491	1042.07
736.684	745.12
736.877	786.08
737.07	1083.03
737.263	1357.46
737.456	755.36
737.649	802.46
737.842	939.68
738.035	1005.21
738.228	902.81
738.421	882.33
738.614	1318.55
738.807	1193.62
739	691.87
739.192	728.74
739.385	1123.99
739.578	1123.99
739.771	1042.07
739.964	798.37
740.156	1156.76
740.349	1107.61
740.542	970.4
740.735	691.87
740.927	792.22
741.12	861.85
741.313	630.43
741.505	943.77
741.698	1240.73
741.891	1291.93
742.083	1009.31
742.276	870.05
742.468	1060.51
742.661	1062.55
742.854	857.76
743.046	827.04
743.239	1433.24
743.431	982.68
743.624	1001.12
743.816	691.87
744.009	1060.51
744.201	1160.86
744.393	1105.56
744.586	730.78
744.778	1277.59
744.971	1105.56
745.163	1025.69
745.355	908.96
745.548	1199.77
745.74	1054.36
745.932	919.2
746.125	849.57
746.317	1609.36
746.509	1169.05
746.702	935.58
746.894	976.54
747.086	1253.02
747.278	1439.38
747.471	1087.13
747.663	939.68
747.855	1132.19
748.047	1521.3
748.239	882.33
748.431	851.61
748.623	1521.3
748.815	1513.11
749.008	716.45
749.2	810.65
749.392	1322.65
749.584	1308.31
749.776	911
749.968	935.58
750.16	1554.07
750.352	1169.05
750.544	1042.07
750.736	923.29
750.928	1240.73
751.12	1121.95
751.311	931.48
751.503	964.25
751.695	1283.74
751.887	1171.1
752.079	720.54
752.271	992.92
752.463	1926.8
752.654	1296.02
752.846	1029.79
753.038	890.53
753.23	1037.98
753.421	1291.93
753.613	872.09
753.805	1177.24
753.997	1373.85
754.188	1492.63
754.38	896.67
754.572	972.44
754.763	1113.75
754.955	1375.89
755.146	1066.65
755.338	1029.79
755.53	1277.59
755.721	1169.05
755.913	865.95
756.104	827.04
756.296	1144.47
756.487	1425.04
756.679	847.52
756.87	906.91
757.062	1091.23
757.253	1369.75
757.445	984.73
757.636	1101.47
757.827	1183.38
758.019	1762.96
758.21	829.09
758.401	882.33
758.593	1652.37
758.784	1496.72
758.975	728.74
759.167	931.48
759.358	1175.19
759.549	1375.89
759.74	939.68
759.932	784.03
760.123	1509.01
760.314	1130.14
760.505	1140.38
760.696	902.81
760.888	1615.51
761.079	1253.02
761.27	831.13
761.461	759.46
761.652	1539.73
761.843	1205.91
762.034	958.11
762.225	1236.63
762.416	1099.42
762.607	1218.2
762.798	958.11
762.989	972.44
763.18	1939.09
763.371	1103.51
763.562	974.49
763.753	925.34
763.944	1394.33
764.135	1459.86
764.326	1195.67
764.517	933.53
764.708	1349.27
764.899	1328.79
765.089	890.53
765.28	827.04
765.471	1263.26
765.662	1451.67
765.853	1091.23
766.043	806.56
766.234	1384.09
766.425	1482.39
766.615	1017.5
766.806	886.43
766.997	1504.92
767.187	1406.61
767.378	921.24
767.569	818.85
767.759	1447.57
767.95	1330.84
768.141	1140.38
768.331	931.48
768.522	1257.11
768.712	1472.15
768.903	958.11
769.093	874.14
769.284	1654.42
769.474	1398.42
769.665	872.09
769.855	845.47
770.046	1447.57
770.236	1164.95
770.426	1144.47
770.617	921.24
770.807	1453.72
770.998	1218.2
771.188	1160.86
771.378	865.95
771.569	1332.89
771.759	1357.46
771.949	921.24
772.139	657.06
772.33	1173.14
772.52	1566.35
772.71	919.2
772.9	851.61
773.09	1650.32
773.281	1621.65
773.471	915.1
773.661	970.4
773.851	1521.3
774.041	1119.9
774.231	945.82
774.421	1154.71
774.611	1592.98
774.802	1287.83
774.992	1080.99
775.182	911
775.372	1138.33
775.562	1375.89
775.752	1070.75
775.942	970.4
776.131	1492.63
776.321	1410.71
776.511	1111.71
776.701	878.24
776.891	1459.86
777.081	1134.23
777.271	1091.23
777.461	994.97
777.651	1566.35
777.84	1533.59
778.03	1189.53
778.22	1007.26
778.41	1556.11
778.599	1017.5
778.789	986.78
778.979	1068.7
779.169	1513.11
779.358	1253.02
779.548	1175.19
779.738	835.23
779.927	1328.79
780.117	988.83
780.307	1136.28
780.496	833.18
780.686	1318.55
780.875	1765.01
781.065	947.87
781.254	964.25
781.444	1121.95
781.633	1287.83
781.823	915.1
782.012	966.3
782.202	1273.5
782.391	1257.11
782.581	931.48
782.77	1111.71
782.96	1406.61
783.149	1205.91
783.338	997.02
783.528	763.55
783.717	1515.16
783.906	1672.85
784.096	1136.28
784.285	970.4
784.474	1185.43
784.663	1037.98
784.853	1003.16
785.042	1068.7
785.231	1238.68
785.42	1537.68
785.61	1132.19
785.799	931.48
785.988	1169.05
786.177	1218.2
786.366	1083.03
786.555	1162.9
786.744	1476.24
786.933	1267.35
787.122	861.85
787.312	902.81
787.501	1048.22
787.69	1373.85
787.879	968.35
788.068	964.25
788.257	1011.36
788.445	1201.82
788.634	1097.37
788.823	964.25
789.012	1910.41
789.201	1719.95
789.39	1123.99
789.579	911
789.768	1334.93
789.957	1263.26
790.145	1029.79
790.334	820.89
790.523	1177.24
790.712	1283.74
790.9	1087.13
791.089	898.72
791.278	1609.36
791.467	1400.47
791.655	1259.16
791.844	1506.96
792.033	1181.34
792.221	1207.96
792.41	1115.8
792.599	915.1
792.787	1423
792.976	1564.31
793.164	974.49
793.353	1040.03
793.541	1502.87
793.73	1420.95
793.918	1154.71
794.107	1042.07
794.295	1394.33
794.484	1361.56
794.672	1160.86
794.861	956.06
795.049	1441.43
795.238	1750.67
795.426	917.15
795.614	1160.86
795.803	1322.65
795.991	1615.51
796.179	1087.13
796.368	1068.7
796.556	1560.21
796.744	1072.79
796.932	999.07
797.121	947.87
797.309	1328.79
797.497	1588.88
797.685	1072.79
797.874	990.88
798.062	1265.3
798.25	1750.67
798.438	1001.12
798.626	1021.6
798.814	1484.44
799.002	1865.36
799.19	1195.67
799.378	1097.37
799.566	1488.53
799.755	1681.04
799.943	1273.5
800.131	999.07
800.318	1447.57
800.506	1478.29
800.694	997.02
800.882	1187.48
801.07	1672.85
801.258	1283.74
801.446	1105.56
801.634	1037.98
801.822	1402.52
802.01	1269.4
802.197	1091.23
802.385	1150.62
802.573	1400.47
802.761	1123.99
802.949	1185.43
803.136	999.07
803.324	1685.14
803.512	1349.27
803.699	1191.58
803.887	1019.55
804.075	1734.29
804.262	1222.3
804.45	1085.08
804.638	1193.62
804.825	1189.53
805.013	1228.44
805.201	1115.8
805.388	1078.94
805.576	1304.21
805.763	1773.2
805.951	1142.43
806.138	1322.65
806.326	1912.46
806.513	1613.46
806.701	1218.2
806.888	1097.37
807.075	1447.57
807.263	1830.54
807.45	1091.23
807.638	1353.37
807.825	1853.07
808.012	1785.49
808.2	1230.49
808.387	1482.39
808.574	1517.2
808.761	1789.58
808.949	1248.92
809.136	1390.23
809.323	1400.47
809.51	1275.54
809.698	1564.31
809.885	1537.68
810.072	1625.75
810.259	1785.49
810.446	1234.58
810.633	1230.49
810.82	1715.86
811.008	1838.73
811.195	1408.66
811.382	1339.03
811.569	1449.62
811.756	1201.82
811.943	1392.28
812.13	1191.58
812.317	1400.47
812.504	1470.1
812.691	1390.23
812.878	1484.44
813.064	1869.45
813.251	1613.46
813.438	1123.99
813.625	1382.04
813.812	1603.22
813.999	1498.77
814.186	1277.59
814.372	1255.06
814.559	1607.31
814.746	1808.02
814.933	1345.17
815.12	1517.2
815.306	1435.28
815.493	1296.02
815.68	1312.41
815.866	1291.93
816.053	1773.2
816.24	1988.24
816.426	1304.21
816.613	1095.32
816.799	1736.34
816.986	1848.97
817.173	1347.22
817.359	1365.65
817.546	1629.84
817.732	1210.01
817.919	1091.23
818.105	1455.76
818.292	1425.04
818.478	1676.95
818.665	1349.27
818.851	1316.5
819.037	2168.46
819.224	1570.45
819.41	1152.67
819.597	1318.55
819.783	1891.98
819.969	1752.72
820.156	1445.52
820.342	1246.87
820.528	2295.43
820.714	1490.58
820.901	1621.65
821.087	1386.13
821.273	1980.04
821.459	1564.31
821.646	1283.74
821.832	1269.4
822.018	1525.4
822.204	1517.2
822.39	1322.65
822.576	1263.26
822.762	1820.3
822.948	1832.59
823.134	1552.02
823.32	1345.17
823.507	1484.44
823.693	1660.56
823.879	1771.15
824.065	1271.45
824.25	1750.67
824.436	1162.9
824.622	1363.61
824.808	1228.44
824.994	1418.9
825.18	1382.04
825.366	1207.96
825.552	1302.17
825.738	1515.16
825.923	1826.45
826.109	1506.96
826.295	1375.89
826.481	1549.97
826.667	1509.01
826.852	1509.01
827.038	1312.41
827.224	1875.6
827.409	2049.68
827.595	1111.71
827.781	1549.97
827.966	1861.26
828.152	1789.58
828.338	1300.12
828.523	1253.02
828.709	1513.11
828.894	1910.41
829.08	1318.55
829.266	1365.65
829.451	1457.81
829.637	1730.19
829.822	1515.16
830.008	1279.64
830.193	1814.16
830.378	2064.01
830.564	1566.35
830.749	1205.91
830.935	1746.58
831.12	1828.49
831.305	1318.55
831.491	1353.37
831.676	1236.63
831.861	1853.07
832.047	1390.23
832.232	1121.95
832.417	1799.82
832.602	1670.8
832.788	1275.54
832.973	1316.5
833.158	1533.59
833.343	1699.47
833.528	1439.38
833.714	1291.93
833.899	1803.92
834.084	2021
834.269	1390.23
834.454	1382.04
834.639	1883.79
834.824	1654.42
835.009	1537.68
835.194	1529.49
835.379	1795.73
835.564	2012.81
835.749	1488.53
835.934	1212.06
836.119	1879.69
836.304	1580.69
836.489	1320.6
836.674	1615.51
836.859	1418.9
837.044	1932.94
837.228	1361.56
837.413	1257.11
837.598	1726.1
837.783	1769.1
837.968	1388.18
838.152	1275.54
838.337	1177.24
838.522	1994.38
838.707	1879.69
838.891	1494.68
839.076	1750.67
839.261	1928.85
839.445	1472.15
839.63	1470.1
839.815	2180.75
839.999	1537.68
840.184	1228.44
840.368	1345.17
840.553	1769.1
840.737	1836.69
840.922	1226.39
841.106	1291.93
841.291	1343.13
841.475	1664.66
841.66	1369.75
841.844	1379.99
842.029	2270.86
842.213	1423
842.397	1447.57
842.582	1175.19
842.766	1818.25
842.951	1754.77
843.135	1314.45
843.319	1404.57
843.504	1746.58
843.688	1767.06
843.872	1244.82
844.056	1271.45
844.241	1746.58
844.425	1525.4
844.609	1644.18
844.793	1185.43
844.977	1924.75
845.161	1734.29
845.346	1242.78
845.53	1408.66
845.714	1578.64
845.898	1945.23
846.082	1242.78
846.266	1361.56
846.45	1652.37
846.634	1588.88
846.818	1334.93
847.002	1511.06
847.186	1822.35
847.37	1375.89
847.554	1324.69
847.738	1529.49
847.922	1681.04
848.106	1803.92
848.29	1115.8
848.473	1320.6
848.657	1848.97
848.841	1549.97
849.025	1345.17
849.209	1140.38
849.392	1799.82
849.576	1521.3
849.76	972.44
849.944	1533.59
850.127	1982.09
850.311	1373.85
850.495	1314.45
850.678	1193.62
850.862	1894.03
851.046	2012.81
851.229	1607.31
851.413	1228.44
851.596	1638.03
851.78	1613.46
851.964	1564.31
852.147	1414.81
852.331	2356.87
852.514	2016.91
852.698	1455.76
852.881	1216.15
853.065	1885.84
853.248	1607.31
853.431	1509.01
853.615	1500.82
853.798	2133.64
853.982	1709.71
854.165	1496.72
854.348	1336.98
854.532	1400.47
854.715	1502.87
854.898	1429.14
855.081	1490.58
855.265	2021
855.448	2055.82
855.631	1334.93
855.814	1402.52
855.997	1883.79
856.181	1582.74
856.364	1509.01
856.547	1093.27
856.73	1664.66
856.913	1623.7
857.096	1189.53
857.279	1500.82
857.462	1472.15
857.645	1969.8
857.828	1564.31
858.011	1414.81
858.194	1570.45
858.377	1908.37
858.56	1234.58
858.743	1406.61
858.926	1406.61
859.109	1769.1
859.292	1373.85
859.475	1160.86
859.658	1922.7
859.841	1767.06
860.023	1207.96
860.206	1185.43
860.389	1722
860.572	1939.09
860.755	1353.37
860.937	1347.22
861.12	1599.12
861.303	1572.5
861.486	1377.94
861.668	1324.69
861.851	1734.29
862.034	1752.72
862.216	1549.97
862.399	1203.86
862.581	1816.21
862.764	2002.57
862.947	1447.57
863.129	1279.64
863.312	1320.6
863.494	2018.96
863.677	1732.24
863.859	1236.63
864.042	1773.2
864.224	1926.8
864.406	1404.57
864.589	1177.24
864.771	1771.15
864.954	1400.47
865.136	1316.5
865.318	1156.76
865.501	1765.01
865.683	1289.88
865.865	1222.3
866.048	1273.5
866.23	1734.29
866.412	1566.35
866.594	1158.81
866.777	1271.45
866.959	1767.06
867.141	1480.34
867.323	1472.15
867.505	1482.39
867.687	1650.32
867.869	1595.03
868.052	1441.43
868.234	1287.83
868.416	1547.92
868.598	1814.16
868.78	1332.89
868.962	1226.39
869.144	1955.47
869.326	1791.63
869.508	1332.89
869.69	1269.4
869.872	1449.62
870.054	1846.93
870.236	1083.03
870.417	1187.48
870.599	1537.68
870.781	2127.5
870.963	1445.52
871.145	1193.62
871.327	1265.3
871.508	1730.19
871.69	1400.47
871.872	1253.02
872.054	1492.63
872.235	1711.76
872.417	1377.94
872.599	1349.27
872.78	2016.91
872.962	1676.95
873.144	1302.17
873.325	1330.84
873.507	1982.09
873.689	1705.62
873.87	1189.53
874.052	1414.81
874.233	1511.06
874.415	1975.95
874.596	1373.85
874.778	1293.97
874.959	1642.13
875.141	1801.87
875.322	1343.13
875.503	1328.79
875.685	1693.33
875.866	1363.61
876.048	1263.26
876.229	1226.39
876.41	1627.79
876.592	1722
876.773	1355.41
876.954	1187.48
877.136	1947.28
877.317	1533.59
877.498	1179.29
877.679	1302.17
877.86	1793.68
878.042	1537.68
878.223	1336.98
878.404	1762.96
878.585	1791.63
878.766	2178.7
878.947	1547.92
879.128	1603.22
879.309	1816.21
879.49	2008.72
879.672	1398.42
879.853	1429.14
880.034	1496.72
880.215	1685.14
880.396	1547.92
880.576	1410.71
880.757	1541.78
880.938	2006.67
881.119	1279.64
881.3	1398.42
881.481	1439.38
881.662	2498.18
881.843	1410.71
882.023	1263.26
882.204	1771.15
882.385	1814.16
882.566	1390.23
882.747	1302.17
882.927	1762.96
883.108	1902.22
883.289	1410.71
883.469	1611.41
883.65	1678.99
883.831	1814.16
884.011	1746.58
884.192	1443.48
884.373	1980.04
884.553	1717.9
884.734	1670.8
884.914	1689.23
885.095	2369.16
885.275	2094.73
885.456	1783.44
885.636	1359.51
885.817	1746.58
885.997	1724.05
886.178	1490.58
886.358	1533.59
886.538	1734.29
886.719	2659.97
886.899	1513.11
887.08	1646.23
887.26	2096.78
887.44	1595.03
887.621	1453.72
887.801	1656.47
887.981	2397.83
888.161	1930.89
888.342	1629.84
888.522	1633.94
888.702	2000.52
888.882	2090.63
889.062	1656.47
889.242	1398.42
889.423	2258.57
889.603	1980.04
889.783	1715.86
889.963	1578.64
890.143	2012.81
890.323	2010.76
890.503	1547.92
890.683	1635.99
890.863	1984.14
891.043	2045.58
891.223	1842.83
891.403	1799.82
891.583	1924.75
891.763	1967.76
891.943	1775.25
892.122	1635.99
892.302	1838.73
892.482	1842.83
892.662	1736.34
892.842	1683.09
893.022	2002.57
893.201	1685.14
893.381	1758.86
893.561	1615.51
893.741	2195.08
893.92	1963.66
894.1	1715.86
894.28	1715.86
894.459	1982.09
894.639	2195.08
894.819	1717.9
894.998	1760.91
895.178	2104.97
895.357	1980.04
895.537	1699.47
895.716	1664.66
895.896	1867.41
896.075	2438.79
896.255	1658.51
896.434	1517.2
896.614	2133.64
896.793	2307.72
896.973	1902.22
897.152	1810.06
897.331	2055.82
897.511	2219.66
897.69	1580.69
897.87	1824.4
898.049	2141.83
898.228	2014.86
898.407	1844.88
898.587	1908.37
898.766	1869.45
898.945	2096.78
899.124	2000.52
899.304	1683.09
899.483	2168.46
899.662	2483.84
899.841	1627.79
900.02	1644.18
900.199	2330.25
900.378	1963.66
900.557	1482.39
900.737	1504.92
900.916	2035.34
901.095	2274.95
901.274	2004.62
901.453	1504.92
901.632	1861.26
901.811	1797.78
901.989	1738.38
902.168	1732.24
902.347	2268.81
902.526	1926.8
902.705	1654.42
902.884	1742.48
903.063	2233.99
903.242	2182.79
903.42	1533.59
903.599	1859.21
903.778	2225.8
903.957	2442.89
904.135	1830.54
904.314	1709.71
904.493	2117.26
904.672	2121.35
904.85	1787.54
905.029	1599.12
905.207	2057.87
905.386	2737.79
905.565	1687.18
905.743	1615.51
905.922	1867.41
906.1	2203.27
906.279	1744.53
906.457	1728.14
906.636	1851.02
906.814	1988.24
906.993	1660.56
907.171	1648.27
907.35	2072.2
907.528	2266.76
907.707	1865.36
907.885	1521.3
908.063	2453.13
908.242	1601.17
908.42	1658.51
908.598	1578.64
908.777	2047.63
908.955	1875.6
909.133	1810.06
909.311	1478.29
909.49	1894.03
909.668	1894.03
909.846	1638.03
910.024	1472.15
910.202	1947.28
910.38	2113.16
910.559	1414.81
910.737	1511.06
910.915	1990.28
911.093	1961.61
911.271	1687.18
911.449	1842.83
911.627	2055.82
911.805	2479.75
911.983	1558.16
912.161	1582.74
912.339	1947.28
912.517	2143.88
912.695	1814.16
912.872	1648.27
913.05	1635.99
913.228	2078.35
913.406	1660.56
913.584	1582.74
913.762	2000.52
913.939	1777.3
914.117	1504.92
914.295	1578.64
914.473	1961.61
914.65	1928.85
914.828	1554.07
915.006	1529.49
915.184	1656.47
915.361	1949.32
915.539	1795.73
915.716	1808.02
915.894	2025.1
916.072	1967.76
916.249	1705.62
916.427	1648.27
916.604	1519.25
916.782	1978
916.959	1431.19
917.137	1500.82
917.314	1928.85
917.492	1984.14
917.669	1650.32
917.847	1660.56
918.024	1971.85
918.201	1572.5
918.379	1590.93
918.556	1578.64
918.733	1992.33
918.911	1627.79
919.088	1795.73
919.265	1621.65
919.442	1959.56
919.62	1730.19
919.797	1406.61
919.974	1490.58
920.151	1906.32
920.328	1672.85
920.506	1459.86
920.683	1750.67
920.86	1691.28
921.037	1635.99
921.214	1586.83
921.391	1451.67
921.568	2018.96
921.745	1605.27
921.922	1564.31
922.099	1451.67
922.276	1978
922.453	1676.95
922.63	1402.52
922.807	1767.06
922.984	1826.45
923.161	1597.07
923.338	1582.74
923.514	1349.27
923.691	1767.06
923.868	1926.8
924.045	1597.07
924.222	1285.78
924.399	1842.83
924.575	1932.94
924.752	1488.53
924.929	1547.92
925.105	1799.82
925.282	1316.5
925.459	1365.65
925.635	1443.48
925.812	1642.13
925.989	1570.45
926.165	1459.86
926.342	1220.25
926.518	1531.54
926.695	1607.31
926.871	1359.51
927.048	1228.44
927.224	1767.06
927.401	1603.22
927.577	1431.19
927.754	1267.35
927.93	1947.28
928.107	1898.13
928.283	1253.02
928.459	1474.2
928.636	1781.39
928.812	1521.3
928.988	1349.27
929.165	1226.39
929.341	1484.44
929.517	1580.69
929.693	1685.14
929.87	1193.62
930.046	1713.81
930.222	1398.42
930.398	1230.49
930.574	1418.9
930.751	1603.22
930.927	1423
931.103	1400.47
931.279	1224.34
931.455	1396.37
931.631	1635.99
931.807	1136.28
931.983	1193.62
932.159	1226.39
932.335	1533.59
932.511	1320.6
932.687	1212.06
932.863	1476.24
933.039	1556.11
933.215	1132.19
933.391	1095.32
933.566	1402.52
933.742	1449.62
933.918	1226.39
934.094	1005.21
934.27	1525.4
934.445	1398.42
934.621	1287.83
934.797	1060.51
934.973	1500.82
935.148	1423
935.324	947.87
935.5	771.74
935.675	1609.36
935.851	1388.18
936.027	1087.13
936.202	1111.71
936.378	1324.69
936.553	1218.2
936.729	1468.05
936.904	968.35
937.08	906.91
937.255	1040.03
937.431	906.91
937.606	865.95
937.782	943.77
937.957	1326.74
938.133	980.64
938.308	822.94
938.483	1115.8
938.659	753.31
938.834	898.72
939.009	710.3
939.185	894.62
939.36	827.04
939.535	501.41
939.71	804.51
939.886	1156.76
940.061	1210.01
940.236	892.57
940.411	788.13
940.586	1074.84
940.761	1017.5
940.937	726.69
941.112	702.11
941.287	986.78
941.462	933.53
941.637	534.18
941.812	718.5
941.987	1062.55
942.162	964.25
942.337	751.26
942.512	679.58
942.687	1185.43
942.862	1025.69
943.037	562.85
943.212	224.94
943.386	759.46
943.561	849.57
943.736	810.65
943.911	941.72
944.086	911
944.26	906.91
944.435	607.91
944.61	702.11
944.785	1138.33
944.959	1255.06
945.134	718.5
945.309	525.99
945.483	599.71
945.658	1017.5
945.833	319.14
946.007	466.6
946.182	1351.32
946.357	581.28
946.531	464.55
946.706	530.08
946.88	493.22
947.055	915.1
947.229	579.23
947.404	558.75
947.578	1074.84
947.752	648.86
947.927	431.78
948.101	407.2
948.276	812.7
948.45	898.72
948.624	693.92
948.799	532.13
948.973	958.11
949.147	575.14
949.321	616.1
949.496	616.1
949.67	994.97
949.844	753.31
950.018	470.69
950.193	523.94
950.367	1296.02
950.541	808.61
950.715	661.15
950.889	693.92
951.063	765.6
951.237	1015.45
951.411	300.71
951.585	411.3
951.759	980.64
951.933	751.26
952.107	513.7
952.281	679.58
952.455	1189.53
952.629	984.73
952.803	622.24
952.977	501.41
953.151	997.02
953.325	972.44
953.499	620.19
953.672	439.97
953.846	650.91
954.02	753.31
954.194	515.75
954.368	579.23
954.541	972.44
954.715	771.74
954.889	568.99
955.062	485.03
955.236	718.5
955.41	833.18
955.583	747.17
955.757	364.2
955.93	812.7
956.104	571.04
956.278	571.04
956.451	630.43
956.625	898.72
956.798	1273.5
956.972	896.67
957.145	534.18
957.319	816.8
957.492	812.7
957.665	675.49
957.839	472.74
958.012	876.19
958.185	700.06
958.359	566.95
958.532	779.93
958.705	960.16
958.879	931.48
959.052	636.58
959.225	407.2
959.398	732.83
959.572	824.99
959.745	513.7
959.918	620.19
960.091	722.59
960.264	874.14
960.438	413.35
960.611	603.81
960.784	956.06
960.957	718.5
961.13	845.47
961.303	521.89
961.476	753.31
961.649	958.11
961.822	478.88
961.995	589.47
962.168	1035.93
962.341	824.99
962.514	620.19
962.686	571.04
962.859	820.89
963.032	935.58
963.205	583.33
963.378	390.82
963.551	1013.4
963.723	857.76
963.896	769.69
964.069	784.03
964.242	822.94
964.414	978.59
964.587	558.75
964.76	630.43
964.932	849.57
965.105	777.89
965.278	612
965.45	612
965.623	724.64
965.795	964.25
965.968	562.85
966.14	505.51
966.313	663.2
966.485	704.16
966.658	530.08
966.83	560.8
967.003	1044.12
967.175	947.87
967.348	485.03
967.52	605.86
967.692	1021.6
967.865	972.44
968.037	579.23
968.209	767.65
968.382	751.26
968.554	1037.98
968.726	673.44
968.898	552.61
969.071	913.05
969.243	751.26
969.415	566.95
969.587	661.15
969.759	1265.3
969.932	980.64
970.104	595.62
970.276	202.41
970.448	642.72
970.62	652.96
970.792	661.15
970.964	568.99
971.136	1259.16
971.308	863.9
971.48	521.89
971.652	392.87
971.824	1095.32
971.996	657.06
972.168	614.05
972.339	581.28
972.511	972.44
972.683	587.43
972.855	775.84
973.027	538.27
973.199	691.87
973.37	937.63
973.542	671.39
973.714	632.48
973.886	810.65
974.057	1021.6
974.229	439.97
974.401	503.46
974.572	515.75
974.744	374.44
974.915	448.16
975.087	382.63
975.259	1148.57
975.43	646.82
975.602	530.08
975.773	489.12
975.945	558.75
976.116	872.09
976.288	376.48
976.459	681.63
976.63	579.23
976.802	857.76
976.973	485.03
977.145	646.82
977.316	1226.39
977.487	1140.38
977.659	732.83
977.83	534.18
978.001	1113.75
978.172	792.22
978.344	382.63
978.515	546.47
978.686	644.77
978.857	1033.88
979.028	538.27
979.2	472.74
979.371	947.87
979.542	698.02
979.713	671.39
979.884	91.82
980.055	579.23
980.226	544.42
980.397	442.02
980.568	329.38
980.739	988.83
980.91	677.54
981.081	630.43
981.252	411.3
981.423	878.24
981.594	904.86
981.765	374.44
981.936	532.13
982.106	722.59
982.277	1019.55
982.448	466.6
982.619	638.62
982.79	593.57
982.96	915.1
983.131	597.67
983.302	317.09
983.472	659.1
983.643	743.07
983.814	665.25
983.984	456.36
984.155	577.19
984.326	921.24
984.496	581.28
984.667	493.22
984.837	509.6
985.008	982.68
985.178	700.06
985.349	472.74
985.519	599.71
985.69	556.71
985.86	407.2
986.031	366.25
986.201	693.92
986.371	810.65
986.542	310.95
986.712	302.76
986.882	859.81
987.053	829.09
987.223	339.62
987.393	595.62
987.563	528.03
987.734	849.57
987.904	726.69
988.074	382.63
988.244	673.44
988.414	519.84
988.585	384.68
988.755	462.5
988.925	640.67
989.095	997.02
989.265	394.92
989.435	452.26
989.605	896.67
989.775	827.04
989.945	693.92
990.115	325.29
990.285	706.21
990.455	771.74
990.625	603.81
990.795	292.52
990.965	954.01
991.134	423.59
991.304	378.53
991.474	349.86
991.644	757.41
991.814	933.53
991.984	284.33
992.153	390.82
992.323	589.47
992.493	581.28
992.662	167.59
992.832	480.93
993.002	665.25
993.171	669.34
993.341	220.84
993.511	489.12
993.68	466.6
993.85	849.57
994.019	183.98
994.189	323.24
994.358	630.43
994.528	476.84
994.697	75.43
994.867	259.75
995.036	786.08
995.206	454.31
995.375	243.37
995.544	458.4
995.714	689.82
995.883	489.12
996.052	444.07
996.222	134.82
996.391	1033.88
996.56	663.2
996.73	267.94
996.899	177.83
997.068	839.33
997.237	655.01
997.406	251.56
997.576	196.26
997.745	630.43
997.914	644.77
998.083	89.77
998.252	206.5
998.421	624.29
998.59	321.19
998.759	173.74
998.928	140.97
999.097	943.77
999.266	589.47
999.435	394.92
999.604	13.99
999.773	1037.98
999.942	442.02
1000.111	73.39
1000.28	91.82
1000.448	319.14
1000.617	235.18
1000.786	501.41
1000.955	147.11
1001.124	536.23
1001.292	1179.29
1001.461	192.17
1001.63	169.64
1001.798	984.73
1001.967	839.33
1002.136	95.91
1002.304	173.74
1002.473	585.38
1002.642	554.66
1002.81	235.18
1002.979	206.5
1003.147	718.5
1003.316	1169.05
1003.484	108.2
1003.653	153.26
1003.821	839.33
1003.99	458.4
1004.158	323.24
1004.327	292.52
1004.495	677.54
1004.663	388.77
1004.832	249.51
1005	157.35
1005.168	612
1005.337	503.46
1005.505	165.54
1005.673	399.01
1005.842	616.1
1006.01	624.29
1006.178	100.01
1006.346	171.69
1006.514	657.06
1006.683	753.31
1006.851	181.93
1007.019	100.01
1007.187	401.06
1007.355	-16.73
1007.523	-55.64
1007.691	-57.68
1007.859	259.75
1008.027	874.14
1008.195	155.3
1008.363	38.57
1008.531	747.17
1008.699	323.24
1008.867	-43.35
1009.035	190.12
1009.203	931.48
1009.37	446.12
1009.538	198.31
1009.706	665.25
1009.874	540.32
1010.042	399.01
1010.209	122.54
1010.377	75.43
1010.545	667.3
1010.713	562.85
1010.88	106.15
1011.048	190.12
1011.216	388.77
1011.383	800.41
1011.551	50.86
1011.718	-0.34
1011.886	628.39
1012.054	431.78
1012.221	124.58
1012.389	7.85
1012.556	513.7
1012.724	868
1012.891	253.61
1013.058	-67.92
1013.226	585.38
1013.393	681.63
1013.561	-43.35
1013.728	-20.82
1013.895	695.97
1014.063	581.28
1014.23	-45.4
1014.397	173.74
1014.565	667.3
1014.732	370.34
1014.899	100.01
1015.066	22.19
1015.233	437.92
1015.401	562.85
1015.568	194.22
1015.735	147.11
1015.902	562.85
1016.069	487.08
1016.236	120.49
1016.403	-22.87
1016.57	290.47
1016.737	638.62
1016.904	97.96
1017.071	-0.34
1017.238	310.95
1017.405	579.23
1017.572	26.28
1017.739	288.42
1017.906	566.95
1018.073	661.15
1018.24	-4.44
1018.407	155.3
1018.573	784.03
1018.74	431.78
1018.907	173.74
1019.074	-135.51
1019.241	599.71
1019.407	421.54
1019.574	26.28
1019.741	-74.07
1019.907	456.36
1020.074	661.15
1020.241	-141.65
1020.407	-51.54
1020.574	591.52
1020.74	501.41
1020.907	95.91
1021.073	11.95
1021.24	890.53
1021.406	677.54
1021.573	-35.16
1021.739	112.3
1021.906	638.62
1022.072	374.44
1022.239	20.14
1022.405	63.15
1022.571	456.36
1022.738	241.32
1022.904	46.76
1023.07	165.54
1023.237	474.79
1023.403	681.63
1023.569	-10.58
1023.735	61.1
1023.902	460.45
1024.068	446.12
1024.234	-12.63
1024.4	-0.34
1024.566	466.6
1024.732	556.71
1024.898	138.92
1025.065	-104.79
1025.231	499.36
1025.397	251.56
1025.563	46.76
1025.729	-72.02
1025.895	38.57
1026.061	140.97
1026.227	-133.46
1026.392	124.58
1026.558	657.06
1026.724	433.83
1026.89	3.75
1027.056	95.91
1027.222	472.74
1027.388	259.75
1027.553	-94.55
1027.719	-8.53
1027.885	761.5
1028.051	542.37
1028.216	-223.57
1028.382	-43.35
1028.548	456.36
1028.713	253.61
1028.879	-151.89
1029.045	165.54
1029.21	716.45
1029.376	521.89
1029.541	59.05
1029.707	57
1029.873	472.74
1030.038	509.6
1030.204	30.38
1030.369	69.29
1030.534	491.17
1030.7	235.18
1030.865	-88.4
1031.031	18.09
1031.196	433.83
1031.361	405.16
1031.527	-53.59
1031.692	-49.49
1031.857	9.9
1032.023	503.46
1032.188	-137.56
1032.353	34.47
1032.518	761.5
1032.684	409.25
1032.849	-170.32
1033.014	81.58
1033.179	532.13
1033.344	485.03
1033.509	75.43
1033.674	1.71
1033.839	505.51
1034.004	495.27
1034.17	-10.58
1034.335	-67.92
1034.5	286.37
1034.664	308.9
1034.829	-26.96
1034.994	5.8
1035.159	366.25
1035.324	399.01
1035.489	-131.41
1035.654	-74.07
1035.819	616.1
1035.984	392.87
1036.148	30.38
1036.313	57
1036.478	702.11
1036.643	349.86
1036.807	-14.68
1036.972	-188.75
1037.137	648.86
1037.301	345.77
1037.466	-178.51
1037.631	28.33
1037.795	579.23
1037.96	345.77
1038.124	159.4
1038.289	-223.57
1038.454	581.28
1038.618	532.13
1038.783	-72.02
1038.947	132.78
1039.111	409.25
1039.276	304.81
1039.44	-43.35
1039.605	435.88
1039.769	243.37
1039.933	269.99
1040.098	106.15
1040.262	192.17
1040.426	519.84
1040.591	403.11
1040.755	-209.23
1040.919	-43.35
1041.083	452.26
1041.248	272.04
1041.412	-211.28
1041.576	-158.03
1041.74	267.94
1041.904	423.59
1042.068	-186.71
1042.232	-55.64
1042.397	501.41
1042.561	435.88
1042.725	-338.26
1042.889	87.72
1043.053	525.99
1043.217	384.68
1043.381	83.63
1043.544	-201.04
1043.708	566.95
1043.872	106.15
1044.036	-330.06
1044.2	-176.47
1044.364	603.81
1044.528	638.62
1044.691	2985.6
1044.855	-235.86
1045.019	491.17
1045.183	454.31
1045.346	-47.44
1045.51	-88.4
1045.674	439.97
1045.837	521.89
1046.001	36.52
1046.165	-160.08
1046.328	820.89
1046.492	450.21
1046.655	1.71
1046.819	9.9
1046.983	218.79
1047.146	427.68
1047.31	124.58
1047.473	-168.27
1047.636	343.72
1047.8	52.91
1047.963	-65.88
1048.127	-166.23
1048.29	220.84
