Data from Ink_Intensity_USB4F045381__119__00119.txt Node

Date: Mon Jul 17 11:10:49 EDT 2023
User: mmckonesweet
Spectrometer: USB4F04538
Trigger mode: 4
Integration Time (sec): 9.000000E-1
Scans to average: 1
Electric dark correction enabled: true
Nonlinearity correction enabled: false
Boxcar width: 0
XAxis mode: Wavelengths
Number of Pixels in Spectrum: 3648
>>>>>Begin Spectral Data<<<<<
345.52	-991.39
345.736	-991.39
345.952	-991.39
346.168	-985.24
346.384	-981.15
346.6	-129.19
346.816	-247.97
347.032	-164.01
347.248	266.07
347.464	-188.58
347.68	-133.29
347.896	91.99
348.112	337.74
348.328	-121
348.544	-47.27
348.76	24.4
348.975	311.12
349.191	-186.54
349.407	-239.78
349.623	28.5
349.839	-104.62
350.055	-82.09
350.27	8.02
350.486	169.81
350.702	313.17
350.918	221.01
351.133	-194.73
351.349	182.1
351.565	497.49
351.781	-264.36
351.996	-18.6
352.212	384.85
352.428	-172.2
352.644	-155.82
352.859	-266.41
353.075	247.63
353.291	75.6
353.506	-88.23
353.722	-327.85
353.938	-96.43
354.153	462.67
354.369	55.12
354.584	-245.93
354.8	247.63
355.016	-252.07
355.231	-215.21
355.447	-67.75
355.662	139.09
355.878	784.2
356.093	-297.13
356.309	-0.17
356.524	-161.96
356.74	307.02
356.955	-153.77
357.171	-51.37
357.386	147.28
357.602	-266.41
357.817	-116.9
358.033	-170.15
358.248	360.27
358.464	186.19
358.679	-190.63
358.895	-268.45
359.11	-80.04
359.325	350.03
359.541	55.12
359.756	-49.32
359.972	-299.17
360.187	208.72
360.402	-250.02
360.618	-75.95
360.833	982.85
361.048	151.38
361.264	-157.86
361.479	-112.81
361.694	-47.27
361.909	124.76
362.125	-174.25
362.34	-149.67
362.555	204.63
362.77	132.95
362.986	-278.69
363.201	-221.35
363.416	182.1
363.631	-41.13
363.847	-204.97
364.062	-141.48
364.277	204.63
364.492	55.12
364.707	-209.06
364.922	-409.76
365.138	288.59
365.353	376.66
365.568	-293.03
365.783	-141.48
365.998	126.8
366.213	567.12
366.428	-211.11
366.643	46.93
366.858	223.06
367.073	239.44
367.288	-127.14
367.503	-288.93
367.718	77.65
367.933	300.88
368.148	-338.09
368.363	-39.08
368.578	-139.43
368.793	429.9
369.008	-155.82
369.223	-268.45
369.438	155.47
369.653	417.61
369.868	-204.97
370.083	-346.28
370.298	94.04
370.513	399.18
370.728	10.07
370.943	-235.69
371.157	-145.58
371.372	532.3
371.587	-280.74
371.802	-288.93
372.017	77.65
372.232	436.05
372.446	-84.14
372.661	-293.03
372.876	245.59
373.091	153.43
373.306	-73.9
373.52	-252.07
373.735	-231.59
373.95	413.52
374.165	-118.95
374.379	-104.62
374.594	-114.86
374.809	75.6
375.023	57.17
375.238	-305.32
375.453	264.02
375.667	-243.88
375.882	-196.78
376.097	-217.26
376.311	20.31
376.526	46.93
376.741	-178.34
376.955	114.52
377.17	552.78
377.384	579.4
377.599	28.5
377.813	-286.89
378.028	722.76
378.242	221.01
378.457	-123.05
378.672	-364.71
378.886	110.42
379.101	-22.7
379.315	-372.9
379.53	-202.92
379.744	186.19
379.958	202.58
380.173	-137.38
380.387	-182.44
380.602	122.71
380.816	-141.48
381.031	-190.63
381.245	-88.23
381.459	108.37
381.674	2729.77
381.888	-211.11
382.103	116.56
382.317	-180.39
382.531	462.67
382.746	-75.95
382.96	-141.48
383.174	-102.57
383.388	481.1
383.603	48.98
383.817	-231.59
384.031	147.28
384.246	431.95
384.46	-2.22
384.674	255.83
384.888	-2.22
385.103	75.6
385.317	-297.13
385.531	-30.89
385.745	390.99
385.959	247.63
386.174	-252.07
386.388	-288.93
386.602	-45.23
386.816	-129.19
387.03	-100.52
387.244	-143.53
387.458	98.13
387.672	358.22
387.887	-305.32
388.101	-282.79
388.315	278.35
388.529	137.04
388.743	-147.62
388.957	-241.83
389.171	358.22
389.385	-215.21
389.599	-137.38
389.813	-18.6
390.027	124.76
390.241	554.83
390.455	-104.62
390.669	-77.99
390.883	-147.62
391.097	358.22
391.311	46.93
391.525	-286.89
391.738	165.71
391.952	243.54
392.166	-104.62
392.38	-293.03
392.594	304.98
392.808	218.96
393.022	-114.86
393.236	-80.04
393.449	233.3
393.663	100.18
393.877	-241.83
394.091	-82.09
394.305	-43.18
394.518	-133.29
394.732	-264.36
394.946	-141.48
395.16	425.81
395.373	73.56
395.587	-188.58
395.801	-268.45
396.015	304.98
396.228	171.86
396.442	-284.84
396.656	-381.09
396.869	321.36
397.083	442.19
397.297	-104.62
397.51	-223.4
397.724	327.5
397.938	112.47
398.151	-340.13
398.365	-282.79
398.578	231.25
398.792	434
399.005	38.74
399.219	-141.48
399.433	145.24
399.646	231.25
399.86	-20.65
400.073	10.07
400.287	120.66
400.5	-43.18
400.714	34.64
400.927	-116.9
401.141	188.24
401.354	1040.2
401.567	139.09
401.781	-221.35
401.994	259.92
402.208	563.02
402.421	-108.71
402.635	-161.96
402.848	-82.09
403.061	321.36
403.275	-67.75
403.488	-245.93
403.701	401.23
403.915	331.6
404.128	-10.41
404.341	-168.1
404.555	210.77
404.768	5.97
404.981	-16.55
405.195	-217.26
405.408	448.33
405.621	210.77
405.834	30.55
406.048	-266.41
406.261	413.52
406.474	421.71
406.687	-254.12
406.9	-84.14
407.114	26.45
407.327	173.91
407.54	-276.65
407.753	-317.61
407.966	-145.58
408.179	247.63
408.392	-170.15
408.605	-385.19
408.819	171.86
409.032	98.13
409.245	-186.54
409.458	1.88
409.671	139.09
409.884	235.35
410.097	-284.84
410.31	-8.36
410.523	145.24
410.736	-18.6
410.949	-127.14
411.162	-125.1
411.375	380.75
411.588	294.74
411.801	5.97
412.014	-219.3
412.227	-84.14
412.44	-123.05
412.653	-227.5
412.865	55.12
413.078	237.39
413.291	223.06
413.504	-67.75
413.717	-192.68
413.93	280.4
414.143	-112.81
414.356	-102.57
414.568	-327.85
414.781	259.92
414.994	114.52
415.207	-80.04
415.42	-114.86
415.632	186.19
415.845	499.53
416.058	-379.04
416.271	-344.23
416.483	96.08
416.696	489.29
416.909	-245.93
417.121	-190.63
417.334	151.38
417.547	520.01
417.759	-166.06
417.972	-231.59
418.185	-92.33
418.397	300.88
418.61	-186.54
418.823	-219.3
419.035	546.64
419.248	46.93
419.46	-96.43
419.673	-82.09
419.885	132.95
420.098	89.94
420.311	-147.62
420.523	-368.81
420.736	239.44
420.948	83.8
421.161	-133.29
421.373	-407.72
421.586	190.29
421.798	-147.62
422.01	-295.08
422.223	-55.47
422.435	-108.71
422.648	233.3
422.86	-188.58
423.073	-297.13
423.285	333.65
423.497	-207.02
423.71	-290.98
423.922	-237.74
424.134	155.47
424.347	458.57
424.559	-57.51
424.771	96.08
424.984	48.98
425.196	112.47
425.408	-426.15
425.621	-370.85
425.833	257.87
426.045	354.13
426.257	-327.85
426.47	-207.02
426.682	100.18
426.894	194.39
427.106	-170.15
427.318	-166.06
427.531	-51.37
427.743	276.31
427.955	-204.97
428.167	206.67
428.379	122.71
428.591	-63.66
428.804	-77.99
429.016	-254.12
429.228	-55.47
429.44	169.81
429.652	57.17
429.864	-366.76
430.076	20.31
430.288	-28.84
430.5	-82.09
430.712	-55.47
430.924	268.11
431.136	67.41
431.348	-436.39
431.56	-153.77
431.772	-28.84
431.984	-86.19
432.196	-256.17
432.408	-168.1
432.62	46.93
432.832	87.89
433.044	116.56
433.256	-39.08
433.468	218.96
433.679	-223.4
433.891	-247.97
434.103	59.22
434.315	358.22
434.527	106.32
434.739	18.26
434.95	-164.01
435.162	266.07
435.374	-55.47
435.586	-55.47
435.798	-170.15
436.009	-256.17
436.221	-41.13
436.433	-262.31
436.645	-237.74
436.856	-34.99
437.068	315.22
437.28	-260.26
437.491	16.21
437.703	200.53
437.915	46.93
438.126	-180.39
438.338	87.89
438.55	71.51
438.761	200.53
438.973	-143.53
439.184	-149.67
439.396	89.94
439.608	311.12
439.819	-284.84
440.031	-118.95
440.242	223.06
440.454	235.35
440.665	-237.74
440.877	-94.38
441.088	243.54
441.3	-84.14
441.511	-276.65
441.723	-188.58
441.934	112.47
442.146	100.18
442.357	-18.6
442.569	112.47
442.78	67.41
442.991	374.61
443.203	137.04
443.414	-235.69
443.626	309.07
443.837	-182.44
444.048	-213.16
444.26	-311.46
444.471	124.76
444.682	286.54
444.894	-325.8
445.105	-254.12
445.316	335.7
445.528	171.86
445.739	-49.32
445.95	-174.25
446.161	141.14
446.373	227.15
446.584	-92.33
446.795	-204.97
447.006	274.26
447.217	487.25
447.429	-338.09
447.64	-346.28
447.851	358.22
448.062	87.89
448.273	-331.94
448.484	-270.5
448.695	159.57
448.907	12.12
449.118	-8.36
449.329	75.6
449.54	-39.08
449.751	-121
449.962	-190.63
450.173	-190.63
450.384	401.23
450.595	442.19
450.806	-215.21
451.017	-106.67
451.228	403.28
451.439	278.35
451.65	-176.3
451.861	-403.62
452.072	-209.06
452.283	118.61
452.494	48.98
452.705	-200.87
452.915	386.9
453.126	153.43
453.337	-166.06
453.548	-274.6
453.759	302.93
453.97	608.08
454.181	91.99
454.391	-125.1
454.602	145.24
454.813	221.01
455.024	-67.75
455.235	-143.53
455.445	161.62
455.656	147.28
455.867	16.21
456.078	-118.95
456.288	-30.89
456.499	114.52
456.71	-219.3
456.921	85.84
457.131	274.26
457.342	149.33
457.553	-57.51
457.763	-186.54
457.974	241.49
458.184	259.92
458.395	-204.97
458.606	-231.59
458.816	390.99
459.027	626.51
459.237	-8.36
459.448	-336.04
459.659	327.5
459.869	581.45
460.08	-338.09
460.29	-59.56
460.501	563.02
460.711	-90.28
460.922	-247.97
461.132	-215.21
461.343	751.43
461.553	-256.17
461.764	-196.78
461.974	-116.9
462.184	280.4
462.395	251.73
462.605	-88.23
462.816	-198.82
463.026	153.43
463.236	405.33
463.447	-213.16
463.657	-209.06
463.867	329.55
464.078	28.5
464.288	-88.23
464.498	-141.48
464.709	165.71
464.919	59.22
465.129	-141.48
465.339	-227.5
465.55	223.06
465.76	341.84
465.97	-135.34
466.18	-133.29
466.391	292.69
466.601	161.62
466.811	-47.27
467.021	-192.68
467.231	153.43
467.441	470.86
467.651	-92.33
467.862	-436.39
468.072	132.95
468.282	399.18
468.492	-123.05
468.702	-63.66
468.912	89.94
469.122	689.99
469.332	149.33
469.542	-200.87
469.752	290.64
469.962	194.39
470.172	-229.54
470.382	-168.1
470.592	261.97
470.802	366.42
471.012	53.08
471.222	-157.86
471.432	337.74
471.642	276.31
471.852	22.36
472.062	-159.91
472.272	46.93
472.482	-98.47
472.691	-112.81
472.901	-202.92
473.111	216.91
473.321	706.38
473.531	-223.4
473.741	-6.31
473.95	329.55
474.16	327.5
474.37	18.26
474.58	-319.65
474.79	657.23
474.999	360.27
475.209	-141.48
475.419	-92.33
475.628	139.09
475.838	489.29
476.048	3.93
476.258	-235.69
476.467	487.25
476.677	5.97
476.886	130.9
477.096	-47.27
477.306	91.99
477.515	421.71
477.725	1.88
477.935	12.12
478.144	501.58
478.354	96.08
478.563	-22.7
478.773	-121
478.982	358.22
479.192	522.06
479.401	38.74
479.611	-73.9
479.82	67.41
480.03	300.88
480.239	-24.75
480.449	-110.76
480.658	608.08
480.868	57.17
481.077	75.6
481.287	10.07
481.496	390.99
481.705	702.28
481.915	282.45
482.124	286.54
482.333	415.57
482.543	603.98
482.752	51.03
482.961	12.12
483.171	446.29
483.38	194.39
483.589	112.47
483.799	-45.23
484.008	231.25
484.217	503.63
484.426	46.93
484.636	-43.18
484.845	323.41
485.054	55.12
485.263	356.18
485.472	12.12
485.682	751.43
485.891	370.51
486.1	-213.16
486.309	-6.31
486.518	489.29
486.727	638.8
486.936	18.26
487.146	161.62
487.355	679.75
487.564	192.34
487.773	67.41
487.982	55.12
488.191	186.19
488.4	327.5
488.609	73.56
488.818	100.18
489.027	923.46
489.236	696.14
489.445	110.42
489.654	-55.47
489.863	642.89
490.072	450.38
490.281	434
490.49	178
490.698	741.19
490.907	759.63
491.116	173.91
491.325	51.03
491.534	661.32
491.743	413.52
491.952	251.73
492.16	122.71
492.369	565.07
492.578	622.41
492.787	253.78
492.996	1.88
493.204	341.84
493.413	878.41
493.622	-61.61
493.831	44.88
494.039	706.38
494.248	227.15
494.457	124.76
494.665	116.56
494.874	612.17
495.083	857.93
495.291	304.98
495.5	161.62
495.709	618.32
495.917	446.29
496.126	282.45
496.335	249.68
496.543	319.31
496.752	591.69
496.96	423.76
497.169	55.12
497.377	468.81
497.586	753.48
497.794	331.6
498.003	12.12
498.211	468.81
498.42	882.5
498.628	288.59
498.837	114.52
499.045	720.71
499.254	569.16
499.462	296.78
499.671	288.59
499.879	866.12
500.087	741.19
500.296	395.09
500.504	304.98
500.713	575.31
500.921	1042.25
501.129	227.15
501.338	233.3
501.546	669.52
501.754	558.92
501.962	255.83
502.171	227.15
502.379	669.52
502.587	927.56
502.795	347.98
503.004	366.42
503.212	597.84
503.42	751.43
503.628	309.07
503.837	358.22
504.045	821.06
504.253	1040.2
504.461	245.59
504.669	167.76
504.877	759.63
505.085	1046.34
505.294	216.91
505.502	481.1
505.71	644.94
505.918	753.48
506.126	329.55
506.334	350.03
506.542	501.58
506.75	759.63
506.958	464.72
507.166	405.33
507.374	634.7
507.582	1107.78
507.79	513.87
507.998	343.89
508.206	661.32
508.414	702.28
508.622	317.26
508.83	358.22
509.037	1058.63
509.245	550.73
509.453	292.69
509.661	284.5
509.869	810.82
510.077	646.99
510.285	591.69
510.492	151.38
510.7	1228.61
510.908	634.7
511.116	442.19
511.324	460.62
511.531	624.46
511.739	784.2
511.947	558.92
512.155	735.05
512.362	874.31
512.57	431.95
512.778	411.47
512.985	366.42
513.193	968.52
513.401	1204.03
513.608	489.29
513.816	409.42
514.024	888.65
514.231	978.76
514.439	544.59
514.646	466.77
514.854	902.98
515.061	1068.87
515.269	495.44
515.477	489.29
515.684	612.17
515.892	1107.78
516.099	290.64
516.307	368.46
516.514	1124.16
516.722	1199.94
516.929	505.68
517.136	511.82
517.344	1101.64
517.551	1019.72
517.759	460.62
517.966	616.27
518.173	698.19
518.381	896.84
518.588	624.46
518.796	454.48
519.003	1128.26
519.21	741.19
519.418	505.68
519.625	872.26
519.832	710.47
520.039	991.05
520.247	397.14
520.454	667.47
520.661	1011.53
520.868	972.61
521.076	663.37
521.283	718.67
521.49	1472.32
521.697	995.14
521.904	679.75
522.112	603.98
522.319	1185.6
522.526	1038.15
522.733	585.55
522.94	628.56
523.147	945.99
523.354	1075.01
523.561	528.21
523.768	681.8
523.975	1185.6
524.183	950.09
524.39	722.76
524.597	583.5
524.804	1034.05
525.011	888.65
525.218	640.84
525.425	692.04
525.632	1304.39
525.838	847.69
526.045	595.79
526.252	640.84
526.459	2092.85
526.666	1908.54
526.873	679.75
527.08	743.24
527.287	1498.94
527.494	1269.57
527.701	671.56
527.907	683.85
528.114	1144.64
528.321	1089.35
528.528	849.74
528.735	796.49
528.941	1038.15
529.148	1027.91
529.355	878.41
529.562	767.82
529.768	1472.32
529.975	1046.34
530.182	825.16
530.388	726.86
530.595	1435.46
530.802	831.3
531.008	1021.77
531.215	929.61
531.422	1554.24
531.628	1916.73
531.835	986.95
532.042	968.52
532.248	1083.2
532.455	1173.32
532.661	978.76
532.868	866.12
533.074	1312.58
533.281	1400.64
533.487	1034.05
533.694	849.74
533.9	1015.62
534.107	1359.68
534.313	825.16
534.52	765.77
534.726	1478.46
534.933	1632.06
535.139	884.55
535.345	851.78
535.552	1392.45
535.758	1388.35
535.965	1001.29
536.171	857.93
536.377	1521.47
536.584	1593.15
536.79	966.47
536.996	1052.49
537.203	1349.44
537.409	1484.61
537.615	1083.2
537.821	1216.32
538.028	1515.33
538.234	1531.71
538.44	1161.03
538.646	1169.22
538.853	1496.89
539.059	1357.63
539.265	1500.99
539.471	771.91
539.677	1496.89
539.883	1361.73
540.09	1075.01
540.296	1636.16
540.502	1408.83
540.708	1218.37
540.914	1398.59
541.12	1132.36
541.326	1627.96
541.532	1351.49
541.738	1312.58
541.944	1234.75
542.15	1732.41
542.356	1345.34
542.562	1138.5
542.768	1288
542.974	2051.89
543.18	2021.17
543.386	1292.1
543.592	1009.48
543.798	1910.58
544.004	1871.67
544.21	1183.56
544.415	1339.2
544.621	1529.66
544.827	1875.77
545.033	1244.99
545.239	1523.52
545.445	1320.77
545.651	1679.16
545.856	1400.64
546.062	1255.23
546.268	1492.8
546.474	1599.29
546.679	1316.67
546.885	1322.82
547.091	1410.88
547.297	2045.75
547.502	1365.82
547.708	1150.79
547.914	1384.26
548.119	1851.19
548.325	1263.43
548.531	1230.66
548.736	2019.13
548.942	1523.52
549.147	1300.29
549.353	1533.76
549.559	2023.22
549.764	1890.1
549.97	1371.97
550.175	1507.13
550.381	1961.78
550.586	1605.44
550.792	1441.6
550.997	1384.26
551.203	1797.95
551.408	1955.64
551.614	1357.63
551.819	1337.15
552.025	2111.29
552.23	2297.65
552.435	1402.69
552.641	1646.4
552.846	1750.84
553.052	1976.12
553.257	1611.58
553.462	1574.72
553.668	1619.77
553.873	2096.95
554.078	1482.56
554.283	1546.05
554.489	1900.34
554.694	1799.99
554.899	1486.65
555.105	1705.79
555.31	2004.79
555.515	2035.51
555.72	1650.49
555.925	1584.96
556.131	2039.61
556.336	1808.19
556.541	1681.21
556.746	1587.01
556.951	2311.99
557.156	2238.26
557.361	1810.23
557.567	1754.94
557.772	2547.5
557.977	2131.76
558.182	1664.83
558.387	1666.88
558.592	1799.99
558.797	2344.75
559.002	1890.1
559.207	1750.84
559.412	1898.3
559.617	2357.04
559.822	1759.03
560.027	1711.93
560.232	2197.3
560.437	2275.12
560.642	1642.3
560.847	1613.63
561.051	2121.52
561.256	2043.7
561.461	1765.18
561.666	1562.43
561.871	2178.87
562.076	2230.07
562.281	1826.62
562.485	1681.21
562.69	2295.6
562.895	2217.78
563.1	1861.43
563.305	1754.94
563.509	2445.1
563.714	2719.53
563.919	1810.23
564.123	1834.81
564.328	2252.59
564.533	2438.96
564.737	1820.47
564.942	1787.71
565.147	2713.39
565.351	2676.52
565.556	2055.99
565.761	1986.36
565.965	2287.41
566.17	1957.69
566.374	1785.66
566.579	1793.85
566.784	2209.59
566.988	2051.89
567.193	1883.96
567.397	1988.41
567.602	1957.69
567.806	2299.7
568.011	2058.04
568.215	2060.09
568.42	2324.27
568.624	2314.03
568.828	2094.9
569.033	2168.63
569.237	2545.45
569.442	2490.16
569.646	1886.01
569.85	2142
570.055	2303.79
570.259	2436.91
570.463	2309.94
570.668	2152.24
570.872	2277.17
571.076	2326.32
571.281	2443.06
571.485	2205.49
571.689	2328.37
571.893	2588.46
572.098	2228.02
572.302	2252.59
572.506	2643.76
572.71	2481.97
572.914	2201.4
573.119	2213.68
573.323	2864.94
573.527	2840.36
573.731	2252.59
573.935	2221.88
574.139	2508.59
574.343	2352.95
574.547	2246.45
574.751	2211.64
574.955	2938.66
575.159	2848.55
575.364	2209.59
575.568	2228.02
575.772	2621.23
575.976	2801.45
576.18	2258.74
576.383	2238.26
576.587	2914.09
576.791	2651.95
576.995	2119.48
577.199	2225.97
577.403	2864.94
577.607	2991.91
577.811	2369.33
578.015	2455.34
578.219	2742.06
578.422	2955.05
578.626	2393.9
578.83	2504.5
579.034	3045.16
579.238	2754.35
579.442	2393.9
579.645	2803.5
579.849	2785.07
580.053	2758.44
580.257	2557.74
580.46	2537.26
580.664	3024.68
580.868	2932.52
581.071	2748.2
581.275	2639.66
581.479	2604.85
581.682	2979.62
581.886	2563.89
582.09	2590.51
582.293	3206.95
582.497	3006.25
582.7	2934.57
582.904	2414.38
583.107	2953
583.311	2774.83
583.515	2647.85
583.718	2772.78
583.922	3000.1
584.125	3354.4
584.329	2518.83
584.532	2883.37
584.735	3155.75
584.939	3034.92
585.142	2594.61
585.346	2570.03
585.549	3202.85
585.753	2832.17
585.956	2819.88
586.159	3053.35
586.363	3473.18
586.566	3252
586.769	2725.68
586.973	2654
587.176	3266.34
587.379	3305.25
587.582	3141.41
587.786	3114.79
587.989	3168.04
588.192	3815.2
588.395	2852.65
588.599	3041.06
588.802	3319.59
589.005	3368.74
589.208	2967.34
589.411	2936.62
589.615	3340.07
589.818	3786.52
590.021	3133.22
590.224	3008.3
590.427	3501.86
590.63	3499.81
590.833	2701.1
591.036	2873.13
591.239	3266.34
591.442	3129.13
591.645	3133.22
591.848	2955.05
592.051	3295.01
592.254	3512.1
592.457	3217.19
592.66	3110.69
592.863	3350.31
593.066	3370.79
593.269	3209
593.472	3286.82
593.675	3323.68
593.878	3647.26
594.081	3165.99
594.284	3143.46
594.486	3663.65
594.689	3594.01
594.892	3194.66
595.095	3346.21
595.298	3655.45
595.5	3348.26
595.703	3473.18
595.906	3405.6
596.109	3839.77
596.311	3723.04
596.514	2907.94
596.717	3452.7
596.92	3907.35
597.122	3720.99
597.325	3088.17
597.528	3254.05
597.73	3880.73
597.933	3653.41
598.136	3407.65
598.338	3129.13
598.541	3768.09
598.743	3827.48
598.946	3329.83
599.148	3460.9
599.351	3901.21
599.554	3890.97
599.756	3477.28
599.959	3421.99
600.161	4001.56
600.363	4372.24
600.566	3614.49
600.768	3544.86
600.971	4255.51
601.173	3985.18
601.376	3448.61
601.578	3641.12
601.78	4110.1
601.983	4359.95
602.185	3573.53
602.388	3630.88
602.59	3991.32
602.792	3669.79
602.995	3735.32
603.197	3546.91
603.399	4079.38
603.601	3858.2
603.804	3630.88
604.006	3624.73
604.208	3809.05
604.41	3417.89
604.613	3909.4
604.815	3667.74
605.017	4511.5
605.219	3751.71
605.421	4034.33
605.623	3718.94
605.826	4253.46
606.028	4402.96
606.23	3798.81
606.432	3716.89
606.634	4351.76
606.836	4341.52
607.038	3702.56
607.24	3798.81
607.442	4220.69
607.644	3886.87
607.846	3841.82
608.048	3739.42
608.25	4464.4
608.452	4069.14
608.654	3905.31
608.856	3475.23
609.058	4056.86
609.26	4280.08
609.462	3872.54
609.664	3940.12
609.866	4669.2
610.067	4466.45
610.269	4132.63
610.471	3989.27
610.673	4220.69
610.875	4306.71
611.077	3837.72
611.278	4077.34
611.48	4357.91
611.682	4689.68
611.884	4173.59
612.085	4167.45
612.287	4185.88
612.489	4488.98
612.69	3823.39
612.892	4212.5
613.094	4605.71
613.295	4507.41
613.497	3888.92
613.699	4126.49
613.9	4747.02
614.102	4562.7
614.304	4079.38
614.505	3931.93
614.707	4259.6
614.908	4402.96
615.11	4118.29
615.311	4183.83
615.513	4656.91
615.714	4593.42
615.916	3987.22
616.117	4290.32
616.319	4529.94
616.52	4607.76
616.722	4097.81
616.923	4058.9
617.124	4732.69
617.326	4691.73
617.527	4298.52
617.729	4622.09
617.93	4661.01
618.131	4691.73
618.333	4249.36
618.534	4462.35
618.735	4466.45
618.937	4917
619.138	4132.63
619.339	4257.56
619.54	4650.77
619.742	4572.94
619.943	4704.01
620.144	4407.06
620.345	5000.97
620.546	4826.89
620.748	4349.71
620.949	4390.67
621.15	4734.73
621.351	4763.4
621.552	4321.04
621.753	4222.74
621.954	4321.04
622.155	5132.04
622.356	4325.14
622.558	4618
622.759	4679.44
622.96	5101.32
623.161	4470.55
623.362	4429.59
623.563	4744.97
623.764	4835.08
623.965	4462.35
624.166	4843.28
624.366	4661.01
624.567	4796.17
624.768	4282.13
624.969	4525.84
625.17	4785.93
625.371	4847.37
625.572	4544.27
625.773	4566.8
625.973	5170.95
626.174	4992.78
626.375	4767.5
626.576	4706.06
626.777	5068.55
626.977	5476.1
627.178	4540.18
627.379	4777.74
627.58	4914.95
627.78	4876.04
627.981	4790.03
628.182	4843.28
628.382	5308.16
628.583	4675.34
628.784	4691.73
628.984	4873.99
629.185	5193.48
629.386	5037.83
629.586	4818.7
629.787	4759.31
629.987	5320.45
630.188	5068.55
630.388	4775.69
630.589	4841.23
630.79	5615.36
630.99	5191.43
631.191	4884.23
631.391	4800.27
631.591	5279.49
631.792	5666.56
631.992	5007.11
632.193	4902.67
632.393	5701.37
632.594	5129.99
632.794	4929.29
632.994	5080.84
633.195	5084.94
633.395	5191.43
633.595	5041.93
633.796	5191.43
633.996	5170.95
634.196	5506.82
634.397	4992.78
634.597	5119.75
634.797	4966.15
634.997	5750.53
635.198	5238.53
635.398	4808.46
635.598	5349.12
635.798	5627.65
635.998	5504.77
636.199	5046.02
636.399	5365.51
636.599	5193.48
636.799	5048.07
636.999	5494.53
637.199	5551.87
637.399	5738.24
637.599	5175.05
637.799	5345.03
637.999	5279.49
638.199	5981.95
638.399	5224.2
638.599	5324.55
638.799	5799.68
638.999	5963.51
639.199	5396.23
639.399	5457.67
639.599	5771.01
639.799	5234.44
639.999	5293.83
640.199	5279.49
640.399	5459.71
640.599	5707.52
640.799	5404.42
640.998	5611.26
641.198	5889.79
641.398	5760.77
641.598	5447.43
641.798	5320.45
641.997	6690.54
642.197	5609.22
642.397	5590.78
642.597	5338.88
642.796	5900.03
642.996	6143.74
643.196	5500.67
643.395	5293.83
643.595	5834.49
643.795	5263.11
643.994	5478.15
644.194	5437.19
644.394	5953.27
644.593	5902.08
644.793	5412.61
644.992	5660.41
645.192	6106.87
645.392	5283.59
645.591	5666.56
645.791	5738.24
645.99	5973.75
646.19	5951.23
646.389	5762.81
646.589	5570.3
646.788	6113.02
646.987	6033.15
647.187	6121.21
647.386	6004.47
647.586	5969.66
647.785	6205.17
647.984	5859.07
648.184	6051.58
648.383	5897.98
648.582	5791.48
648.782	5850.88
648.981	5873.4
649.18	5771.01
649.38	6002.43
649.579	5951.23
649.778	5768.96
649.977	6162.17
650.177	6170.36
650.376	5678.85
650.575	5676.8
650.774	6495.99
650.973	5955.32
651.173	5646.08
651.372	5992.19
651.571	6156.02
651.77	6567.67
651.969	5877.5
652.168	5930.75
652.367	6018.81
652.566	6131.45
652.765	6031.1
652.964	6168.31
653.163	6584.05
653.362	6194.93
653.561	5967.61
653.76	6100.73
653.959	6203.13
654.158	6495.99
654.357	6354.68
654.556	6168.31
654.755	6600.43
654.954	6536.95
655.153	6213.37
655.352	6422.26
655.551	6387.44
655.749	6252.28
655.948	6113.02
656.147	6199.03
656.346	6373.11
656.545	6455.03
656.743	6180.6
656.942	6301.43
657.141	6375.16
657.34	6285.05
657.538	6037.24
657.737	6235.89
657.936	6358.77
658.135	6571.76
658.333	6321.91
658.532	6301.43
658.731	6889.2
658.929	6878.96
659.128	6555.38
659.326	6383.35
659.525	6987.5
659.724	6567.67
659.922	5953.27
660.121	6229.75
660.319	6682.35
660.518	6289.14
660.716	6268.66
660.915	6342.39
661.113	6913.77
661.312	6254.33
661.51	6565.62
661.709	6409.97
661.907	6649.58
662.105	7075.56
662.304	6364.92
662.502	6565.62
662.701	6932.2
662.899	6713.07
663.097	6799.09
663.296	6309.62
663.494	6901.48
663.692	7106.28
663.891	6399.73
664.089	6436.6
664.287	6813.42
664.485	7098.09
664.684	6625.01
664.882	6764.27
665.08	6774.51
665.278	6956.78
665.476	6350.58
665.675	6895.34
665.873	7317.22
666.071	7134.95
666.269	6758.13
666.467	6745.84
666.665	6971.11
666.863	6768.37
667.061	6788.85
667.259	6663.92
667.457	6766.32
667.655	6995.69
667.853	6518.51
668.051	6895.34
668.249	6735.6
668.447	7098.09
668.645	6758.13
668.843	7038.7
669.041	7161.58
669.239	6813.42
669.437	6831.85
669.635	6821.61
669.833	6854.38
670.031	7204.58
670.229	6655.73
670.426	6903.53
670.624	6926.06
670.822	6760.17
671.02	6770.41
671.218	6743.79
671.415	7063.27
671.613	6973.16
671.811	6954.73
672.009	6926.06
672.206	7225.06
672.404	6967.02
672.602	7089.9
672.799	7044.84
672.997	7362.28
673.195	7431.91
673.392	7110.38
673.59	6694.64
673.788	7337.7
673.985	6555.38
674.183	6928.11
674.38	6850.28
674.578	7544.55
674.775	7005.93
674.973	6776.56
675.17	6876.91
675.368	7528.16
675.565	7313.13
675.763	6940.4
675.96	7104.23
676.158	7515.87
676.355	7241.45
676.553	6915.82
676.75	7038.7
676.947	7155.43
677.145	7065.32
677.342	6997.74
677.539	7096.04
677.737	7446.24
677.934	7823.07
678.131	7218.92
678.329	6881
678.526	7698.14
678.723	7407.33
678.92	7241.45
679.118	7102.18
679.315	6850.28
679.512	7554.79
679.709	7087.85
679.906	7223.02
680.104	7603.94
680.301	7214.82
680.498	7053.03
680.695	6911.72
680.892	6950.64
681.089	7108.33
681.286	7206.63
681.483	6944.49
681.68	7442.15
681.877	7419.62
682.075	7218.92
682.272	7358.18
682.469	7436
682.665	7249.64
682.862	7075.56
683.059	6954.73
683.256	7337.7
683.453	7382.76
683.65	7216.87
683.847	7143.14
684.044	7227.11
684.241	7038.7
684.438	7505.63
684.635	6997.74
684.831	8072.92
685.028	7972.57
685.225	7204.58
685.422	7270.12
685.619	7306.98
685.815	7501.54
686.012	7446.24
686.209	7071.47
686.405	7079.66
686.602	7626.46
686.799	6991.59
686.996	7159.53
687.192	7050.99
687.389	7927.52
687.586	7053.03
687.782	7053.03
687.979	7763.68
688.175	7714.53
688.372	7311.08
688.568	7223.02
688.765	7268.07
688.962	7831.26
689.158	7528.16
689.355	7190.25
689.551	7667.42
689.748	7550.69
689.944	7423.72
690.14	7071.47
690.337	7808.73
690.533	7325.41
690.73	7354.09
690.926	7395.04
691.123	7565.03
691.319	7599.84
691.515	7298.79
691.712	7266.02
691.908	7657.18
692.104	7575.27
692.301	7481.06
692.497	7288.55
692.693	7823.07
692.889	7608.03
693.086	7507.68
693.282	7300.84
693.478	7536.35
693.674	7864.03
693.87	7352.04
694.067	7290.6
694.263	7624.42
694.459	7411.43
694.655	7550.69
694.851	7595.75
695.047	7915.23
695.243	7769.82
695.439	7540.45
695.635	7489.25
695.831	7726.82
696.027	7495.39
696.224	7337.7
696.42	7796.45
696.615	8046.3
696.811	7708.38
697.007	7237.35
697.203	7438.05
697.399	7700.19
697.595	8132.31
697.791	7343.85
697.987	7462.63
698.183	7448.29
698.379	7427.81
698.575	7519.97
698.77	7522.02
698.966	7884.51
699.162	8034.01
699.358	7397.09
699.554	7517.92
699.749	8050.39
699.945	7876.32
700.141	7761.63
700.337	7644.9
700.532	7665.38
700.728	7458.53
700.924	7628.51
701.119	7177.96
701.315	7796.45
701.511	7755.49
701.706	7636.7
701.902	7257.83
702.097	7487.2
702.293	7950.04
702.489	7503.59
702.684	7495.39
702.88	7948
703.075	7704.29
703.271	7571.17
703.466	7433.96
703.662	7730.91
703.857	7921.37
704.053	7407.33
704.248	7419.62
704.443	8011.48
704.639	8068.83
704.834	7601.89
705.03	7634.66
705.225	7882.46
705.42	8185.56
705.616	7872.22
705.811	7513.83
706.006	7616.23
706.202	7763.68
706.397	7798.49
706.592	7620.32
706.787	8105.69
706.983	7730.91
707.178	7904.99
707.373	7581.41
707.568	8115.93
707.763	8136.41
707.959	7626.46
708.154	7587.55
708.349	7913.18
708.544	8050.39
708.739	8142.55
708.934	7362.28
709.129	8060.63
709.324	8154.84
709.519	7677.66
709.714	7495.39
709.909	8310.49
710.104	7954.14
710.299	7620.32
710.494	7896.8
710.689	8009.44
710.884	7753.44
711.079	7677.66
711.274	7870.17
711.469	8128.22
711.664	7954.14
711.859	7739.1
712.054	7735.01
712.249	8013.53
712.443	8224.47
712.638	7595.75
712.833	7767.77
713.028	7964.38
713.223	7890.65
713.417	8003.29
713.612	7882.46
713.807	8185.56
714.002	8625.87
714.196	8087.26
714.391	7773.92
714.586	8357.59
714.78	8017.63
714.975	7749.34
715.17	7804.64
715.364	8101.59
715.559	8404.69
715.754	7427.81
715.948	7712.48
716.143	8500.95
716.337	8072.92
716.532	8206.04
716.726	7831.26
716.921	8148.7
717.115	8609.49
717.31	7739.1
717.504	8308.44
717.699	7812.83
717.893	8214.23
718.088	7632.61
718.282	7481.06
718.476	8021.72
718.671	8122.07
718.865	7876.32
719.059	7696.1
719.254	8091.35
719.448	8177.37
719.642	9107.15
719.837	7536.35
720.031	8079.07
720.225	8070.87
720.419	8007.39
720.614	7706.34
720.808	8449.75
721.002	7855.84
721.196	7622.37
721.39	7603.94
721.585	8322.77
721.779	8171.22
721.973	7861.98
722.167	7397.09
722.361	8111.83
722.555	8247
722.749	7534.31
722.943	8079.07
723.137	7921.37
723.331	8087.26
723.525	7575.27
723.719	7704.29
723.913	8230.62
724.107	8498.9
724.301	7706.34
724.495	7724.77
724.689	8357.59
724.883	8287.96
725.077	7825.12
725.271	7870.17
725.465	8496.85
725.659	7964.38
725.853	7993.05
726.046	7755.49
726.24	7950.04
726.434	8226.52
726.628	7970.52
726.822	8093.4
727.015	8335.06
727.209	8347.35
727.403	8079.07
727.596	7829.21
727.79	8404.69
727.984	8414.93
728.177	7839.45
728.371	7870.17
728.565	8337.11
728.758	7847.65
728.952	7722.72
729.146	7864.03
729.339	8373.97
729.533	8343.25
729.726	7710.43
729.92	7952.09
730.113	8558.29
730.307	8107.74
730.5	7894.75
730.694	7874.27
730.887	8177.37
731.081	8447.7
731.274	7829.21
731.468	8054.49
731.661	8216.28
731.854	8247
732.048	7925.47
732.241	7878.37
732.435	8247
732.628	8369.88
732.821	8117.98
733.014	7859.93
733.208	7970.52
733.401	8509.14
733.594	7923.42
733.788	8042.2
733.981	8546
734.174	8371.93
734.367	8163.03
734.56	8160.98
734.754	8658.64
734.947	8330.97
735.14	7976.67
735.333	8036.06
735.526	8408.79
735.719	8140.51
735.912	8199.9
736.105	7945.95
736.298	8208.09
736.491	8247
736.684	8126.17
736.877	7904.99
737.07	8580.82
737.263	8799.95
737.456	8009.44
737.649	7984.86
737.842	8220.38
738.035	8232.66
738.228	8158.94
738.421	8285.91
738.614	8748.75
738.807	8527.57
739	7952.09
739.192	8031.96
739.385	8574.67
739.578	8611.54
739.771	8533.72
739.964	8173.27
740.156	8675.02
740.349	8234.71
740.542	8435.41
740.735	7974.62
740.927	8124.12
741.12	8228.57
741.313	7847.65
741.505	8429.27
741.698	8492.76
741.891	8527.57
742.083	8419.03
742.276	8351.45
742.468	8525.52
742.661	8625.87
742.854	8257.24
743.046	8111.83
743.239	8773.33
743.431	8507.09
743.624	8193.75
743.816	7935.71
744.009	8367.83
744.201	8591.06
744.393	8419.03
744.586	8044.25
744.778	8902.35
744.971	8224.47
745.163	8214.23
745.355	8470.23
745.548	8429.27
745.74	8355.54
745.932	8285.91
746.125	8296.15
746.317	9119.43
746.509	8517.33
746.702	8191.7
746.894	8341.21
747.086	8640.21
747.278	8722.13
747.471	8494.8
747.663	8281.81
747.855	8472.28
748.047	8789.71
748.239	8103.64
748.431	8156.89
748.623	9031.37
748.815	8660.69
749.008	8349.4
749.2	8353.49
749.392	8810.19
749.584	8660.69
749.776	8345.3
749.968	8333.01
750.16	9031.37
750.352	8367.83
750.544	8414.93
750.736	8027.87
750.928	8750.8
751.12	8378.07
751.311	8197.85
751.503	8320.73
751.695	8619.73
751.887	8421.08
752.079	8154.84
752.271	8111.83
752.463	9412.29
752.654	8748.75
752.846	8302.29
753.038	8208.09
753.23	8283.86
753.421	8642.26
753.613	8183.51
753.805	8523.48
753.997	9008.84
754.188	8873.68
754.38	8165.08
754.572	8431.32
754.763	8515.28
754.955	8437.46
755.146	8410.84
755.338	8445.65
755.53	8570.58
755.721	8496.85
755.913	8124.12
756.104	8099.55
756.296	8496.85
756.487	8656.59
756.679	8353.49
756.87	8132.31
757.062	8419.03
757.253	8840.91
757.445	8036.06
757.636	8185.56
757.827	8552.15
758.019	9135.82
758.21	8382.17
758.401	8195.8
758.593	8969.93
758.784	8888.01
758.975	8115.93
759.167	8255.19
759.358	8468.18
759.549	8869.58
759.74	8228.57
759.932	8044.25
760.123	8793.81
760.314	8351.45
760.505	8128.22
760.696	7864.03
760.888	9074.38
761.079	8232.66
761.27	8062.68
761.461	7861.98
761.652	8828.62
761.843	8296.15
762.034	8115.93
762.225	8386.26
762.416	8455.89
762.607	8390.36
762.798	8005.34
762.989	8230.62
763.18	9115.34
763.371	8115.93
763.562	8173.27
763.753	8189.66
763.944	8517.33
764.135	8517.33
764.326	8279.77
764.517	8109.79
764.708	8404.69
764.899	8447.7
765.089	8003.29
765.28	7974.62
765.471	8685.26
765.662	8451.8
765.853	8179.42
766.043	7896.8
766.234	8681.17
766.425	8476.37
766.615	8304.34
766.806	8005.34
766.997	8615.63
767.187	8394.45
767.378	8038.11
767.569	7724.77
767.759	8367.83
767.95	8351.45
768.141	8247
768.331	7986.91
768.522	8308.44
768.712	8554.19
768.903	8017.63
769.093	7919.32
769.284	8597.2
769.474	8357.59
769.665	7749.34
769.855	7892.7
770.046	8500.95
770.236	8185.56
770.426	8203.99
770.617	7864.03
770.807	8230.62
770.998	8533.72
771.188	8103.64
771.378	7880.41
771.569	8464.08
771.759	8531.67
771.949	7759.58
772.139	7818.97
772.33	8255.19
772.52	8756.94
772.71	7933.66
772.9	7849.69
773.09	8613.59
773.281	8449.75
773.471	7792.35
773.661	8091.35
773.851	8419.03
774.041	8074.97
774.231	7925.47
774.421	8214.23
774.611	8550.1
774.802	8007.39
774.992	7997.15
775.182	7943.9
775.372	8074.97
775.562	8550.1
775.752	7960.28
775.942	7861.98
776.131	8543.95
776.321	8320.73
776.511	7800.54
776.701	7814.88
776.891	8509.14
777.081	7892.7
777.271	8095.45
777.461	7915.23
777.651	8304.34
777.84	8367.83
778.03	7823.07
778.22	7702.24
778.41	8380.12
778.599	7943.9
778.789	7796.45
778.979	7595.75
779.169	8167.13
779.358	8068.83
779.548	8144.6
779.738	7632.61
779.927	8232.66
780.117	7923.42
780.307	7829.21
780.496	7376.61
780.686	8150.74
780.875	8582.87
781.065	7823.07
781.254	7530.21
781.444	8011.48
781.633	8031.96
781.823	7745.25
782.012	7810.78
782.202	7778.01
782.391	7818.97
782.581	7775.97
782.77	7743.2
782.96	8292.05
783.149	7798.49
783.338	7673.57
783.528	7558.88
783.717	8308.44
783.906	8234.71
784.096	7644.9
784.285	7753.44
784.474	7780.06
784.663	7964.38
784.853	7798.49
785.042	7646.94
785.231	7927.52
785.42	8345.3
785.61	7718.62
785.799	7526.11
785.988	7780.06
786.177	7890.65
786.366	7804.64
786.555	7929.56
786.744	8220.38
786.933	7974.62
787.122	7552.74
787.312	7665.38
787.501	7878.37
787.69	8062.68
787.879	7724.77
788.068	7657.18
788.257	7560.93
788.445	7700.19
788.634	7773.92
788.823	7495.39
789.012	8543.95
789.201	8378.07
789.39	7605.99
789.579	7487.2
789.768	7974.62
789.957	7821.02
790.145	7653.09
790.334	7511.78
790.523	7669.47
790.712	7788.25
790.9	7771.87
791.089	7362.28
791.278	8087.26
791.467	7956.19
791.655	7933.66
791.844	8122.07
792.033	7474.92
792.221	7634.66
792.41	7718.62
792.599	7329.51
792.787	8019.67
792.976	8158.94
793.164	7436
793.353	7550.69
793.541	8087.26
793.73	8021.72
793.918	7675.62
794.107	7560.93
794.295	7657.18
794.484	7730.91
794.672	7593.7
794.861	7495.39
795.049	7958.24
795.238	8171.22
795.426	7282.41
795.614	7540.45
795.803	7919.32
795.991	8079.07
796.179	7462.63
796.368	7581.41
796.556	7982.81
796.744	7438.05
796.932	7456.48
797.121	7565.03
797.309	7712.48
797.497	8019.67
797.685	7646.94
797.874	7436
798.062	7796.45
798.25	8165.08
798.438	7605.99
798.626	7515.87
798.814	8017.63
799.002	8513.24
799.19	7634.66
799.378	7718.62
799.566	8087.26
799.755	8326.87
799.943	7810.78
800.131	7659.23
800.318	8001.24
800.506	7937.76
800.694	7595.75
800.882	7767.77
801.07	8187.61
801.258	7943.9
801.446	7687.9
801.634	7390.95
801.822	7896.8
802.01	7804.64
802.197	7448.29
802.385	7761.63
802.573	7974.62
802.761	7667.42
802.949	7390.95
803.136	7726.82
803.324	8079.07
803.512	7945.95
803.699	7698.14
803.887	7411.43
804.075	8259.29
804.262	7591.65
804.45	7593.7
804.638	7667.42
804.825	7872.22
805.013	7861.98
805.201	7718.62
805.388	7833.31
805.576	8167.13
805.763	8419.03
805.951	7716.58
806.138	7931.61
806.326	8503
806.513	8197.85
806.701	7909.08
806.888	7751.39
807.075	8175.32
807.263	8560.34
807.45	7716.58
807.638	7896.8
807.825	8558.29
808.012	8435.41
808.2	7976.67
808.387	8134.36
808.574	8179.42
808.761	8525.52
808.949	8019.67
809.136	7966.43
809.323	8230.62
809.51	8253.14
809.698	8222.42
809.885	8197.85
810.072	8365.78
810.259	8711.89
810.446	8099.55
810.633	8128.22
810.82	8693.46
811.008	8599.25
811.195	8210.14
811.382	8001.24
811.569	8341.21
811.756	8079.07
811.943	8103.64
812.13	7993.05
812.317	8361.69
812.504	8247
812.691	8271.58
812.878	8122.07
813.064	8711.89
813.251	8302.29
813.438	8042.2
813.625	8107.74
813.812	8122.07
813.999	8257.24
814.186	8326.87
814.372	8019.67
814.559	8511.19
814.746	8677.07
814.933	8158.94
815.12	8537.81
815.306	8126.17
815.493	8349.4
815.68	8124.12
815.866	8154.84
816.053	8662.74
816.24	8677.07
816.426	8290.01
816.613	8017.63
816.799	8636.11
816.986	8681.17
817.173	8165.08
817.359	8091.35
817.546	8353.49
817.732	8103.64
817.919	7874.27
818.105	8191.7
818.292	8361.69
818.478	8492.76
818.665	8398.55
818.851	8042.2
819.037	8869.58
819.224	8503
819.41	8181.46
819.597	8247
819.783	8959.69
819.969	8474.32
820.156	8160.98
820.342	8027.87
820.528	9027.28
820.714	8253.14
820.901	8294.1
821.087	8224.47
821.273	8689.36
821.459	8296.15
821.646	7976.67
821.832	8181.46
822.018	8519.38
822.204	8349.4
822.39	8101.59
822.576	7937.76
822.762	8494.8
822.948	8218.33
823.134	8263.38
823.32	7861.98
823.507	8005.34
823.693	8533.72
823.879	8562.39
824.065	8068.83
824.25	8283.86
824.436	8273.62
824.622	8021.72
824.808	7827.17
824.994	8111.83
825.18	8171.22
825.366	7747.3
825.552	7880.41
825.738	8294.1
825.923	8494.8
826.109	8412.88
826.295	7775.97
826.481	8169.18
826.667	8285.91
826.852	7966.43
827.038	7829.21
827.224	8492.76
827.409	8584.91
827.595	7710.43
827.781	8091.35
827.966	8199.9
828.152	8251.1
828.338	8011.48
828.523	7786.21
828.709	8144.6
828.894	8521.43
829.08	7948
829.266	7984.86
829.451	7902.94
829.637	8419.03
829.822	7972.57
830.008	7823.07
830.193	8197.85
830.378	8447.7
830.564	8072.92
830.749	7790.3
830.935	8120.03
831.12	8138.46
831.305	7888.6
831.491	8064.73
831.676	7890.65
831.861	8570.58
832.047	7839.45
832.232	7681.76
832.417	8171.22
832.602	8070.87
832.788	7767.77
832.973	7612.13
833.158	8169.18
833.343	8193.75
833.528	7890.65
833.714	8025.82
833.899	8179.42
834.084	8445.65
834.269	7902.94
834.454	7857.89
834.639	8277.72
834.824	7982.81
835.009	7993.05
835.194	7950.04
835.379	8396.5
835.564	8275.67
835.749	7956.19
835.934	7712.48
836.119	8353.49
836.304	7898.84
836.489	7696.1
836.674	8054.49
836.859	7759.58
837.044	8378.07
837.228	7630.56
837.413	7624.42
837.598	8015.58
837.783	8083.16
837.968	7837.41
838.152	7546.59
838.337	7704.29
838.522	8158.94
838.707	8046.3
838.891	7962.33
839.076	7847.65
839.261	8044.25
839.445	7861.98
839.63	7761.63
839.815	8242.9
839.999	7732.96
840.184	7657.18
840.368	7769.82
840.553	7960.28
840.737	8144.6
840.922	7401.19
841.106	7667.42
841.291	7595.75
841.475	7964.38
841.66	7671.52
841.844	7628.51
842.029	8517.33
842.213	7605.99
842.397	7556.83
842.582	7446.24
842.766	8027.87
842.951	8001.24
843.135	7579.36
843.319	7624.42
843.504	7745.25
843.688	7929.56
843.872	7339.75
844.056	7540.45
844.241	7966.43
844.425	7575.27
844.609	7769.82
844.793	7315.17
844.977	8005.34
845.161	7845.6
845.346	7335.65
845.53	7284.45
845.714	7698.14
845.898	7993.05
846.082	7048.94
846.266	7495.39
846.45	7612.13
846.634	7669.47
846.818	7522.02
847.002	7501.54
847.186	7780.06
847.37	7597.79
847.554	7388.9
847.738	7397.09
847.922	7562.98
848.106	7816.93
848.29	7112.42
848.473	7378.66
848.657	7749.34
848.841	7657.18
849.025	7288.55
849.209	7196.39
849.392	7778.01
849.576	7509.73
849.76	7093.99
849.944	7503.59
850.127	8046.3
850.311	7247.59
850.495	6993.64
850.678	7376.61
850.862	8050.39
851.046	7788.25
851.229	7476.96
851.413	7227.11
851.596	7509.73
851.78	7411.43
851.964	7456.48
852.147	7223.02
852.331	8003.29
852.514	7884.51
852.698	7362.28
852.881	7147.24
853.065	7739.1
853.248	7472.87
853.431	7288.55
853.615	7468.77
853.798	7839.45
853.982	7646.94
854.165	7491.3
854.348	7165.67
854.532	7354.09
854.715	7360.23
854.898	7317.22
855.081	7233.25
855.265	7931.61
855.448	7972.57
855.631	7175.91
855.814	7147.24
855.997	7751.39
856.181	7513.83
856.364	7032.55
856.547	6991.59
856.73	7536.35
856.913	7481.06
857.096	6866.67
857.279	7153.38
857.462	7216.87
857.645	7540.45
857.828	7268.07
858.011	7225.06
858.194	7302.89
858.377	7530.21
858.56	6827.76
858.743	7069.42
858.926	6999.79
859.109	7618.27
859.292	7081.71
859.475	6936.3
859.658	7788.25
859.841	7431.91
860.023	6870.76
860.206	6985.45
860.389	7427.81
860.572	7522.02
860.755	6985.45
860.937	6891.24
861.12	7274.21
861.303	7085.8
861.486	6819.57
861.668	6708.97
861.851	7403.24
862.034	7360.23
862.216	6993.64
862.399	6735.6
862.581	7280.36
862.764	7436
862.947	6719.21
863.129	6682.35
863.312	6686.45
863.494	7319.27
863.677	6995.69
863.859	6526.71
864.042	7124.71
864.224	7276.26
864.406	6989.55
864.589	6547.19
864.771	7210.73
864.954	6743.79
865.136	6641.39
865.318	6489.84
865.501	7042.79
865.683	6321.91
865.865	6514.42
866.048	6588.14
866.23	6891.24
866.412	6946.54
866.594	6645.49
866.777	6721.26
866.959	7194.34
867.141	6618.86
867.323	6809.33
867.505	6770.41
867.687	6797.04
867.869	7053.03
868.052	6641.39
868.234	6530.8
868.416	6919.92
868.598	6989.55
868.78	6608.62
868.962	6674.16
869.144	7333.61
869.326	6905.58
869.508	6577.9
869.69	6465.27
869.872	6833.9
870.054	7091.95
870.236	6538.99
870.417	6422.26
870.599	6745.84
870.781	7335.65
870.963	6606.58
871.145	6625.01
871.327	6502.13
871.508	7050.99
871.69	6586.1
871.872	6493.94
872.054	6852.33
872.235	7091.95
872.417	6606.58
872.599	6633.2
872.78	7229.16
872.962	6754.03
873.144	6448.88
873.325	6797.04
873.507	7401.19
873.689	6928.11
873.87	6430.45
874.052	6645.49
874.233	6889.2
874.415	6946.54
874.596	6895.34
874.778	6543.09
874.959	6815.47
875.141	6895.34
875.322	6678.26
875.503	6518.51
875.685	6862.57
875.866	6467.31
876.048	6547.19
876.229	6371.06
876.41	6860.52
876.592	7028.46
876.773	6833.9
876.954	6545.14
877.136	7317.22
877.317	6909.68
877.498	6450.93
877.679	6805.23
877.86	7149.29
878.042	6881
878.223	6614.77
878.404	6932.2
878.585	7073.51
878.766	7343.85
878.947	7007.98
879.128	7016.17
879.309	7231.21
879.49	7186.15
879.672	6772.46
879.853	6858.48
880.034	6784.75
880.215	6919.92
880.396	6924.01
880.576	6881
880.757	6903.53
880.938	7223.02
881.119	6768.37
881.3	6778.61
881.481	6883.05
881.662	7943.9
881.843	6838
882.023	6862.57
882.204	7223.02
882.385	7276.26
882.566	6878.96
882.747	6936.3
882.927	7304.93
883.108	7216.87
883.289	6866.67
883.469	7091.95
883.65	7116.52
883.831	7208.68
884.011	7118.57
884.192	7030.51
884.373	7671.52
884.553	7370.47
884.734	7200.49
884.914	7444.2
885.095	8156.89
885.275	7796.45
885.456	7431.91
885.636	6803.18
885.817	7507.68
885.997	7442.15
886.178	7079.66
886.358	7243.49
886.538	7460.58
886.719	8431.32
886.899	7169.77
887.08	7407.33
887.26	7724.77
887.44	7071.47
887.621	7104.23
887.801	7196.39
887.981	7984.86
888.161	7671.52
888.342	7145.19
888.522	7284.45
888.702	7950.04
888.882	7681.76
889.062	7405.28
889.242	7184.1
889.423	7861.98
889.603	7700.19
889.783	7499.49
889.963	7386.85
890.143	7898.84
890.323	7827.17
890.503	7327.46
890.683	7368.42
890.863	7505.63
891.043	7687.9
891.223	7321.32
891.403	7395.04
891.583	7696.1
891.763	7597.79
891.943	7495.39
892.122	7231.21
892.302	7595.75
892.482	7636.7
892.662	7517.92
892.842	7388.9
893.022	7788.25
893.201	7528.16
893.381	7704.29
893.561	7251.69
893.741	7759.58
893.92	7698.14
894.1	7479.01
894.28	7595.75
894.459	7814.88
894.639	7673.57
894.819	7333.61
894.998	7665.38
895.178	7743.2
895.357	7767.77
895.537	7431.91
895.716	7349.99
895.896	7597.79
896.075	8074.97
896.255	7552.74
896.434	7354.09
896.614	8054.49
896.793	8054.49
896.973	7626.46
897.152	7503.59
897.331	7839.45
897.511	7919.32
897.69	7280.36
897.87	7661.28
898.049	7974.62
898.228	7628.51
898.407	7540.45
898.587	7575.27
898.766	7419.62
898.945	7845.6
899.124	7603.94
899.304	7585.51
899.483	7898.84
899.662	8195.8
899.841	7403.24
900.02	7399.14
900.199	8013.53
900.378	7718.62
900.557	7376.61
900.737	7180.01
900.916	7851.74
901.095	7732.96
901.274	7620.32
901.453	7333.61
901.632	7493.35
901.811	7618.27
901.989	7100.14
902.168	7069.42
902.347	7788.25
902.526	7313.13
902.705	7292.65
902.884	7456.48
903.063	7927.52
903.242	7767.77
903.42	7315.17
903.599	7431.91
903.778	7640.8
903.957	7771.87
904.135	7374.56
904.314	7116.52
904.493	7612.13
904.672	7632.61
904.85	7227.11
905.029	7306.98
905.207	7593.7
905.386	8107.74
905.565	6930.16
905.743	7194.34
905.922	7151.34
906.1	7550.69
906.279	6889.2
906.457	7259.88
906.636	7442.15
906.814	7188.2
906.993	7167.72
907.171	6989.55
907.35	7421.67
907.528	7530.21
907.707	7274.21
907.885	7020.27
908.063	7884.51
908.242	7276.26
908.42	7186.15
908.598	6850.28
908.777	7419.62
908.955	7196.39
909.133	7165.67
909.311	6770.41
909.49	7134.95
909.668	7083.75
909.846	7108.33
910.024	6866.67
910.202	7196.39
910.38	7415.52
910.559	6674.16
910.737	6905.58
910.915	7087.85
911.093	7096.04
911.271	7026.41
911.449	7112.42
911.627	7431.91
911.805	7720.67
911.983	6838
912.161	6766.32
912.339	7395.04
912.517	7313.13
912.695	6915.82
912.872	6686.45
913.05	6801.13
913.228	6926.06
913.406	6657.78
913.584	6680.3
913.762	7182.06
913.939	6756.08
914.117	6659.82
914.295	6706.93
914.473	6936.3
914.65	6930.16
914.828	6565.62
915.006	6526.71
915.184	6788.85
915.361	6911.72
915.539	6690.54
915.716	6792.94
915.894	6788.85
916.072	7055.08
916.249	6817.52
916.427	6625.01
916.604	6622.96
916.782	6745.84
916.959	6207.22
917.137	6307.57
917.314	6620.91
917.492	6960.88
917.669	6350.58
917.847	6477.55
918.024	6680.3
918.201	6538.99
918.379	6424.31
918.556	6506.23
918.733	6950.64
918.911	6481.65
919.088	6577.9
919.265	6227.7
919.442	6674.16
919.62	6766.32
919.797	6184.69
919.974	6205.17
920.151	6491.89
920.328	6495.99
920.506	6186.74
920.683	6405.88
920.86	6182.65
921.037	6276.85
921.214	6125.3
921.391	6131.45
921.568	6696.69
921.745	6166.26
921.922	6020.86
922.099	6156.02
922.276	6481.65
922.453	6315.76
922.63	5850.88
922.807	6110.97
922.984	6014.71
923.161	5947.13
923.338	6000.38
923.514	5750.53
923.691	6207.22
923.868	6244.09
924.045	5859.07
924.222	5809.92
924.399	6004.47
924.575	6270.71
924.752	5891.84
924.929	5971.71
925.105	6149.88
925.282	5607.17
925.459	5670.65
925.635	5764.86
925.812	6043.39
925.989	5719.81
926.165	5560.06
926.342	5437.19
926.518	5527.3
926.695	5842.68
926.871	5611.26
927.048	5297.92
927.224	6164.22
927.401	5674.75
927.577	5572.35
927.754	5369.6
927.93	5822.2
928.107	5842.68
928.283	5437.19
928.459	5621.5
928.636	5764.86
928.812	5474.05
928.988	5236.49
929.165	5308.16
929.341	5406.47
929.517	5510.91
929.693	5553.92
929.87	5029.64
930.046	5617.41
930.222	5316.36
930.398	5117.7
930.574	5150.47
930.751	5291.78
930.927	5144.33
931.103	5207.81
931.279	5070.6
931.455	5265.16
931.631	5306.12
931.807	4921.1
931.983	4722.45
932.159	5089.03
932.335	5175.05
932.511	4855.56
932.687	4798.22
932.863	5162.76
933.039	4890.38
933.215	4656.91
933.391	4554.51
933.566	4906.76
933.742	5007.11
933.918	4675.34
934.094	4396.82
934.27	4785.93
934.445	4878.09
934.621	4552.46
934.797	4388.63
934.973	4876.04
935.148	4714.25
935.324	4235.03
935.5	4097.81
935.675	4656.91
935.851	4454.16
936.027	4122.39
936.202	4187.93
936.378	4343.57
936.553	4269.84
936.729	4396.82
936.904	3907.35
937.08	3870.49
937.255	3766.04
937.431	3602.21
937.606	3579.68
937.782	3729.18
937.957	3868.44
938.133	3651.36
938.308	3356.45
938.483	3735.32
938.659	3219.24
938.834	3546.91
939.009	3079.97
939.185	3403.55
939.36	3258.15
939.535	2852.65
939.71	3227.43
939.886	3503.9
940.061	3413.79
940.236	3133.22
940.411	3036.97
940.586	3229.48
940.761	3446.56
940.937	2950.95
941.112	2783.02
941.287	3151.65
941.462	2971.43
941.637	2789.16
941.812	2819.88
941.987	2942.76
942.162	2916.14
942.337	2715.44
942.512	2711.34
942.687	3184.42
942.862	3016.49
943.037	2471.73
943.212	2142
943.386	2680.62
943.561	2817.83
943.736	2690.86
943.911	2754.35
944.086	2926.38
944.26	2858.79
944.435	2490.16
944.61	2527.02
944.785	2907.94
944.959	3120.93
945.134	2520.88
945.309	2385.71
945.483	2557.74
945.658	2760.49
945.833	2174.77
946.007	2395.95
946.182	3098.41
946.357	2531.12
946.531	2307.89
946.706	2398
946.88	2238.26
947.055	2795.31
947.229	2400.05
947.404	2340.66
947.578	2950.95
947.752	2684.72
947.927	2273.07
948.101	2207.54
948.276	2686.76
948.45	2682.67
948.624	2524.97
948.799	2234.16
948.973	2602.8
949.147	2471.73
949.321	2408.24
949.496	2367.28
949.67	2760.49
949.844	2537.26
950.018	2361.14
950.193	2258.74
950.367	3053.35
950.541	2494.26
950.715	2676.52
950.889	2600.75
951.063	2610.99
951.237	2729.77
951.411	2223.92
951.585	2326.32
951.759	2789.16
951.933	2635.57
952.107	2387.76
952.281	2660.14
952.455	3090.21
952.629	2850.6
952.803	2451.25
952.977	2441.01
953.151	2811.69
953.325	2694.96
953.499	2533.17
953.672	2289.46
953.846	2381.62
954.02	2520.88
954.194	2266.93
954.368	2359.09
954.541	2635.57
954.715	2490.16
954.889	2422.58
955.062	2271.03
955.236	2645.8
955.41	2545.45
955.583	2672.43
955.757	2195.25
955.93	2639.66
956.104	2385.71
956.278	2375.47
956.451	2469.68
956.625	2692.91
956.798	3149.61
956.972	2658.09
957.145	2185.01
957.319	2608.94
957.492	2608.94
957.665	2594.61
957.839	2371.38
958.012	2635.57
958.185	2488.11
958.359	2428.72
958.532	2547.5
958.705	2758.44
958.879	2660.14
959.052	2434.86
959.225	2158.39
959.398	2565.93
959.572	2590.51
959.745	2273.07
959.918	2430.77
960.091	2533.17
960.264	2658.09
960.438	2242.36
960.611	2217.78
960.784	2731.82
960.957	2395.95
961.13	2672.43
961.303	2324.27
961.476	2514.73
961.649	2760.49
961.822	2326.32
961.995	2262.83
962.168	2686.76
962.341	2572.08
962.514	2256.69
962.686	2266.93
962.859	2561.84
963.032	2633.52
963.205	2352.95
963.378	2148.15
963.551	2647.85
963.723	2582.32
963.896	2301.75
964.069	2303.79
964.242	2463.54
964.414	2600.75
964.587	2320.18
964.76	2428.72
964.932	2529.07
965.105	2316.08
965.278	2336.56
965.45	2234.16
965.623	2543.41
965.795	2637.61
965.968	2158.39
966.14	2262.83
966.313	2359.09
966.485	2594.61
966.658	2178.87
966.83	2250.55
967.003	2725.68
967.175	2598.7
967.348	2248.5
967.52	2332.47
967.692	2803.5
967.865	2375.47
968.037	2326.32
968.209	2529.07
968.382	2453.3
968.554	2701.1
968.726	2406.19
968.898	2299.7
969.071	2496.3
969.243	2510.64
969.415	2381.62
969.587	2301.75
969.759	2938.66
969.932	2678.57
970.104	2266.93
970.276	1816.38
970.448	2367.28
970.62	2332.47
970.792	2328.37
970.964	2211.64
971.136	2842.41
971.308	2447.15
971.48	2062.13
971.652	2225.97
971.824	2672.43
971.996	2273.07
972.168	2055.99
972.339	2146.1
972.511	2553.65
972.683	2281.27
972.855	2350.9
973.027	2066.23
973.199	2309.94
973.37	2555.69
973.542	2086.71
973.714	2234.16
973.886	2180.92
974.057	2533.17
974.229	1972.02
974.401	2080.57
974.572	2152.24
974.744	1857.34
974.915	1980.22
975.087	1980.22
975.259	2625.33
975.43	2135.86
975.602	1972.02
975.773	2000.69
975.945	1994.55
976.116	2531.12
976.288	1984.31
976.459	2172.72
976.63	2094.9
976.802	2430.77
976.973	2086.71
977.145	2137.91
977.316	2733.87
977.487	2524.97
977.659	2262.83
977.83	2023.22
978.001	2592.56
978.172	2268.98
978.344	2107.19
978.515	2148.15
978.686	2000.69
978.857	2467.63
979.028	1969.98
979.2	2000.69
979.371	2598.7
979.542	2219.83
979.713	2180.92
979.884	1623.87
980.055	1961.78
980.226	2031.41
980.397	1888.06
980.568	1840.95
980.739	2467.63
980.91	2180.92
981.081	2217.78
981.252	1996.6
981.423	2377.52
981.594	2414.38
981.765	1779.51
981.936	1955.64
982.106	2250.55
982.277	2279.22
982.448	1918.78
982.619	1990.45
982.79	2039.61
982.96	2391.86
983.131	2012.98
983.302	1658.68
983.472	1965.88
983.643	2180.92
983.814	1961.78
983.984	1787.71
984.155	2021.17
984.326	2391.86
984.496	1974.07
984.667	1900.34
984.837	1976.12
985.008	2369.33
985.178	2049.85
985.349	1804.09
985.519	1867.58
985.69	1861.43
985.86	1857.34
986.031	1879.86
986.201	2109.24
986.371	2127.67
986.542	1615.68
986.712	1537.85
986.882	2144.05
987.053	2223.92
987.223	1691.45
987.393	1906.49
987.563	1830.71
987.734	2187.06
987.904	2002.74
988.074	1832.76
988.244	1984.31
988.414	1804.09
988.585	1648.44
988.755	1931.06
988.925	1914.68
989.095	2334.51
989.265	1558.33
989.435	1802.04
989.605	2039.61
989.775	2088.76
989.945	2031.41
990.115	1660.73
990.285	2031.41
990.455	2010.93
990.625	1845.05
990.795	1617.72
990.965	2291.51
991.134	1697.6
991.304	1554.24
991.474	1640.25
991.644	1947.45
991.814	2285.36
991.984	1556.29
992.153	1449.79
992.323	1761.08
992.493	1863.48
992.662	1406.78
992.832	1787.71
993.002	1857.34
993.171	1947.45
993.341	1365.82
993.511	1685.31
993.68	1685.31
993.85	2033.46
994.019	1460.03
994.189	1460.03
994.358	1910.58
994.528	1681.21
994.697	1353.54
994.867	1300.29
995.036	1957.69
995.206	1679.16
995.375	1468.22
995.544	1697.6
995.714	2002.74
995.883	1695.55
996.052	1703.74
996.222	1382.21
996.391	2256.69
996.56	1836.86
996.73	1343.3
996.899	1316.67
997.068	2086.71
997.237	1830.71
997.406	1460.03
997.576	1253.19
997.745	1779.51
997.914	1804.09
998.083	1292.1
998.252	1408.83
998.421	1697.6
998.59	1445.7
998.759	1228.61
998.928	1210.18
999.097	2004.79
999.266	1761.08
999.435	1435.46
999.604	1124.16
999.773	2150.2
999.942	1523.52
1000.111	1244.99
1000.28	1097.54
1000.448	1408.83
1000.617	1402.69
1000.786	1455.94
1000.955	1165.12
1001.124	1777.47
1001.292	2354.99
1001.461	1392.45
1001.63	1201.99
1001.798	2094.9
1001.967	1906.49
1002.136	1056.58
1002.304	1118.02
1002.473	1709.88
1002.642	1654.59
1002.81	1353.54
1002.979	1191.75
1003.147	1765.18
1003.316	2170.68
1003.484	1224.51
1003.653	1181.51
1003.821	1849.15
1003.99	1533.76
1004.158	1359.68
1004.327	1292.1
1004.495	1720.12
1004.663	1374.02
1004.832	1249.09
1005	995.14
1005.168	1750.84
1005.337	1523.52
1005.505	1122.12
1005.673	1306.43
1005.842	1736.51
1006.01	1546.05
1006.178	1105.73
1006.346	1177.41
1006.514	1541.95
1006.683	1855.29
1006.851	1058.63
1007.019	1111.88
1007.187	1214.27
1007.355	1097.54
1007.523	1036.1
1007.691	1032.01
1007.859	1148.74
1008.027	1845.05
1008.195	1204.03
1008.363	964.42
1008.531	1732.41
1008.699	1404.74
1008.867	1056.58
1009.035	1089.35
1009.203	1652.54
1009.37	1374.02
1009.538	1091.4
1009.706	1488.7
1009.874	1417.02
1010.042	1357.63
1010.209	978.76
1010.377	1005.38
1010.545	1601.34
1010.713	1361.73
1010.88	976.71
1011.048	1017.67
1011.216	1333.06
1011.383	1916.73
1011.551	1025.86
1011.718	1009.48
1011.886	1693.5
1012.054	1392.45
1012.221	1023.81
1012.389	866.12
1012.556	1234.75
1012.724	1789.75
1012.891	1021.77
1013.058	743.24
1013.226	1382.21
1013.393	1587.01
1013.561	710.47
1013.728	841.54
1013.895	1488.7
1014.063	1353.54
1014.23	878.41
1014.397	950.09
1014.565	1380.16
1014.732	1156.93
1014.899	974.66
1015.066	796.49
1015.233	1261.38
1015.401	1410.88
1015.568	941.89
1015.735	1060.68
1015.902	1314.63
1016.069	1247.04
1016.236	866.12
1016.403	733
1016.57	1023.81
1016.737	1515.33
1016.904	837.45
1017.071	696.14
1017.238	1140.55
1017.405	1376.06
1017.572	751.43
1017.739	1054.53
1017.906	1341.25
1018.073	1386.3
1018.24	667.47
1018.407	835.4
1018.573	1394.5
1018.74	1023.81
1018.907	862.02
1019.074	599.88
1019.241	1318.72
1019.407	1191.75
1019.574	833.35
1019.741	673.61
1019.907	1279.81
1020.074	1214.27
1020.241	595.79
1020.407	667.47
1020.574	1212.23
1020.74	1146.69
1020.907	788.3
1021.073	681.8
1021.24	1548.09
1021.406	1376.06
1021.573	743.24
1021.739	712.52
1021.906	1331.01
1022.072	1029.96
1022.239	737.1
1022.405	796.49
1022.571	1169.22
1022.738	894.79
1022.904	724.81
1023.07	864.07
1023.237	1109.83
1023.403	1425.22
1023.569	792.39
1023.735	759.63
1023.902	1128.26
1024.068	1124.16
1024.234	505.68
1024.4	630.6
1024.566	1085.25
1024.732	1206.08
1024.898	692.04
1025.065	575.31
1025.231	1140.55
1025.397	902.98
1025.563	692.04
1025.729	622.41
1025.895	452.43
1026.061	788.3
1026.227	571.21
1026.392	616.27
1026.558	1288
1026.724	1091.4
1026.89	565.07
1027.056	710.47
1027.222	1054.53
1027.388	925.51
1027.553	593.74
1027.719	552.78
1027.885	1402.69
1028.051	1040.2
1028.216	438.09
1028.382	603.98
1028.548	1130.31
1028.713	755.53
1028.879	384.85
1029.045	665.42
1029.21	1363.78
1029.376	1247.04
1029.541	708.43
1029.707	536.4
1029.873	958.28
1030.038	1087.3
1030.204	552.78
1030.369	548.68
1030.534	1075.01
1030.7	790.35
1030.865	499.53
1031.031	569.16
1031.196	1023.81
1031.361	882.5
1031.527	614.22
1031.692	522.06
1031.857	513.87
1032.023	1046.34
1032.188	350.03
1032.353	472.91
1032.518	1177.41
1032.684	917.32
1032.849	366.42
1033.014	497.49
1033.179	997.19
1033.344	1001.29
1033.509	530.25
1033.674	573.26
1033.839	989
1034.004	907.08
1034.17	487.25
1034.335	366.42
1034.5	751.43
1034.664	763.72
1034.829	288.59
1034.994	554.83
1035.159	888.65
1035.324	845.64
1035.489	425.81
1035.654	370.51
1035.819	1179.46
1035.984	884.55
1036.148	399.18
1036.313	468.81
1036.478	999.24
1036.643	800.59
1036.807	425.81
1036.972	300.88
1037.137	1107.78
1037.301	876.36
1037.466	243.54
1037.631	485.2
1037.795	1029.96
1037.96	837.45
1038.124	599.88
1038.289	245.59
1038.454	939.85
1038.618	964.42
1038.783	382.8
1038.947	550.73
1039.111	833.35
1039.276	636.75
1039.44	331.6
1039.605	831.3
1039.769	716.62
1039.933	790.35
1040.098	472.91
1040.262	685.9
1040.426	978.76
1040.591	874.31
1040.755	300.88
1040.919	368.46
1041.083	833.35
1041.248	679.75
1041.412	229.2
1041.576	341.84
1041.74	692.04
1041.904	1003.33
1042.068	196.43
1042.232	425.81
1042.397	1001.29
1042.561	776.01
1042.725	75.6
1042.889	489.29
1043.053	939.85
1043.217	765.77
1043.381	434
1043.544	206.67
1043.708	952.13
1043.872	403.28
1044.036	81.75
1044.2	180.05
1044.364	980.81
1044.528	1070.92
1044.691	5150.47
1044.855	229.2
1045.019	948.04
1045.183	898.89
1045.346	323.41
1045.51	180.05
1045.674	722.76
1045.837	831.3
1046.001	405.33
1046.165	243.54
1046.328	1179.46
1046.492	837.45
1046.655	425.81
1046.819	358.22
1046.983	599.88
1047.146	722.76
1047.31	370.51
1047.473	106.32
1047.636	653.13
1047.8	421.71
1047.963	309.07
1048.127	218.96
1048.29	401.23
