Data from Ink_Intensity_USB4F045381__62__00062.txt Node

Date: Mon Jul 17 10:25:07 EDT 2023
User: mmckonesweet
Spectrometer: USB4F04538
Trigger mode: 4
Integration Time (sec): 9.000000E-1
Scans to average: 1
Electric dark correction enabled: true
Nonlinearity correction enabled: false
Boxcar width: 0
XAxis mode: Wavelengths
Number of Pixels in Spectrum: 3648
>>>>>Begin Spectral Data<<<<<
345.52	-1067.67
345.736	-1067.67
345.952	-1067.67
346.168	-1012.38
346.384	-1022.62
346.6	-131.75
346.816	-305.83
347.032	-150.18
347.248	267.6
347.464	-199.34
347.68	-117.42
347.896	107.86
348.112	329.04
348.328	-53.93
348.544	-74.41
348.76	73.04
348.975	255.31
349.191	-242.34
349.407	-180.9
349.623	-49.83
349.839	-72.36
350.055	-144.04
350.27	-39.59
350.486	171.35
350.702	320.85
350.918	240.98
351.133	-152.23
351.349	183.63
351.565	435.53
351.781	-185
351.996	-8.87
352.212	331.09
352.428	-191.14
352.644	-215.72
352.859	-232.1
353.075	318.8
353.291	81.24
353.506	-146.09
353.722	-195.24
353.938	-90.79
354.153	413.01
354.369	103.76
354.584	-178.86
354.8	140.63
355.016	-350.89
355.231	-324.26
355.447	-68.27
355.662	71
355.878	927.05
356.093	-367.27
356.309	-12.97
356.524	-242.34
356.74	169.3
356.955	-238.25
357.171	-31.4
357.386	68.95
357.602	-256.68
357.817	-156.33
358.033	-234.15
358.248	351.57
358.464	64.85
358.679	-135.85
358.895	-264.87
359.11	-55.98
359.325	341.33
359.541	58.71
359.756	17.75
359.972	-287.4
360.187	181.59
360.402	-199.34
360.618	-176.81
360.833	949.57
361.048	60.76
361.264	-268.97
361.479	-144.04
361.694	-35.5
361.909	146.77
362.125	-199.34
362.34	-133.8
362.555	236.88
362.77	116.05
362.986	-256.68
363.201	-180.9
363.416	111.96
363.631	-55.98
363.847	-258.73
364.062	-213.67
364.277	159.06
364.492	50.52
364.707	-109.22
364.922	-350.89
365.138	200.02
365.353	316.75
365.568	-320.17
365.783	-170.66
365.998	52.56
366.213	609.61
366.428	-215.72
366.643	36.18
366.858	263.51
367.073	206.16
367.288	-105.13
367.503	-318.12
367.718	66.9
367.933	240.98
368.148	-316.07
368.363	-84.65
368.578	-6.83
368.793	396.62
369.008	-185
369.223	-244.39
369.438	161.11
369.653	337.23
369.868	-219.82
370.083	-279.21
370.298	99.67
370.513	345.42
370.728	1.37
370.943	-141.99
371.157	-53.93
371.372	587.08
371.587	-369.32
371.802	-268.97
372.017	-19.11
372.232	380.24
372.446	-123.56
372.661	-281.25
372.876	177.49
373.091	48.47
373.306	-98.99
373.52	-264.87
373.735	-273.06
373.95	357.71
374.165	-141.99
374.379	-152.23
374.594	-182.95
374.809	89.43
375.023	-82.6
375.238	-293.54
375.453	243.03
375.667	-180.9
375.882	-180.9
376.097	-176.81
376.311	-19.11
376.526	-84.65
376.741	-266.92
376.955	103.76
377.17	562.51
377.384	562.51
377.599	-90.79
377.813	-320.17
378.028	634.19
378.242	128.34
378.457	-80.55
378.672	-375.46
378.886	99.67
379.101	-105.13
379.315	-359.08
379.53	-268.97
379.744	144.72
379.958	181.59
380.173	-271.01
380.387	-256.68
380.602	204.11
380.816	-148.14
381.031	-174.76
381.245	-96.94
381.459	124.24
381.674	2624.81
381.888	-248.49
382.103	75.09
382.317	-172.71
382.531	486.73
382.746	-123.56
382.96	-199.34
383.174	-133.8
383.388	378.19
383.603	79.19
383.817	-314.02
384.031	50.52
384.246	427.34
384.46	-17.07
384.674	234.83
384.888	-55.98
385.103	46.42
385.317	-260.77
385.531	-101.03
385.745	302.42
385.959	331.09
386.174	-248.49
386.388	-299.69
386.602	-25.26
386.816	-152.23
387.03	-107.18
387.244	-180.9
387.458	66.9
387.672	337.23
387.887	-264.87
388.101	-252.58
388.315	341.33
388.529	148.82
388.743	-170.66
388.957	-242.34
389.171	326.99
389.385	-213.67
389.599	-193.19
389.813	-31.4
390.027	185.68
390.241	562.51
390.455	-236.2
390.669	-150.18
390.883	-148.14
391.097	312.66
391.311	54.61
391.525	-211.62
391.738	107.86
391.952	126.29
392.166	-58.03
392.38	-295.59
392.594	267.6
392.808	326.99
393.022	-6.83
393.236	-115.37
393.449	97.62
393.663	191.83
393.877	-318.12
394.091	-146.09
394.305	-90.79
394.518	-139.94
394.732	-338.6
394.946	-150.18
395.16	415.06
395.373	7.51
395.587	-301.73
395.801	-266.92
396.015	232.79
396.228	187.73
396.442	-223.91
396.656	-406.18
396.869	286.03
397.083	324.94
397.297	-47.79
397.51	-191.14
397.724	312.66
397.938	126.29
398.151	-350.89
398.365	-359.08
398.578	187.73
398.792	357.71
399.005	-19.11
399.219	-131.75
399.433	40.28
399.646	161.11
399.86	-2.73
400.073	83.28
400.287	103.76
400.5	-121.51
400.714	-47.79
400.927	-131.75
401.141	105.81
401.354	1070.41
401.567	163.15
401.781	-250.53
401.994	271.7
402.208	460.11
402.421	-156.33
402.635	-150.18
402.848	-84.65
403.061	277.84
403.275	-31.4
403.488	-264.87
403.701	449.87
403.915	200.02
404.128	-29.35
404.341	-307.88
404.555	99.67
404.768	-8.87
404.981	48.47
405.195	-207.53
405.408	439.63
405.621	300.37
405.834	-0.68
406.048	-264.87
406.261	363.86
406.474	410.96
406.687	-301.73
406.9	-90.79
407.114	109.91
407.327	-25.26
407.54	-367.27
407.753	-324.26
407.966	-176.81
408.179	261.46
408.392	-236.2
408.605	-297.64
408.819	128.34
409.032	159.06
409.245	-211.62
409.458	17.75
409.671	191.83
409.884	222.55
410.097	-344.74
410.31	17.75
410.523	152.92
410.736	-53.93
410.949	-76.46
411.162	-154.28
411.375	353.62
411.588	292.18
411.801	-72.36
412.014	-207.53
412.227	-19.11
412.44	-98.99
412.653	-207.53
412.865	9.56
413.078	302.42
413.291	181.59
413.504	-129.7
413.717	-283.3
413.93	288.08
414.143	-164.52
414.356	-162.47
414.568	-330.41
414.781	247.12
414.994	93.52
415.207	-33.45
415.42	-49.83
415.632	218.45
415.845	423.25
416.058	-326.31
416.271	-311.97
416.483	1.37
416.696	480.59
416.909	-262.82
417.121	-191.14
417.334	111.96
417.547	513.36
417.759	-248.49
417.972	-318.12
418.185	-23.21
418.397	228.69
418.61	-211.62
418.823	-201.38
419.035	447.82
419.248	54.61
419.46	-168.62
419.673	-62.12
419.885	230.74
420.098	-68.27
420.311	-293.54
420.523	-375.46
420.736	202.07
420.948	17.75
421.161	-185
421.373	-338.6
421.586	77.14
421.798	-119.46
422.01	-428.71
422.223	-2.73
422.435	-127.66
422.648	191.83
422.86	-191.14
423.073	-146.09
423.285	271.7
423.497	-268.97
423.71	-254.63
423.922	-158.38
424.134	91.48
424.347	431.44
424.559	-0.68
424.771	109.91
424.984	-60.07
425.196	183.63
425.408	-305.83
425.621	-354.98
425.833	292.18
426.045	240.98
426.257	-256.68
426.47	-154.28
426.682	34.13
426.894	187.73
427.106	-162.47
427.318	-170.66
427.531	-72.36
427.743	222.55
427.955	-164.52
428.167	238.93
428.379	118.1
428.591	-27.31
428.804	-115.37
429.016	-316.07
429.228	-133.8
429.44	97.62
429.652	-17.07
429.864	-285.35
430.076	-15.02
430.288	-55.98
430.5	-180.9
430.712	-137.9
430.924	300.37
431.136	150.87
431.348	-420.52
431.56	-234.15
431.772	-19.11
431.984	-96.94
432.196	-293.54
432.408	-193.19
432.62	-76.46
432.832	81.24
433.044	71
433.256	-94.89
433.468	273.75
433.679	-266.92
433.891	-238.25
434.103	-47.79
434.315	281.94
434.527	101.72
434.739	-117.42
434.95	-238.25
435.162	197.97
435.374	-137.9
435.586	-201.38
435.798	-209.58
436.009	-277.16
436.221	-29.35
436.433	-199.34
436.645	-195.24
436.856	-96.94
437.068	296.27
437.28	-283.3
437.491	93.52
437.703	138.58
437.915	64.85
438.126	-203.43
438.338	46.42
438.55	-23.21
438.761	159.06
438.973	-209.58
439.184	-213.67
439.396	97.62
439.608	234.83
439.819	-232.1
440.031	-117.42
440.242	200.02
440.454	148.82
440.665	-160.42
440.877	-70.31
441.088	48.47
441.3	-119.46
441.511	-381.6
441.723	-264.87
441.934	128.34
442.146	91.48
442.357	-84.65
442.569	124.24
442.78	46.42
442.991	396.62
443.203	99.67
443.414	-348.84
443.626	304.46
443.837	-205.48
444.048	-365.22
444.26	-375.46
444.471	101.72
444.682	255.31
444.894	-438.95
445.105	-369.32
445.316	343.38
445.528	212.31
445.739	-187.05
445.95	-166.57
446.161	34.13
446.373	302.42
446.584	-158.38
446.795	-182.95
447.006	234.83
447.217	361.81
447.429	-281.25
447.64	-289.45
447.851	240.98
448.062	13.65
448.273	-346.79
448.484	-215.72
448.695	85.33
448.907	-37.55
449.118	-113.32
449.329	-4.78
449.54	-203.43
449.751	-178.86
449.962	-201.38
450.173	-172.71
450.384	273.75
450.595	351.57
450.806	-203.43
451.017	-176.81
451.228	312.66
451.439	220.5
451.65	-244.39
451.861	-381.6
452.072	-303.78
452.283	5.46
452.494	-72.36
452.705	-301.73
452.915	415.06
453.126	48.47
453.337	-219.82
453.548	-275.11
453.759	320.85
453.97	453.97
454.181	77.14
454.391	-205.48
454.602	36.18
454.813	146.77
455.024	-80.55
455.235	-223.91
455.445	87.38
455.656	140.63
455.867	21.85
456.078	-170.66
456.288	-113.32
456.499	99.67
456.71	-209.58
456.921	40.28
457.131	17.75
457.342	25.94
457.553	-176.81
457.763	-228.01
457.974	181.59
458.184	304.46
458.395	-248.49
458.606	-342.69
458.816	290.13
459.027	476.49
459.237	-117.42
459.448	-391.84
459.659	245.07
459.869	429.39
460.08	-404.13
460.29	-92.84
460.501	453.97
460.711	-64.17
460.922	-375.46
461.132	-371.36
461.343	689.48
461.553	-268.97
461.764	-225.96
461.974	-248.49
462.184	251.22
462.395	177.49
462.605	-162.47
462.816	-309.93
463.026	27.99
463.236	312.66
463.447	-318.12
463.657	-273.06
463.867	177.49
464.078	7.51
464.288	-203.43
464.498	-228.01
464.709	-76.46
464.919	-78.51
465.129	-101.03
465.339	-314.02
465.55	58.71
465.76	222.55
465.97	-281.25
466.18	-283.3
466.391	238.93
466.601	52.56
466.811	-170.66
467.021	-377.51
467.231	161.11
467.441	308.56
467.651	-232.1
467.862	-477.86
468.072	1.37
468.282	261.46
468.492	-242.34
468.702	-219.82
468.912	46.42
469.122	527.69
469.332	68.95
469.542	-334.5
469.752	109.91
469.962	-8.87
470.172	-303.78
470.382	-314.02
470.592	214.35
470.802	316.75
471.012	-98.99
471.222	-305.83
471.432	251.22
471.642	234.83
471.852	-121.51
472.062	-250.53
472.272	23.89
472.482	-273.06
472.691	-357.03
472.901	-361.13
473.111	46.42
473.321	607.56
473.531	-326.31
473.741	-246.44
473.95	116.05
474.16	224.59
474.37	-189.1
474.58	-338.6
474.79	531.79
474.999	216.4
475.209	-389.8
475.419	-268.97
475.628	34.13
475.838	302.42
476.048	-150.18
476.258	-361.13
476.467	257.36
476.677	-121.51
476.886	19.8
477.096	-207.53
477.306	-172.71
477.515	298.32
477.725	-201.38
477.935	-150.18
478.144	247.12
478.354	-189.1
478.563	-275.11
478.773	-301.73
478.982	152.92
479.192	380.24
479.401	-129.7
479.611	-367.27
479.82	-172.71
480.03	21.85
480.239	-268.97
480.449	-354.98
480.658	359.76
480.868	-55.98
481.077	-113.32
481.287	-168.62
481.496	144.72
481.705	359.76
481.915	-10.92
482.124	42.32
482.333	116.05
482.543	339.28
482.752	-94.89
482.961	-346.79
483.171	167.25
483.38	-31.4
483.589	-182.95
483.799	-264.87
484.008	-80.55
484.217	191.83
484.426	-291.49
484.636	-338.6
484.845	68.95
485.054	-303.78
485.263	89.43
485.472	-217.77
485.682	449.87
485.891	81.24
486.1	-434.85
486.309	-232.1
486.518	175.44
486.727	335.18
486.936	-287.4
487.146	-68.27
487.355	382.29
487.564	-176.81
487.773	-240.29
487.982	-318.12
488.191	-84.65
488.4	62.8
488.609	-248.49
488.818	-240.29
489.027	566.6
489.236	413.01
489.445	-293.54
489.654	-281.25
489.863	251.22
490.072	87.38
490.281	85.33
490.49	-205.48
490.698	326.99
490.907	374.1
491.116	-293.54
491.325	-414.37
491.534	359.76
491.743	87.38
491.952	-160.42
492.16	-285.35
492.369	134.48
492.578	281.94
492.787	-117.42
492.996	-432.8
493.204	-185
493.413	480.59
493.622	-488.1
493.831	-422.56
494.039	445.77
494.248	-236.2
494.457	-361.13
494.665	-453.28
494.874	101.72
495.083	509.26
495.291	-205.48
495.5	-207.53
495.709	218.45
495.917	71
496.126	-117.42
496.335	-309.93
496.543	-64.17
496.752	124.24
496.96	34.13
497.169	-418.47
497.377	40.28
497.586	273.75
497.794	-131.75
498.003	-455.33
498.211	-55.98
498.42	298.32
498.628	-146.09
498.837	-316.07
499.045	68.95
499.254	-39.59
499.462	-309.93
499.671	-322.21
499.879	427.34
500.087	165.2
500.296	-232.1
500.504	-219.82
500.713	-37.55
500.921	402.77
501.129	-240.29
501.338	-258.73
501.546	79.19
501.754	56.66
501.962	-287.4
502.171	-379.56
502.379	130.39
502.587	435.53
502.795	-199.34
503.004	-176.81
503.212	136.53
503.42	218.45
503.628	-168.62
503.837	-168.62
504.045	193.87
504.253	400.72
504.461	-326.31
504.669	-428.71
504.877	206.16
505.085	427.34
505.294	-400.04
505.502	-131.75
505.71	5.46
505.918	202.07
506.126	-354.98
506.334	-266.92
506.542	-62.12
506.75	105.81
506.958	-221.86
507.166	-260.77
507.374	-115.37
507.582	451.92
507.79	-185
507.998	-252.58
508.206	87.38
508.414	81.24
508.622	-273.06
508.83	-234.15
509.037	390.48
509.245	-125.61
509.453	-377.51
509.661	-373.41
509.869	175.44
510.077	-150.18
510.285	-137.9
510.492	-535.2
510.7	632.14
510.908	-109.22
511.116	-277.16
511.324	-285.35
511.531	-66.22
511.739	50.52
511.947	-152.23
512.155	75.09
512.362	85.33
512.57	-363.17
512.778	-285.35
512.985	-441
513.193	185.68
513.401	353.62
513.608	-262.82
513.816	-299.69
514.024	193.87
514.231	275.79
514.439	-299.69
514.646	-365.22
514.854	193.87
515.061	320.85
515.269	-301.73
515.477	-193.19
515.684	-203.43
515.892	202.07
516.099	-400.04
516.307	-354.98
516.514	191.83
516.722	376.14
516.929	-228.01
517.136	-395.94
517.344	279.89
517.551	-2.73
517.759	-334.5
517.966	-330.41
518.173	13.65
518.381	75.09
518.588	-154.28
518.796	-266.92
519.003	226.64
519.21	-70.31
519.418	-209.58
519.625	1.37
519.832	-19.11
520.039	124.24
520.247	-469.67
520.454	-264.87
520.661	230.74
520.868	107.86
521.076	-248.49
521.283	-225.96
521.49	591.18
521.697	120.15
521.904	-197.29
522.112	-248.49
522.319	208.21
522.526	163.15
522.733	-383.65
522.94	-336.55
523.147	42.32
523.354	206.16
523.561	-443.04
523.768	-174.76
523.975	240.98
524.183	75.09
524.39	-195.24
524.597	-395.94
524.804	30.04
525.011	-242.34
525.218	-309.93
525.425	-285.35
525.632	322.9
525.838	-187.05
526.045	-287.4
526.252	-393.89
526.459	1086.79
526.666	740.68
526.873	-348.84
527.08	-277.16
527.287	419.15
527.494	275.79
527.701	-379.56
527.907	-307.88
528.114	77.14
528.321	23.89
528.528	-273.06
528.735	-271.01
528.941	-92.84
529.148	-139.94
529.355	-137.9
529.562	-279.21
529.768	519.5
529.975	-23.21
530.182	-154.28
530.388	-307.88
530.595	234.83
530.802	-242.34
531.008	-37.55
531.215	-283.3
531.422	722.25
531.628	763.21
531.835	-137.9
532.042	-174.76
532.248	-115.37
532.455	23.89
532.661	-246.44
532.868	-350.89
533.074	54.61
533.281	243.03
533.487	-137.9
533.694	-277.16
533.9	-185
534.107	216.4
534.313	-367.27
534.52	-359.08
534.726	308.56
534.933	447.82
535.139	-359.08
535.345	-354.98
535.552	62.8
535.758	21.85
535.965	-238.25
536.171	-281.25
536.377	159.06
536.584	341.33
536.79	-309.93
536.996	-166.57
537.203	71
537.409	154.96
537.615	-182.95
537.821	-141.99
538.028	238.93
538.234	181.59
538.44	-289.45
538.646	-232.1
538.853	165.2
539.059	-88.75
539.265	122.2
539.471	-514.72
539.677	243.03
539.883	-129.7
540.09	-320.17
540.296	60.76
540.502	-25.26
540.708	-86.7
540.914	-64.17
541.12	-234.15
541.326	146.77
541.532	-109.22
541.738	-111.27
541.944	-162.47
542.15	300.37
542.356	-8.87
542.562	-352.93
542.768	-187.05
542.974	623.95
543.18	476.49
543.386	-268.97
543.592	-363.17
543.798	370
544.004	259.41
544.21	-254.63
544.415	-199.34
544.621	17.75
544.827	271.7
545.033	-291.49
545.239	-105.13
545.445	-137.9
545.651	50.52
545.856	-285.35
546.062	-283.3
546.268	-21.16
546.474	42.32
546.679	-158.38
546.885	-281.25
547.091	-98.99
547.297	499.02
547.502	-187.05
547.708	-334.5
547.914	-25.26
548.119	261.46
548.325	-391.84
548.531	-395.94
548.736	331.09
548.942	-144.04
549.147	-287.4
549.353	-2.73
549.559	349.52
549.764	128.34
549.97	-228.01
550.175	-199.34
550.381	191.83
550.586	-160.42
550.792	-281.25
550.997	-299.69
551.203	79.19
551.408	193.87
551.614	-346.79
551.819	-297.64
552.025	386.38
552.23	466.25
552.435	-336.55
552.641	-111.27
552.846	-121.51
553.052	355.66
553.257	-121.51
553.462	-305.83
553.668	-96.94
553.873	320.85
554.078	-328.36
554.283	-277.16
554.489	128.34
554.694	3.41
554.899	-338.6
555.105	-90.79
555.31	114
555.515	204.11
555.72	-180.9
555.925	-283.3
556.131	243.03
556.336	-39.59
556.541	-326.31
556.746	-354.98
556.951	382.29
557.156	431.44
557.361	-137.9
557.567	-96.94
557.772	482.64
557.977	189.78
558.182	-279.21
558.387	-277.16
558.592	-37.55
558.797	335.18
559.002	-168.62
559.207	-148.14
559.412	52.56
559.617	484.69
559.822	-303.78
560.027	-293.54
560.232	15.7
560.437	314.7
560.642	-400.04
560.847	-357.03
561.051	58.71
561.256	222.55
561.461	-275.11
561.666	-400.04
561.871	13.65
562.076	83.28
562.281	-187.05
562.485	-277.16
562.69	238.93
562.895	257.36
563.1	-228.01
563.305	-318.12
563.509	347.47
563.714	640.33
563.919	-299.69
564.123	-281.25
564.328	-35.5
564.533	275.79
564.737	-178.86
564.942	-279.21
565.147	419.15
565.351	501.07
565.556	-78.51
565.761	-180.9
565.965	189.78
566.17	-96.94
566.374	-221.86
566.579	-381.6
566.784	87.38
566.988	-144.04
567.193	-408.23
567.397	-381.6
567.602	-260.77
567.806	23.89
568.011	-262.82
568.215	-225.96
568.42	-15.02
568.624	-55.98
568.828	-215.72
569.033	-103.08
569.237	214.35
569.442	116.05
569.646	-338.6
569.85	-232.1
570.055	-35.5
570.259	120.15
570.463	-66.22
570.668	-258.73
570.872	58.71
571.076	-35.5
571.281	-119.46
571.485	-80.55
571.689	79.19
571.893	243.03
572.098	-131.75
572.302	-246.44
572.506	136.53
572.71	99.67
572.914	-203.43
573.119	-244.39
573.323	386.38
573.527	333.14
573.731	-207.53
573.935	-277.16
574.139	118.1
574.343	-152.23
574.547	-252.58
574.751	-219.82
574.955	363.86
575.159	320.85
575.364	-256.68
575.568	-406.18
575.772	111.96
575.976	296.27
576.18	-215.72
576.383	-320.17
576.587	279.89
576.791	163.15
576.995	-373.41
577.199	-404.13
577.403	310.61
577.607	339.28
577.811	-387.75
578.015	-135.85
578.219	79.19
578.422	265.55
578.626	-223.91
578.83	-72.36
579.034	298.32
579.238	128.34
579.442	-281.25
579.645	185.68
579.849	159.06
580.053	-27.31
580.257	-252.58
580.46	-207.53
580.664	234.83
580.868	228.69
581.071	-76.46
581.275	-189.1
581.479	-238.25
581.682	226.64
581.886	-207.53
582.09	-133.8
582.293	224.59
582.497	216.4
582.7	-17.07
582.904	-223.91
583.107	93.52
583.311	-2.73
583.515	-176.81
583.718	-273.06
583.922	122.2
584.125	466.25
584.329	-182.95
584.532	-103.08
584.735	419.15
584.939	222.55
585.142	-383.65
585.346	-330.41
585.549	263.51
585.753	-101.03
585.956	-230.06
586.159	-76.46
586.363	453.97
586.566	181.59
586.769	-211.62
586.973	-387.75
587.176	197.97
587.379	365.9
587.582	124.24
587.786	21.85
587.989	107.86
588.192	683.34
588.395	-187.05
588.599	11.61
588.802	148.82
589.005	204.11
589.208	-195.24
589.411	-207.53
589.615	245.07
589.818	443.73
590.021	30.04
590.224	-78.51
590.427	269.65
590.63	144.72
590.833	-328.36
591.036	-289.45
591.239	-55.98
591.442	-84.65
591.645	-0.68
591.848	-215.72
592.051	130.39
592.254	322.9
592.457	-180.9
592.66	-187.05
592.863	38.23
593.066	181.59
593.269	-166.57
593.472	-62.12
593.675	-123.56
593.878	286.03
594.081	-121.51
594.284	-262.82
594.486	222.55
594.689	89.43
594.892	-141.99
595.095	-107.18
595.298	128.34
595.5	-43.69
595.703	-35.5
595.906	-12.97
596.109	353.62
596.311	267.6
596.514	-416.42
596.717	-139.94
596.92	410.96
597.122	187.73
597.325	-371.36
597.528	-293.54
597.73	470.35
597.933	132.44
598.136	-144.04
598.338	-430.76
598.541	193.87
598.743	324.94
598.946	-123.56
599.148	-72.36
599.351	322.9
599.554	312.66
599.756	-45.74
599.959	-158.38
600.161	308.56
600.363	617.8
600.566	-6.83
600.768	-148.14
600.971	447.82
601.173	343.38
601.376	-187.05
601.578	-191.14
601.78	238.93
601.983	705.87
602.185	-101.03
602.388	-4.78
602.59	130.39
602.792	-15.02
602.995	17.75
603.197	-193.19
603.399	298.32
603.601	222.55
603.804	-117.42
604.006	-225.96
604.208	-19.11
604.41	-277.16
604.613	-27.31
604.815	-234.15
605.017	634.19
605.219	-23.21
605.421	148.82
605.623	-187.05
605.826	394.58
606.028	437.58
606.23	-170.66
606.432	-195.24
606.634	482.64
606.836	488.78
607.038	-295.59
607.24	3.41
607.442	169.3
607.644	177.49
607.846	-88.75
608.048	-264.87
608.25	468.3
608.452	-31.4
608.654	-94.89
608.856	-387.75
609.058	118.1
609.26	220.5
609.462	-6.83
609.664	-53.93
609.866	515.41
610.067	263.51
610.269	-27.31
610.471	-86.7
610.673	32.08
610.875	290.13
611.077	-293.54
611.278	-121.51
611.48	210.26
611.682	574.8
611.884	-37.55
612.085	-105.13
612.287	-0.68
612.489	245.07
612.69	-228.01
612.892	-70.31
613.094	359.76
613.295	214.35
613.497	-303.78
613.699	-121.51
613.9	552.27
614.102	329.04
614.304	-94.89
614.505	-201.38
614.707	9.56
614.908	109.91
615.11	-250.53
615.311	-37.55
615.513	312.66
615.714	347.47
615.916	-211.62
616.117	-111.27
616.319	107.86
616.52	316.75
616.722	-168.62
616.923	-72.36
617.124	413.01
617.326	269.65
617.527	-17.07
617.729	71
617.93	306.51
618.131	281.94
618.333	-172.71
618.534	-2.73
618.735	19.8
618.937	396.62
619.138	-326.31
619.339	-217.77
619.54	234.83
619.742	62.8
619.943	23.89
620.144	-66.22
620.345	421.2
620.546	404.82
620.748	-170.66
620.949	-60.07
621.15	165.2
621.351	144.72
621.552	-172.71
621.753	-326.31
621.954	-195.24
622.155	529.74
622.356	-168.62
622.558	66.9
622.759	66.9
622.96	646.48
623.161	-4.78
623.362	-111.27
623.563	165.2
623.764	292.18
623.965	-152.23
624.166	23.89
624.366	130.39
624.567	105.81
624.768	-391.84
624.969	-55.98
625.17	60.76
625.371	304.46
625.572	-41.64
625.773	-187.05
625.973	400.72
626.174	257.36
626.375	-58.03
626.576	-101.03
626.777	208.21
626.977	755.02
627.178	-109.22
627.379	-39.59
627.58	83.28
627.78	157.01
627.981	7.51
628.182	27.99
628.382	343.38
628.583	-185
628.784	-187.05
628.984	40.28
629.185	292.18
629.386	286.03
629.586	5.46
629.787	-125.61
629.987	265.55
630.188	159.06
630.388	-55.98
630.589	-37.55
630.79	775.5
630.99	152.92
631.191	-51.88
631.391	11.61
631.591	308.56
631.792	499.02
631.992	32.08
632.193	-84.65
632.393	535.89
632.594	197.97
632.794	-150.18
632.994	7.51
633.195	109.91
633.395	232.79
633.595	-105.13
633.796	120.15
633.996	32.08
634.196	447.82
634.397	-309.93
634.597	56.66
634.797	-66.22
634.997	560.46
635.198	210.26
635.398	-199.34
635.598	232.79
635.798	533.84
635.998	390.48
636.199	-213.67
636.399	50.52
636.599	52.56
636.799	-113.32
636.999	202.07
637.199	351.57
637.399	394.58
637.599	-105.13
637.799	95.57
637.999	30.04
638.199	537.93
638.399	-191.14
638.599	-35.5
638.799	312.66
638.999	712.01
639.199	17.75
639.399	99.67
639.599	572.75
639.799	-78.51
639.999	-187.05
640.199	-211.62
640.399	118.1
640.599	370
640.799	9.56
640.998	130.39
641.198	513.36
641.398	361.81
641.598	54.61
641.798	-68.27
641.997	1211.71
642.197	171.35
642.397	95.57
642.597	-131.75
642.796	275.79
642.996	595.28
643.196	177.49
643.395	-178.86
643.595	312.66
643.795	-141.99
643.994	-125.61
644.194	-37.55
644.394	335.18
644.593	312.66
644.793	-193.19
644.992	54.61
645.192	290.13
645.392	-207.53
645.591	9.56
645.791	30.04
645.99	300.37
646.19	226.64
646.389	25.94
646.589	75.09
646.788	308.56
646.987	394.58
647.187	259.41
647.386	169.3
647.586	122.2
647.785	464.21
647.984	13.65
648.184	17.75
648.383	171.35
648.582	44.37
648.782	-55.98
648.981	64.85
649.18	21.85
649.38	257.36
649.579	-15.02
649.778	-101.03
649.977	314.7
650.177	288.08
650.376	-127.66
650.575	-86.7
650.774	640.33
650.973	93.52
651.173	-230.06
651.372	34.13
651.571	279.89
651.77	404.82
651.969	-6.83
652.168	38.23
652.367	-107.18
652.566	312.66
652.765	-39.59
652.964	234.83
653.163	587.08
653.362	111.96
653.561	-31.4
653.76	-19.11
653.959	50.52
654.158	222.55
654.357	222.55
654.556	9.56
654.755	400.72
654.954	503.12
655.153	3.41
655.352	32.08
655.551	542.03
655.749	66.9
655.948	17.75
656.147	11.61
656.346	247.12
656.545	128.34
656.743	30.04
656.942	50.52
657.141	189.78
657.34	-35.5
657.538	15.7
657.737	25.94
657.936	126.29
658.135	324.94
658.333	-43.69
658.532	66.9
658.731	585.04
658.929	406.86
659.128	216.4
659.326	-111.27
659.525	486.73
659.724	210.26
659.922	-170.66
660.121	-133.8
660.319	378.19
660.518	5.46
660.716	-144.04
660.915	-39.59
661.113	488.78
661.312	3.41
661.51	177.49
661.709	-111.27
661.907	329.04
662.105	533.84
662.304	-19.11
662.502	36.18
662.701	544.08
662.899	197.97
663.097	296.27
663.296	-176.81
663.494	560.46
663.692	556.36
663.891	-35.5
664.089	-158.38
664.287	349.52
664.485	505.17
664.684	-88.75
664.882	58.71
665.08	206.16
665.278	185.68
665.476	-96.94
665.675	267.6
665.873	658.76
666.071	451.92
666.269	-58.03
666.467	271.7
666.665	189.78
666.863	171.35
667.061	62.8
667.259	34.13
667.457	152.92
667.655	341.33
667.853	-187.05
668.051	95.57
668.249	7.51
668.447	292.18
668.645	-133.8
668.843	200.02
669.041	386.38
669.239	181.59
669.437	140.63
669.635	212.31
669.833	148.82
670.031	359.76
670.229	206.16
670.426	124.24
670.624	83.28
670.822	71
671.02	-29.35
671.218	54.61
671.415	60.76
671.613	261.46
671.811	150.87
672.009	-0.68
672.206	468.3
672.404	308.56
672.602	161.11
672.799	132.44
672.997	386.38
673.195	558.41
673.392	187.73
673.59	-133.8
673.788	490.83
673.985	-150.18
674.183	132.44
674.38	25.94
674.578	445.77
674.775	50.52
674.973	-41.64
675.17	-80.55
675.368	646.48
675.565	378.19
675.763	1.37
675.96	-27.31
676.158	619.85
676.355	163.15
676.553	-27.31
676.75	71
676.947	216.4
677.145	283.99
677.342	87.38
677.539	148.82
677.737	322.9
677.934	822.6
678.131	193.87
678.329	-70.31
678.526	705.87
678.723	390.48
678.92	122.2
679.118	25.94
679.315	-45.74
679.512	570.7
679.709	95.57
679.906	101.72
680.104	558.41
680.301	402.77
680.498	13.65
680.695	-66.22
680.892	91.48
681.089	91.48
681.286	161.11
681.483	-76.46
681.68	464.21
681.877	443.73
682.075	107.86
682.272	283.99
682.469	247.12
682.665	189.78
682.862	-80.55
683.059	-125.61
683.256	357.71
683.453	302.42
683.65	228.69
683.847	126.29
684.044	230.74
684.241	38.23
684.438	185.68
684.635	54.61
684.831	701.77
685.028	763.21
685.225	-78.51
685.422	173.39
685.619	232.79
685.815	288.08
686.012	220.5
686.209	34.13
686.405	-84.65
686.602	478.54
686.799	-4.78
686.996	15.7
687.192	34.13
687.389	701.77
687.586	-19.11
687.782	85.33
687.979	648.52
688.175	611.66
688.372	169.3
688.568	73.04
688.765	181.59
688.962	574.8
689.158	187.73
689.355	-111.27
689.551	472.4
689.748	50.52
689.944	183.63
690.14	-62.12
690.337	476.49
690.533	87.38
690.73	247.12
690.926	193.87
691.123	345.42
691.319	361.81
691.515	-72.36
691.712	222.55
691.908	433.49
692.104	374.1
692.301	232.79
692.497	-113.32
692.693	492.88
692.889	490.83
693.086	140.63
693.282	-94.89
693.478	275.79
693.674	648.52
693.87	95.57
694.067	-119.46
694.263	261.46
694.459	261.46
694.655	212.31
694.851	187.73
695.047	456.01
695.243	400.72
695.439	197.97
695.635	23.89
695.831	449.87
696.027	253.27
696.224	132.44
696.42	386.38
696.615	636.24
696.811	460.11
697.007	-92.84
697.203	109.91
697.399	384.34
697.595	552.27
697.791	-37.55
697.987	240.98
698.183	9.56
698.379	208.21
698.575	124.24
698.77	126.29
698.966	499.02
699.162	695.63
699.358	144.72
699.554	87.38
699.749	423.25
699.945	511.31
700.141	185.68
700.337	255.31
700.532	234.83
700.728	111.96
700.924	-51.88
701.119	17.75
701.315	419.15
701.511	318.8
701.706	208.21
701.902	-35.5
702.097	251.22
702.293	449.87
702.489	136.53
702.684	75.09
702.88	286.03
703.075	208.21
703.271	93.52
703.466	-21.16
703.662	288.08
703.857	519.5
704.053	132.44
704.248	-10.92
704.443	509.26
704.639	484.69
704.834	136.53
705.03	48.47
705.225	488.78
705.42	621.9
705.616	220.5
705.811	36.18
706.006	345.42
706.202	245.07
706.397	204.11
706.592	-31.4
706.787	339.28
706.983	365.9
707.178	318.8
707.373	226.64
707.568	550.22
707.763	615.76
707.959	42.32
708.154	48.47
708.349	357.71
708.544	402.77
708.739	400.72
708.934	1.37
709.129	511.31
709.324	587.08
709.519	58.71
709.714	71
709.909	533.84
710.104	517.45
710.299	105.81
710.494	157.01
710.689	509.26
710.884	333.14
711.079	283.99
711.274	314.7
711.469	535.89
711.664	324.94
711.859	44.37
712.054	148.82
712.249	474.45
712.443	603.47
712.638	46.42
712.833	75.09
713.028	296.27
713.223	341.33
713.417	370
713.612	79.19
713.807	458.06
714.002	959.81
714.196	322.9
714.391	157.01
714.586	548.17
714.78	314.7
714.975	181.59
715.17	77.14
715.364	204.11
715.559	527.69
715.754	-223.91
715.948	124.24
716.143	806.22
716.337	417.1
716.532	382.29
716.726	77.14
716.921	603.47
717.115	714.06
717.31	56.66
717.504	574.8
717.699	259.41
717.893	601.42
718.088	52.56
718.282	19.8
718.476	410.96
718.671	435.53
718.865	148.82
719.059	93.52
719.254	318.8
719.448	689.48
719.642	1422.66
719.837	-29.35
720.031	447.82
720.225	714.06
720.419	197.97
720.614	109.91
720.808	556.36
721.002	339.28
721.196	42.32
721.39	150.87
721.585	656.72
721.779	431.44
721.973	95.57
722.167	-64.17
722.361	396.62
722.555	591.18
722.749	183.63
722.943	101.72
723.137	157.01
723.331	435.53
723.525	34.13
723.719	128.34
723.913	515.41
724.107	660.81
724.301	77.14
724.495	265.55
724.689	785.74
724.883	738.63
725.077	73.04
725.271	120.15
725.465	603.47
725.659	390.48
725.853	163.15
726.046	-113.32
726.24	128.34
726.434	603.47
726.628	140.63
726.822	89.43
727.015	609.61
727.209	673.1
727.403	140.63
727.596	-82.6
727.79	525.65
727.984	505.17
728.177	157.01
728.371	138.58
728.565	621.9
728.758	71
728.952	124.24
729.146	56.66
729.339	671.05
729.533	386.38
729.726	126.29
729.92	77.14
730.113	650.57
730.307	447.82
730.5	75.09
730.694	120.15
730.887	269.65
731.081	474.45
731.274	9.56
731.468	165.2
731.661	410.96
731.854	240.98
732.048	118.1
732.241	-4.78
732.435	230.74
732.628	431.44
732.821	245.07
733.014	87.38
733.208	169.3
733.401	466.25
733.594	128.34
733.788	105.81
733.981	679.24
734.174	333.14
734.367	46.42
734.56	224.59
734.754	529.74
734.947	400.72
735.14	73.04
735.333	234.83
735.526	589.13
735.719	206.16
735.912	38.23
736.105	-12.97
736.298	406.86
736.491	216.4
736.684	50.52
736.877	62.8
737.07	406.86
737.263	755.02
737.456	206.16
737.649	-17.07
737.842	218.45
738.035	279.89
738.228	152.92
738.421	271.7
738.614	709.96
738.807	517.45
739	15.7
739.192	142.68
739.385	453.97
739.578	535.89
739.771	437.58
739.964	48.47
740.156	453.97
740.349	355.66
740.542	243.03
740.735	5.46
740.927	169.3
741.12	79.19
741.313	34.13
741.505	234.83
741.698	410.96
741.891	494.93
742.083	216.4
742.276	122.2
742.468	367.95
742.661	326.99
742.854	122.2
743.046	107.86
743.239	720.2
743.431	298.32
743.624	249.17
743.816	21.85
744.009	316.75
744.201	404.82
744.393	296.27
744.586	38.23
744.778	607.56
744.971	312.66
745.163	271.7
745.355	343.38
745.548	425.29
745.74	290.13
745.932	197.97
746.125	144.72
746.317	1029.45
746.509	374.1
746.702	173.39
746.894	222.55
747.086	345.42
747.278	714.06
747.471	296.27
747.663	175.44
747.855	353.62
748.047	806.22
748.239	25.94
748.431	91.48
748.623	759.11
748.815	826.7
749.008	-2.73
749.2	21.85
749.392	511.31
749.584	449.87
749.776	179.54
749.968	288.08
750.16	828.74
750.352	337.23
750.544	220.5
750.736	105.81
750.928	480.59
751.12	419.15
751.311	150.87
751.503	146.77
751.695	480.59
751.887	341.33
752.079	-117.42
752.271	189.78
752.463	1146.18
752.654	679.24
752.846	222.55
753.038	181.59
753.23	218.45
753.421	566.6
753.613	81.24
753.805	318.8
753.997	634.19
754.188	621.9
754.38	87.38
754.572	167.25
754.763	286.03
754.955	517.45
755.146	206.16
755.338	187.73
755.53	505.17
755.721	427.34
755.913	-15.02
756.104	58.71
756.296	353.62
756.487	564.56
756.679	-6.83
756.87	197.97
757.062	320.85
757.253	484.69
757.445	118.1
757.636	316.75
757.827	380.24
758.019	918.86
758.21	19.8
758.401	134.48
758.593	955.72
758.784	734.54
758.975	42.32
759.167	19.8
759.358	294.22
759.549	642.38
759.74	128.34
759.932	99.67
760.123	820.55
760.314	259.41
760.505	288.08
760.696	177.49
760.888	853.32
761.079	361.81
761.27	58.71
761.461	1.37
761.652	752.97
761.843	337.23
762.034	124.24
762.225	474.45
762.416	349.52
762.607	308.56
762.798	167.25
762.989	128.34
763.18	1224
763.371	290.13
763.562	116.05
763.753	218.45
763.944	617.8
764.135	615.76
764.326	283.99
764.517	99.67
764.708	523.6
764.899	488.78
765.089	95.57
765.28	-4.78
765.471	462.16
765.662	460.11
765.853	236.88
766.043	-80.55
766.234	558.41
766.425	599.37
766.615	273.75
766.806	58.71
766.997	671.05
767.187	435.53
767.378	64.85
767.569	-8.87
767.759	527.69
767.95	425.29
768.141	308.56
768.331	169.3
768.522	392.53
768.712	548.17
768.903	71
769.093	-31.4
769.284	798.03
769.474	462.16
769.665	-45.74
769.855	-92.84
770.046	517.45
770.236	269.65
770.426	197.97
770.617	-27.31
770.807	419.15
770.998	345.42
771.188	329.04
771.378	54.61
771.569	542.03
771.759	494.93
771.949	101.72
772.139	-129.7
772.33	394.58
772.52	800.07
772.71	17.75
772.9	46.42
773.09	820.55
773.281	779.59
773.471	161.11
773.661	111.96
773.851	683.34
774.041	296.27
774.231	128.34
774.421	265.55
774.611	789.83
774.802	482.64
774.992	279.89
775.182	79.19
775.372	386.38
775.562	617.8
775.752	101.72
775.942	169.3
776.131	773.45
776.321	464.21
776.511	107.86
776.701	132.44
776.891	574.8
777.081	220.5
777.271	261.46
777.461	79.19
777.651	550.22
777.84	597.32
778.03	265.55
778.22	85.33
778.41	660.81
778.599	218.45
778.789	157.01
778.979	27.99
779.169	439.63
779.358	410.96
779.548	402.77
779.738	-51.88
779.927	427.34
780.117	132.44
780.307	161.11
780.496	-168.62
780.686	447.82
780.875	730.44
781.065	150.87
781.254	132.44
781.444	417.1
781.633	439.63
781.823	23.89
782.012	66.9
782.202	249.17
782.391	288.08
782.581	-10.92
782.77	267.6
782.96	611.66
783.149	365.9
783.338	118.1
783.528	-123.56
783.717	550.22
783.906	693.58
784.096	259.41
784.285	17.75
784.474	251.22
784.663	169.3
784.853	40.28
785.042	183.63
785.231	318.8
785.42	652.62
785.61	208.21
785.799	83.28
785.988	298.32
786.177	288.08
786.366	173.39
786.555	218.45
786.744	587.08
786.933	394.58
787.122	79.19
787.312	-19.11
787.501	197.97
787.69	460.11
787.879	154.96
788.068	9.56
788.257	1.37
788.445	394.58
788.634	193.87
788.823	-15.02
789.012	1041.73
789.201	664.91
789.39	89.43
789.579	120.15
789.768	353.62
789.957	345.42
790.145	136.53
790.334	-141.99
790.523	259.41
790.712	320.85
790.9	140.63
791.089	-0.68
791.278	550.22
791.467	451.92
791.655	310.61
791.844	585.04
792.033	120.15
792.221	304.46
792.41	85.33
792.599	17.75
792.787	570.7
792.976	482.64
793.164	-0.68
793.353	154.96
793.541	396.62
793.73	449.87
793.918	136.53
794.107	103.76
794.295	372.05
794.484	441.68
794.672	157.01
794.861	103.76
795.049	492.88
795.238	816.46
795.426	5.46
795.614	148.82
795.803	417.1
795.991	736.59
796.179	171.35
796.368	89.43
796.556	658.76
796.744	50.52
796.932	-19.11
797.121	-37.55
797.309	308.56
797.497	544.08
797.685	181.59
797.874	34.13
798.062	329.04
798.25	603.47
798.438	11.61
798.626	75.09
798.814	652.62
799.002	910.66
799.19	238.93
799.378	85.33
799.566	609.61
799.755	775.5
799.943	333.14
800.131	120.15
800.318	464.21
800.506	439.63
800.694	23.89
800.882	320.85
801.07	677.2
801.258	288.08
801.446	116.05
801.634	111.96
801.822	279.89
802.01	388.43
802.197	103.76
802.385	320.85
802.573	329.04
802.761	218.45
802.949	269.65
803.136	-23.21
803.324	550.22
803.512	419.15
803.699	279.89
803.887	-60.07
804.075	691.53
804.262	267.6
804.45	-19.11
804.638	165.2
804.825	212.31
805.013	302.42
805.201	181.59
805.388	-6.83
805.576	267.6
805.763	773.45
805.951	187.73
806.138	290.13
806.326	871.75
806.513	470.35
806.701	111.96
806.888	116.05
807.075	441.68
807.263	761.16
807.45	-21.16
807.638	288.08
807.825	767.31
808.012	572.75
808.2	261.46
808.387	343.38
808.574	560.46
808.761	742.73
808.949	15.7
809.136	150.87
809.323	247.12
809.51	324.94
809.698	421.2
809.885	298.32
810.072	544.08
810.259	593.23
810.446	193.87
810.633	179.54
810.82	664.91
811.008	765.26
811.195	365.9
811.382	177.49
811.569	402.77
811.756	64.85
811.943	185.68
812.13	99.67
812.317	292.18
812.504	283.99
812.691	138.58
812.878	279.89
813.064	701.77
813.251	470.35
813.438	-2.73
813.625	288.08
813.812	324.94
813.999	396.62
814.186	238.93
814.372	220.5
814.559	345.42
814.746	634.19
814.933	238.93
815.12	281.94
815.306	279.89
815.493	195.92
815.68	83.28
815.866	197.97
816.053	650.57
816.24	988.49
816.426	318.8
816.613	103.76
816.799	574.8
816.986	652.62
817.173	124.24
817.359	87.38
817.546	476.49
817.732	52.56
817.919	-150.18
818.105	259.41
818.292	316.75
818.478	488.78
818.665	292.18
818.851	27.99
819.037	898.38
819.224	464.21
819.41	36.18
819.597	216.4
819.783	750.92
819.969	511.31
820.156	214.35
820.342	27.99
820.528	1099.08
820.714	345.42
820.901	351.57
821.087	206.16
821.273	771.4
821.459	331.09
821.646	130.39
821.832	44.37
822.018	433.49
822.204	437.58
822.39	120.15
822.576	9.56
822.762	544.08
822.948	439.63
823.134	294.22
823.32	154.96
823.507	66.9
823.693	427.34
823.879	589.13
824.065	52.56
824.25	427.34
824.436	179.54
824.622	208.21
824.808	5.46
824.994	265.55
825.18	206.16
825.366	46.42
825.552	120.15
825.738	324.94
825.923	537.93
826.109	466.25
826.295	118.1
826.481	197.97
826.667	312.66
826.852	310.61
827.038	101.72
827.224	599.37
827.409	750.92
827.595	-37.55
827.781	300.37
827.966	572.75
828.152	685.39
828.338	245.07
828.523	101.72
828.709	251.22
828.894	795.98
829.08	163.15
829.266	173.39
829.451	240.98
829.637	437.58
829.822	255.31
830.008	85.33
830.193	607.56
830.378	777.55
830.564	179.54
830.749	97.62
830.935	523.6
831.12	456.01
831.305	75.09
831.491	322.9
831.676	124.24
831.861	587.08
832.047	138.58
832.232	71
832.417	644.43
832.602	421.2
832.788	95.57
832.973	-2.73
833.158	433.49
833.343	404.82
833.528	267.6
833.714	286.03
833.899	562.51
834.084	908.62
834.269	249.17
834.454	140.63
834.639	628.04
834.824	458.06
835.009	333.14
835.194	365.9
835.379	517.45
835.564	791.88
835.749	388.43
835.934	89.43
836.119	636.24
836.304	378.19
836.489	157.01
836.674	439.63
836.859	265.55
837.044	742.73
837.228	253.27
837.413	124.24
837.598	505.17
837.783	609.61
837.968	208.21
838.152	-0.68
838.337	-101.03
838.522	652.62
838.707	546.12
838.891	343.38
839.076	503.12
839.261	664.91
839.445	177.49
839.63	249.17
839.815	814.41
839.999	308.56
840.184	200.02
840.368	195.92
840.553	654.67
840.737	664.91
840.922	54.61
841.106	44.37
841.291	193.87
841.475	496.97
841.66	101.72
841.844	152.92
842.029	1070.41
842.213	208.21
842.397	126.29
842.582	-58.03
842.766	724.3
842.951	609.61
843.135	185.68
843.319	175.44
843.504	585.04
843.688	662.86
843.872	-39.59
844.056	146.77
844.241	574.8
844.425	318.8
844.609	374.1
844.793	-39.59
844.977	703.82
845.161	513.36
845.346	46.42
845.53	130.39
845.714	410.96
845.898	810.31
846.082	34.13
846.266	259.41
846.45	476.49
846.634	484.69
846.818	140.63
847.002	259.41
847.186	568.65
847.37	197.97
847.554	5.46
847.738	249.17
847.922	503.12
848.106	535.89
848.29	52.56
848.473	109.91
848.657	632.14
848.841	337.23
849.025	116.05
849.209	42.32
849.392	568.65
849.576	386.38
849.76	-45.74
849.944	324.94
850.127	740.68
850.311	152.92
850.495	15.7
850.678	3.41
850.862	652.62
851.046	861.51
851.229	398.67
851.413	48.47
851.596	351.57
851.78	384.34
851.964	283.99
852.147	253.27
852.331	1152.32
852.514	652.62
852.698	275.79
852.881	48.47
853.065	652.62
853.248	435.53
853.431	345.42
853.615	277.84
853.798	988.49
853.982	453.97
854.165	302.42
854.348	197.97
854.532	206.16
854.715	200.02
854.898	191.83
855.081	173.39
855.265	824.65
855.448	851.27
855.631	157.01
855.814	177.49
855.997	628.04
856.181	365.9
856.364	144.72
856.547	-19.11
856.73	466.25
856.913	472.4
857.096	25.94
857.279	265.55
857.462	300.37
857.645	666.96
857.828	279.89
858.011	224.59
858.194	286.03
858.377	593.23
858.56	122.2
858.743	163.15
858.926	222.55
859.109	574.8
859.292	128.34
859.475	52.56
859.658	683.34
859.841	601.42
860.023	132.44
860.206	23.89
860.389	435.53
860.572	785.74
860.755	210.26
860.937	105.81
861.12	341.33
861.303	468.3
861.486	243.03
861.668	5.46
861.851	544.08
862.034	456.01
862.216	265.55
862.399	-152.23
862.581	552.27
862.764	888.14
862.947	271.7
863.129	62.8
863.312	99.67
863.494	857.42
863.677	464.21
863.859	-23.21
864.042	640.33
864.224	718.15
864.406	357.71
864.589	17.75
864.771	507.21
864.954	185.68
865.136	75.09
865.318	-62.12
865.501	628.04
865.683	-19.11
865.865	93.52
866.048	99.67
866.23	480.59
866.412	410.96
866.594	58.71
866.777	234.83
866.959	529.74
867.141	238.93
867.323	425.29
867.505	245.07
867.687	372.05
867.869	343.38
868.052	189.78
868.234	40.28
868.416	386.38
868.598	566.6
868.78	150.87
868.962	-0.68
869.144	587.08
869.326	587.08
869.508	154.96
869.69	30.04
869.872	228.69
870.054	656.72
870.236	-62.12
870.417	79.19
870.599	341.33
870.781	752.97
870.963	320.85
871.145	60.76
871.327	142.68
871.508	603.47
871.69	173.39
871.872	202.07
872.054	361.81
872.235	499.02
872.417	259.41
872.599	-37.55
872.78	826.7
872.962	490.83
873.144	-27.31
873.325	206.16
873.507	818.5
873.689	572.75
873.87	5.46
874.052	183.63
874.233	398.67
874.415	709.96
874.596	202.07
874.778	-31.4
874.959	482.64
875.141	570.7
875.322	224.59
875.503	83.28
875.685	554.32
875.866	30.04
876.048	-60.07
876.229	75.09
876.41	394.58
876.592	490.83
876.773	150.87
876.954	1.37
877.136	703.82
877.317	316.75
877.498	-10.92
877.679	157.01
877.86	533.84
878.042	396.62
878.223	50.52
878.404	382.29
878.585	546.12
878.766	851.27
878.947	429.39
879.128	378.19
879.309	576.84
879.49	630.09
879.672	251.22
879.853	130.39
880.034	226.64
880.215	425.29
880.396	206.16
880.576	44.37
880.757	255.31
880.938	744.78
881.119	128.34
881.3	44.37
881.481	197.97
881.662	1197.38
881.843	68.95
882.023	-23.21
882.204	445.77
882.385	367.95
882.566	83.28
882.747	1.37
882.927	359.76
883.108	453.97
883.289	107.86
883.469	240.98
883.65	294.22
883.831	296.27
884.011	306.51
884.192	136.53
884.373	525.65
884.553	447.82
884.734	326.99
884.914	449.87
885.095	1025.35
885.275	922.95
885.456	486.73
885.636	-2.73
885.817	341.33
885.997	410.96
886.178	138.58
886.358	230.74
886.538	392.53
886.719	1389.89
886.899	144.72
887.08	234.83
887.26	523.6
887.44	163.15
887.621	13.65
887.801	298.32
887.981	945.48
888.161	644.43
888.342	275.79
888.522	220.5
888.702	648.52
888.882	681.29
889.062	337.23
889.242	-105.13
889.423	732.49
889.603	517.45
889.783	263.51
889.963	99.67
890.143	652.62
890.323	673.1
890.503	206.16
890.683	216.4
890.863	390.48
891.043	582.99
891.223	312.66
891.403	378.19
891.583	402.77
891.763	433.49
891.943	243.03
892.122	197.97
892.302	404.82
892.482	419.15
892.662	388.43
892.842	83.28
893.022	515.41
893.201	247.12
893.381	365.9
893.561	197.97
893.741	595.28
893.92	666.96
894.1	324.94
894.28	286.03
894.459	591.18
894.639	679.24
894.819	118.1
894.998	304.46
895.178	513.36
895.357	552.27
895.537	212.31
895.716	17.75
895.896	451.92
896.075	830.79
896.255	271.7
896.434	-2.73
896.614	644.43
896.793	795.98
896.973	343.38
897.152	406.86
897.331	558.41
897.511	683.34
897.69	-4.78
897.87	294.22
898.049	734.54
898.228	417.1
898.407	402.77
898.587	281.94
898.766	320.85
898.945	636.24
899.124	427.34
899.304	232.79
899.483	539.98
899.662	871.75
899.841	185.68
900.02	255.31
900.199	736.59
900.378	519.5
900.557	111.96
900.737	177.49
900.916	523.6
901.095	658.76
901.274	445.77
901.453	116.05
901.632	249.17
901.811	281.94
901.989	177.49
902.168	85.33
902.347	626
902.526	177.49
902.705	197.97
902.884	345.42
903.063	793.93
903.242	734.54
903.42	159.06
903.599	318.8
903.778	709.96
903.957	824.65
904.135	318.8
904.314	324.94
904.493	478.54
904.672	597.32
904.85	234.83
905.029	197.97
905.207	509.26
905.386	1244.48
905.565	140.63
905.743	173.39
905.922	359.76
906.1	630.09
906.279	111.96
906.457	132.44
906.636	288.08
906.814	425.29
906.993	224.59
907.171	169.3
907.35	617.8
907.528	621.9
907.707	447.82
907.885	185.68
908.063	920.9
908.242	367.95
908.42	216.4
908.598	40.28
908.777	521.55
908.955	370
909.133	306.51
909.311	146.77
909.49	439.63
909.668	433.49
909.846	206.16
910.024	38.23
910.202	468.3
910.38	492.88
910.559	193.87
910.737	132.44
910.915	611.66
911.093	580.94
911.271	181.59
911.449	447.82
911.627	496.97
911.805	879.94
911.983	212.31
912.161	253.27
912.339	599.37
912.517	681.29
912.695	451.92
912.872	218.45
913.05	283.99
913.228	593.23
913.406	148.82
913.584	97.62
913.762	673.1
913.939	312.66
914.117	120.15
914.295	42.32
914.473	589.13
914.65	539.98
914.828	177.49
915.006	204.11
915.184	206.16
915.361	499.02
915.539	308.56
915.716	445.77
915.894	572.75
916.072	613.71
916.249	466.25
916.427	308.56
916.604	169.3
916.782	560.46
916.959	114
917.137	169.3
917.314	529.74
917.492	603.47
917.669	304.46
917.847	245.07
918.024	537.93
918.201	247.12
918.379	292.18
918.556	228.69
918.733	578.89
918.911	324.94
919.088	378.19
919.265	191.83
919.442	492.88
919.62	458.06
919.797	152.92
919.974	34.13
920.151	546.12
920.328	435.53
920.506	171.35
920.683	294.22
920.86	269.65
921.037	228.69
921.214	265.55
921.391	154.96
921.568	630.09
921.745	279.89
921.922	218.45
922.099	103.76
922.276	689.48
922.453	451.92
922.63	173.39
922.807	527.69
922.984	396.62
923.161	288.08
923.338	230.74
923.514	165.2
923.691	351.57
923.868	488.78
924.045	206.16
924.222	19.8
924.399	531.79
924.575	609.61
924.752	228.69
924.929	210.26
925.105	542.03
925.282	279.89
925.459	167.25
925.635	216.4
925.812	386.38
925.989	220.5
926.165	251.22
926.342	38.23
926.518	173.39
926.695	460.11
926.871	105.81
927.048	-51.88
927.224	615.76
927.401	367.95
927.577	234.83
927.754	124.24
927.93	669
928.107	521.55
928.283	46.42
928.459	326.99
928.636	626
928.812	388.43
928.988	134.48
929.165	1.37
929.341	337.23
929.517	429.39
929.693	496.97
929.87	-68.27
930.046	505.17
930.222	296.27
930.398	44.37
930.574	300.37
930.751	423.25
930.927	298.32
931.103	238.93
931.279	243.03
931.455	255.31
931.631	492.88
931.807	-47.79
931.983	-12.97
932.159	66.9
932.335	310.61
932.511	169.3
932.687	128.34
932.863	421.2
933.039	456.01
933.215	-35.5
933.391	56.66
933.566	341.33
933.742	331.09
933.918	124.24
934.094	-39.59
934.27	402.77
934.445	359.76
934.621	302.42
934.797	97.62
934.973	648.52
935.148	441.68
935.324	54.61
935.5	-86.7
935.675	587.08
935.851	486.73
936.027	107.86
936.202	136.53
936.378	425.29
936.553	310.61
936.729	496.97
936.904	71
937.08	38.23
937.255	171.35
937.431	32.08
937.606	21.85
937.782	214.35
937.957	351.57
938.133	177.49
938.308	58.71
938.483	230.74
938.659	154.96
938.834	212.31
939.009	27.99
939.185	230.74
939.36	140.63
939.535	-144.04
939.71	134.48
939.886	548.17
940.061	406.86
940.236	226.64
940.411	71
940.586	402.77
940.761	345.42
940.937	118.1
941.112	27.99
941.287	320.85
941.462	318.8
941.637	-94.89
941.812	46.42
941.987	335.18
942.162	304.46
942.337	152.92
942.512	19.8
942.687	492.88
942.862	468.3
943.037	-92.84
943.212	-242.34
943.386	224.59
943.561	304.46
943.736	216.4
943.911	136.53
944.086	365.9
944.26	253.27
944.435	52.56
944.61	83.28
944.785	582.99
944.959	718.15
945.134	111.96
945.309	-76.46
945.483	52.56
945.658	437.58
945.833	-242.34
946.007	-82.6
946.182	675.15
946.357	1.37
946.531	-27.31
946.706	15.7
946.88	-96.94
947.055	259.41
947.229	-72.36
947.404	-117.42
947.578	396.62
947.752	185.68
947.927	-96.94
948.101	-158.38
948.276	279.89
948.45	228.69
948.624	197.97
948.799	-12.97
948.973	247.12
949.147	-103.08
949.321	60.76
949.496	-66.22
949.67	509.26
949.844	159.06
950.018	15.7
950.193	-90.79
950.367	677.2
950.541	60.76
950.715	150.87
950.889	146.77
951.063	99.67
951.237	378.19
951.411	-209.58
951.585	-144.04
951.759	382.29
951.933	236.88
952.107	-39.59
952.281	56.66
952.455	531.79
952.629	415.06
952.803	-53.93
952.977	-17.07
953.151	351.57
953.325	263.51
953.499	111.96
953.672	-215.72
953.846	-17.07
954.02	81.24
954.194	-101.03
954.368	25.94
954.541	386.38
954.715	79.19
954.889	38.23
955.062	-141.99
955.236	216.4
955.41	157.01
955.583	93.52
955.757	-203.43
955.93	99.67
956.104	-4.78
956.278	-60.07
956.451	-39.59
956.625	341.33
956.798	636.24
956.972	210.26
957.145	-133.8
957.319	249.17
957.492	214.35
957.665	122.2
957.839	-53.93
958.012	283.99
958.185	150.87
958.359	-72.36
958.532	183.63
958.705	363.86
958.879	288.08
959.052	56.66
959.225	-162.47
959.398	232.79
959.572	257.36
959.745	-72.36
959.918	-43.69
960.091	91.48
960.264	322.9
960.438	-191.14
960.611	-78.51
960.784	378.19
960.957	25.94
961.13	339.28
961.303	-117.42
961.476	142.68
961.649	431.44
961.822	-127.66
961.995	21.85
962.168	286.03
962.341	148.82
962.514	-25.26
962.686	-23.21
962.859	234.83
963.032	353.62
963.205	-62.12
963.378	-215.72
963.551	294.22
963.723	226.64
963.896	136.53
964.069	91.48
964.242	193.87
964.414	359.76
964.587	1.37
964.76	64.85
964.932	195.92
965.105	175.44
965.278	-19.11
965.45	-62.12
965.623	247.12
965.795	349.52
965.968	-25.26
966.14	-88.75
966.313	103.76
966.485	128.34
966.658	25.94
966.83	-189.1
967.003	451.92
967.175	429.39
967.348	-49.83
967.52	-15.02
967.692	533.84
967.865	306.51
968.037	-2.73
968.209	210.26
968.382	183.63
968.554	347.47
968.726	-43.69
968.898	-51.88
969.071	236.88
969.243	341.33
969.415	-23.21
969.587	23.89
969.759	701.77
969.932	343.38
970.104	11.61
970.276	-262.82
970.448	107.86
970.62	109.91
970.792	128.34
970.964	-6.83
971.136	656.72
971.308	269.65
971.48	-107.18
971.652	-144.04
971.824	542.03
971.996	46.42
972.168	34.13
972.339	101.72
972.511	402.77
972.683	163.15
972.855	286.03
973.027	-29.35
973.199	206.16
973.37	331.09
973.542	136.53
973.714	83.28
973.886	212.31
974.057	353.62
974.229	-119.46
974.401	34.13
974.572	-39.59
974.744	-275.11
974.915	-146.09
975.087	-64.17
975.259	517.45
975.43	71
975.602	-35.5
975.773	-160.42
975.945	66.9
976.116	316.75
976.288	-178.86
976.459	66.9
976.63	111.96
976.802	312.66
976.973	-64.17
977.145	77.14
977.316	525.65
977.487	531.79
977.659	44.37
977.83	21.85
978.001	595.28
978.172	267.6
978.344	-150.18
978.515	83.28
978.686	181.59
978.857	511.31
979.028	-53.93
979.2	-58.03
979.371	492.88
979.542	134.48
979.713	87.38
979.884	-381.6
980.055	36.18
980.226	66.9
980.397	-21.16
980.568	-187.05
980.739	419.15
980.91	120.15
981.081	161.11
981.252	-117.42
981.423	222.55
981.594	390.48
981.765	-150.18
981.936	93.52
982.106	216.4
982.277	456.01
982.448	-109.22
982.619	116.05
982.79	83.28
982.96	384.34
983.131	140.63
983.302	-244.39
983.472	5.46
983.643	240.98
983.814	15.7
983.984	-25.26
984.155	157.01
984.326	431.44
984.496	54.61
984.667	-23.21
984.837	64.85
985.008	410.96
985.178	91.48
985.349	-74.41
985.519	197.97
985.69	66.9
985.86	-43.69
986.031	-76.46
986.201	249.17
986.371	312.66
986.542	-117.42
986.712	-152.23
986.882	277.84
987.053	263.51
987.223	-162.47
987.393	3.41
987.563	114
987.734	322.9
987.904	247.12
988.074	-72.36
988.244	265.55
988.414	66.9
988.585	-127.66
988.755	-4.78
988.925	197.97
989.095	525.65
989.265	11.61
989.435	-70.31
989.605	269.65
989.775	345.42
989.945	208.21
990.115	-174.76
990.285	120.15
990.455	259.41
990.625	30.04
990.795	-107.18
990.965	468.3
991.134	-31.4
991.304	-162.47
991.474	-80.55
991.644	245.07
991.814	568.65
991.984	-234.15
992.153	-111.27
992.323	64.85
992.493	216.4
992.662	-289.45
992.832	157.01
993.002	107.86
993.171	234.83
993.341	-244.39
993.511	21.85
993.68	56.66
993.85	267.6
994.019	-289.45
994.189	-195.24
994.358	183.63
994.528	89.43
994.697	-328.36
994.867	-256.68
995.036	347.47
995.206	44.37
995.375	-217.77
995.544	50.52
995.714	165.2
995.883	60.76
996.052	-47.79
996.222	-344.74
996.391	726.35
996.56	146.77
996.73	-164.52
996.899	-260.77
997.068	546.12
997.237	126.29
997.406	-236.2
997.576	-217.77
997.745	130.39
997.914	214.35
998.083	-383.65
998.252	-154.28
998.421	157.01
998.59	-47.79
998.759	-238.25
998.928	-336.55
999.097	370
999.266	173.39
999.435	75.09
999.604	-389.8
999.773	691.53
999.942	122.2
1000.111	-260.77
1000.28	-363.17
1000.448	-60.07
1000.617	-66.22
1000.786	62.8
1000.955	-160.42
1001.124	148.82
1001.292	718.15
1001.461	-162.47
1001.63	-205.48
1001.798	533.84
1001.967	361.81
1002.136	-297.64
1002.304	-266.92
1002.473	200.02
1002.642	197.97
1002.81	-70.31
1002.979	-217.77
1003.147	234.83
1003.316	752.97
1003.484	-182.95
1003.653	-232.1
1003.821	359.76
1003.99	150.87
1004.158	-119.46
1004.327	-94.89
1004.495	189.78
1004.663	-19.11
1004.832	-55.98
1005	-338.6
1005.168	257.36
1005.337	197.97
1005.505	-348.84
1005.673	-55.98
1005.842	314.7
1006.01	148.82
1006.178	-330.41
1006.346	-232.1
1006.514	322.9
1006.683	363.86
1006.851	-262.82
1007.019	-367.27
1007.187	-137.9
1007.355	-301.73
1007.523	-416.42
1007.691	-264.87
1007.859	-230.06
1008.027	388.43
1008.195	-152.23
1008.363	-332.45
1008.531	281.94
1008.699	-41.64
1008.867	-297.64
1009.035	-223.91
1009.203	394.58
1009.37	134.48
1009.538	-191.14
1009.706	206.16
1009.874	169.3
1010.042	144.72
1010.209	-350.89
1010.377	-205.48
1010.545	232.79
1010.713	152.92
1010.88	-203.43
1011.048	-178.86
1011.216	58.71
1011.383	326.99
1011.551	-244.39
1011.718	-389.8
1011.886	376.14
1012.054	91.48
1012.221	-309.93
1012.389	-295.59
1012.556	1.37
1012.724	470.35
1012.891	-162.47
1013.058	-350.89
1013.226	226.64
1013.393	308.56
1013.561	-350.89
1013.728	-367.27
1013.895	236.88
1014.063	228.69
1014.23	-352.93
1014.397	-213.67
1014.565	261.46
1014.732	91.48
1014.899	-297.64
1015.066	-264.87
1015.233	140.63
1015.401	257.36
1015.568	-98.99
1015.735	-121.51
1015.902	152.92
1016.069	267.6
1016.236	-201.38
1016.403	-230.06
1016.57	-64.17
1016.737	337.23
1016.904	-203.43
1017.071	-328.36
1017.238	9.56
1017.405	322.9
1017.572	-232.1
1017.739	-35.5
1017.906	230.74
1018.073	329.04
1018.24	-316.07
1018.407	-178.86
1018.573	341.33
1018.74	32.08
1018.907	-176.81
1019.074	-443.04
1019.241	372.05
1019.407	214.35
1019.574	-307.88
1019.741	-400.04
1019.907	226.64
1020.074	273.75
1020.241	-422.56
1020.407	-336.55
1020.574	218.45
1020.74	167.25
1020.907	-205.48
1021.073	-236.2
1021.24	617.8
1021.406	521.55
1021.573	-350.89
1021.739	-219.82
1021.906	402.77
1022.072	154.96
1022.239	-199.34
1022.405	-209.58
1022.571	175.44
1022.738	-41.64
1022.904	-250.53
1023.07	-166.57
1023.237	122.2
1023.403	439.63
1023.569	-217.77
1023.735	-162.47
1023.902	255.31
1024.068	193.87
1024.234	-305.83
1024.4	-258.73
1024.566	183.63
1024.732	367.95
1024.898	-236.2
1025.065	-424.61
1025.231	306.51
1025.397	-58.03
1025.563	-277.16
1025.729	-332.45
1025.895	-342.69
1026.061	-191.14
1026.227	-391.84
1026.392	-232.1
1026.558	355.66
1026.724	236.88
1026.89	-201.38
1027.056	-166.57
1027.222	154.96
1027.388	9.56
1027.553	-277.16
1027.719	-228.01
1027.885	511.31
1028.051	257.36
1028.216	-418.47
1028.382	-187.05
1028.548	267.6
1028.713	-27.31
1028.879	-305.83
1029.045	-70.31
1029.21	468.3
1029.376	372.05
1029.541	-182.95
1029.707	-166.57
1029.873	247.12
1030.038	302.42
1030.204	-293.54
1030.369	-182.95
1030.534	378.19
1030.7	-8.87
1030.865	-266.92
1031.031	-246.44
1031.196	146.77
1031.361	181.59
1031.527	-297.64
1031.692	-252.58
1031.857	-330.41
1032.023	230.74
1032.188	-340.65
1032.353	-234.15
1032.518	486.73
1032.684	150.87
1032.849	-379.56
1033.014	-256.68
1033.179	290.13
1033.344	286.03
1033.509	-119.46
1033.674	-197.29
1033.839	341.33
1034.004	240.98
1034.17	-285.35
1034.335	-346.79
1034.5	116.05
1034.664	60.76
1034.829	-318.12
1034.994	-223.91
1035.159	181.59
1035.324	216.4
1035.489	-215.72
1035.654	-260.77
1035.819	484.69
1035.984	193.87
1036.148	-182.95
1036.313	-221.86
1036.478	394.58
1036.643	77.14
1036.807	-211.62
1036.972	-238.25
1037.137	443.73
1037.301	157.01
1037.466	-379.56
1037.631	-156.33
1037.795	447.82
1037.96	165.2
1038.124	48.47
1038.289	-352.93
1038.454	288.08
1038.618	169.3
1038.783	-197.29
1038.947	-141.99
1039.111	144.72
1039.276	93.52
1039.44	-178.86
1039.605	175.44
1039.769	34.13
1039.933	167.25
1040.098	-105.13
1040.262	-15.02
1040.426	281.94
1040.591	324.94
1040.755	-361.13
1040.919	-225.96
1041.083	290.13
1041.248	154.96
1041.412	-318.12
1041.576	-283.3
1041.74	154.96
1041.904	345.42
1042.068	-254.63
1042.232	-215.72
1042.397	378.19
1042.561	136.53
1042.725	-428.71
1042.889	23.89
1043.053	333.14
1043.217	253.27
1043.381	-146.09
1043.544	-346.79
1043.708	437.58
1043.872	-135.85
1044.036	-428.71
1044.2	-279.21
1044.364	451.92
1044.528	449.87
1044.691	4515.09
1044.855	-211.62
1045.019	410.96
1045.183	265.55
1045.346	-119.46
1045.51	-328.36
1045.674	230.74
1045.837	281.94
1046.001	-289.45
1046.165	-266.92
1046.328	742.73
1046.492	316.75
1046.655	-80.55
1046.819	-82.6
1046.983	7.51
1047.146	331.09
1047.31	-174.76
1047.473	-381.6
1047.636	105.81
1047.8	-58.03
1047.963	-150.18
1048.127	-228.01
1048.29	-35.5
