Data from Ink_Intensity_USB4F045381__15__00015.txt Node

Date: Mon Jul 17 09:37:02 EDT 2023
User: mmckonesweet
Spectrometer: USB4F04538
Trigger mode: 4
Integration Time (sec): 9.000000E-1
Scans to average: 1
Electric dark correction enabled: true
Nonlinearity correction enabled: false
Boxcar width: 0
XAxis mode: Wavelengths
Number of Pixels in Spectrum: 3648
>>>>>Begin Spectral Data<<<<<
345.52	-967.15
345.736	-967.15
345.952	-967.15
346.168	-907.76
346.384	-950.77
346.6	-70.14
346.816	-256.51
347.032	-205.31
347.248	241.15
347.464	-186.88
347.68	-98.81
347.896	132.61
348.112	329.21
348.328	-2.56
348.544	-109.05
348.76	-25.09
348.975	251.39
349.191	-184.83
349.407	-184.83
349.623	-94.72
349.839	-137.73
350.055	-139.77
350.27	58.88
350.486	108.03
350.702	355.83
350.918	239.1
351.133	-160.25
351.349	93.69
351.565	323.07
351.781	-158.21
351.996	3.58
352.212	228.86
352.428	-170.49
352.644	-113.15
352.859	-264.7
353.075	224.76
353.291	-88.57
353.506	-104.96
353.722	-80.38
353.938	-96.77
354.153	378.36
354.369	40.45
354.584	-158.21
354.8	269.82
355.016	-274.94
355.231	-223.74
355.447	-76.29
355.662	165.37
355.878	845.3
356.093	-223.74
356.309	-0.51
356.524	-154.11
356.74	198.14
356.955	-121.34
357.171	-10.75
357.386	142.85
357.602	-203.26
357.817	-51.71
358.033	-145.92
358.248	333.31
358.464	103.93
358.679	-109.05
358.895	-315.9
359.11	34.3
359.325	249.34
359.541	286.2
359.756	5.63
359.972	-248.32
360.187	118.27
360.402	-115.2
360.618	-109.05
360.833	749.04
361.048	116.22
361.264	-166.4
361.479	5.63
361.694	-59.9
361.909	198.14
362.125	-170.49
362.34	-119.29
362.555	183.81
362.77	142.85
362.986	-166.4
363.201	-82.43
363.416	200.19
363.631	-20.99
363.847	-186.88
364.062	-168.45
364.277	163.33
364.492	81.41
364.707	-76.29
364.922	-287.23
365.138	310.78
365.353	407.03
365.568	-209.4
365.783	-166.4
365.998	65.02
366.213	566.78
366.428	-190.97
366.643	189.95
366.858	243.2
367.073	245.24
367.288	-55.81
367.503	-258.56
367.718	118.27
367.933	239.1
368.148	-248.32
368.363	-88.57
368.578	-51.71
368.793	388.6
369.008	-51.71
369.223	-203.26
369.438	187.9
369.653	329.21
369.868	-254.46
370.083	-252.41
370.298	52.74
370.513	327.16
370.728	3.58
370.943	-129.53
371.157	-201.21
371.372	501.24
371.587	-254.46
371.802	-262.65
372.017	-4.61
372.232	312.83
372.446	-49.66
372.661	-205.31
372.876	202.24
373.091	185.85
373.306	46.59
373.52	-242.17
373.735	-180.73
373.95	255.48
374.165	-104.96
374.379	-119.29
374.594	-141.82
374.809	52.74
375.023	9.73
375.238	-184.83
375.453	97.79
375.667	-137.73
375.882	-113.15
376.097	-113.15
376.311	58.88
376.526	-98.81
376.741	-244.22
376.955	71.17
377.17	572.92
377.384	525.82
377.599	-64
377.813	-180.73
378.028	513.53
378.242	132.61
378.457	-57.86
378.672	-352.76
378.886	11.78
379.101	-59.9
379.315	-295.42
379.53	-100.86
379.744	157.18
379.958	114.17
380.173	-123.39
380.387	-285.18
380.602	243.2
380.816	-96.77
381.031	-145.92
381.245	-180.73
381.459	189.95
381.674	2299.36
381.888	-170.49
382.103	130.56
382.317	-188.93
382.531	458.23
382.746	-61.95
382.96	-113.15
383.174	-117.25
383.388	423.42
383.603	40.45
383.817	-170.49
384.031	148.99
384.246	374.27
384.46	60.93
384.674	194.05
384.888	13.82
385.103	112.13
385.317	-219.64
385.531	-78.33
385.745	222.72
385.959	214.52
386.174	-150.01
386.388	-246.27
386.602	-66.05
386.816	-160.25
387.03	-84.48
387.244	-47.62
387.458	3.58
387.672	318.97
387.887	-180.73
388.101	-268.8
388.315	390.65
388.529	157.18
388.743	-70.14
388.957	-209.4
389.171	296.44
389.385	-174.59
389.599	7.68
389.813	138.75
390.027	232.96
390.241	599.54
390.455	-98.81
390.669	-49.66
390.883	-72.19
391.097	251.39
391.311	48.64
391.525	-86.53
391.738	202.24
391.952	105.98
392.166	-59.9
392.38	-219.64
392.594	185.85
392.808	224.76
393.022	-41.47
393.236	-121.34
393.449	146.94
393.663	169.47
393.877	-168.45
394.091	3.58
394.305	-135.68
394.518	-117.25
394.732	-244.22
394.946	-186.88
395.16	509.43
395.373	85.5
395.587	-217.6
395.801	-129.53
396.015	275.96
396.228	175.61
396.442	-250.36
396.656	-285.18
396.869	263.68
397.083	450.04
397.297	-80.38
397.51	-20.99
397.724	417.27
397.938	140.8
398.151	-203.26
398.365	-156.16
398.578	181.76
398.792	380.41
399.005	-84.48
399.219	-88.57
399.433	198.14
399.646	325.12
399.86	73.21
400.073	22.02
400.287	99.84
400.5	3.58
400.714	54.78
400.927	-37.38
401.141	169.47
401.354	966.13
401.567	202.24
401.781	-217.6
401.994	370.17
402.208	538.1
402.421	-96.77
402.635	5.63
402.848	99.84
403.061	302.59
403.275	28.16
403.488	-129.53
403.701	443.9
403.915	343.55
404.128	52.74
404.341	-131.58
404.555	146.94
404.768	28.16
404.981	85.5
405.195	-135.68
405.408	509.43
405.621	253.44
405.834	3.58
406.048	-262.65
406.261	370.17
406.474	458.23
406.687	-119.29
406.9	50.69
407.114	48.64
407.327	99.84
407.54	-219.64
407.753	-135.68
407.966	-57.86
408.179	302.59
408.392	-96.77
408.605	-223.74
408.819	230.91
409.032	161.28
409.245	-94.72
409.458	144.89
409.671	230.91
409.884	224.76
410.097	-250.36
410.31	60.93
410.523	294.4
410.736	19.97
410.949	-2.56
411.162	-14.85
411.375	468.47
411.588	298.49
411.801	17.92
412.014	-82.43
412.227	91.65
412.44	-53.76
412.653	-88.57
412.865	110.08
413.078	288.25
413.291	220.67
413.504	11.78
413.717	-84.48
413.93	261.63
414.143	-90.62
414.356	5.63
414.568	-199.16
414.781	361.98
414.994	220.67
415.207	-18.94
415.42	42.5
415.632	374.27
415.845	513.53
416.058	-135.68
416.271	-143.87
416.483	79.36
416.696	538.1
416.909	-86.53
417.121	-104.96
417.334	243.2
417.547	642.55
417.759	-135.68
417.972	-78.33
418.185	-31.23
418.397	366.07
418.61	-117.25
418.823	-20.99
419.035	509.43
419.248	17.92
419.46	9.73
419.673	42.5
419.885	286.2
420.098	28.16
420.311	-18.94
420.523	-188.93
420.736	265.72
420.948	58.88
421.161	5.63
421.373	-145.92
421.586	124.41
421.798	-86.53
422.01	-100.86
422.223	19.97
422.435	-27.14
422.648	343.55
422.86	11.78
423.073	-35.33
423.285	431.61
423.497	-150.01
423.71	-104.96
423.922	-166.4
424.134	257.53
424.347	433.66
424.559	110.08
424.771	202.24
424.984	118.27
425.196	239.1
425.408	-162.3
425.621	-88.57
425.833	470.52
426.045	368.12
426.257	-137.73
426.47	-57.86
426.682	202.24
426.894	245.24
427.106	58.88
427.318	99.84
427.531	-45.57
427.743	325.12
427.955	-39.42
428.167	345.59
428.379	314.88
428.591	136.7
428.804	60.93
429.016	-68.09
429.228	-16.9
429.44	251.39
429.652	87.55
429.864	-180.73
430.076	126.46
430.288	71.17
430.5	77.31
430.712	-12.8
430.924	411.13
431.136	167.42
431.348	-84.48
431.56	-12.8
431.772	210.43
431.984	-8.7
432.196	-31.23
432.408	56.83
432.62	26.11
432.832	300.54
433.044	202.24
433.256	116.22
433.468	404.99
433.679	-78.33
433.891	-107.01
434.103	200.19
434.315	478.71
434.527	257.53
434.739	73.21
434.95	13.82
435.162	437.75
435.374	71.17
435.586	62.98
435.798	-20.99
436.009	-29.18
436.221	87.55
436.433	-31.23
436.645	67.07
436.856	120.32
437.068	359.93
437.28	-55.81
437.491	278.01
437.703	318.97
437.915	271.87
438.126	30.21
438.338	288.25
438.55	296.44
438.761	351.74
438.973	79.36
439.184	58.88
439.396	275.96
439.608	587.26
439.819	-111.1
440.031	179.71
440.242	374.27
440.454	366.07
440.665	95.74
440.877	183.81
441.088	392.7
441.3	136.7
441.511	-29.18
441.723	-0.51
441.934	300.54
442.146	173.57
442.357	116.22
442.569	282.11
442.78	226.81
442.991	595.45
443.203	357.88
443.414	-72.19
443.626	570.87
443.837	126.46
444.048	-41.47
444.26	-72.19
444.471	259.58
444.682	505.34
444.894	-129.53
445.105	-37.38
445.316	476.66
445.528	341.5
445.739	173.57
445.95	108.03
446.161	407.03
446.373	519.67
446.584	79.36
446.795	91.65
447.006	394.75
447.217	644.6
447.429	-61.95
447.64	13.82
447.851	456.19
448.062	280.06
448.273	-121.34
448.484	60.93
448.695	433.66
448.907	232.96
449.118	146.94
449.329	257.53
449.54	114.17
449.751	73.21
449.962	140.8
450.173	122.37
450.384	472.57
450.595	564.73
450.806	81.41
451.017	136.7
451.228	673.27
451.439	527.86
451.65	206.33
451.861	-131.58
452.072	124.41
452.283	271.87
452.494	267.77
452.705	122.37
452.915	595.45
453.126	372.22
453.337	58.88
453.548	103.93
453.759	554.49
453.97	830.96
454.181	306.68
454.391	192
454.602	376.31
454.813	497.14
455.024	192
455.235	163.33
455.445	392.7
455.656	398.84
455.867	396.79
456.078	97.79
456.288	304.64
456.499	482.81
456.71	173.57
456.921	488.95
457.131	495.1
457.342	374.27
457.553	263.68
457.763	202.24
457.974	570.87
458.184	527.86
458.395	130.56
458.606	56.83
458.816	714.23
459.027	843.25
459.237	345.59
459.448	-14.85
459.659	724.47
459.869	896.5
460.08	15.87
460.29	392.7
460.501	884.21
460.711	392.7
460.922	151.04
461.132	228.86
461.343	1050.1
461.553	173.57
461.764	302.59
461.974	298.49
462.184	605.69
462.395	538.1
462.605	312.83
462.816	146.94
463.026	515.58
463.236	814.58
463.447	257.53
463.657	323.07
463.867	677.37
464.078	413.18
464.288	419.32
464.498	228.86
464.709	628.21
464.919	462.33
465.129	458.23
465.339	302.59
465.55	562.68
465.76	718.33
465.97	331.26
466.18	386.55
466.391	744.95
466.601	654.84
466.811	407.03
467.021	278.01
467.231	687.61
467.441	857.59
467.651	493.05
467.862	126.46
468.072	554.49
468.282	941.55
468.492	423.42
468.702	488.95
468.912	667.13
469.122	1191.41
469.332	740.85
469.542	407.03
469.752	798.2
469.962	685.56
470.172	404.99
470.382	480.76
470.592	935.41
470.802	1052.14
471.012	630.26
471.222	458.23
471.432	970.23
471.642	828.92
471.852	636.41
472.062	484.86
472.272	710.13
472.482	523.77
472.691	550.39
472.901	419.32
473.111	873.97
473.321	1412.59
473.531	491
473.741	730.61
473.95	873.97
474.16	1019.38
474.37	658.93
474.58	525.82
474.79	1209.84
474.999	1070.58
475.209	663.03
475.419	732.66
475.628	730.61
475.838	1148.4
476.048	714.23
476.258	632.31
476.467	1213.93
476.677	867.83
476.886	972.27
477.096	951.79
477.306	890.35
477.515	1324.52
477.725	880.11
477.935	849.4
478.144	1304.04
478.354	1019.38
478.563	927.22
478.773	910.83
478.982	1261.04
479.192	1330.67
479.401	972.27
479.611	798.2
479.82	980.47
480.03	1197.55
480.239	906.74
480.449	886.26
480.658	1453.55
480.868	1046
481.077	1052.14
481.287	904.69
481.496	1318.38
481.705	1574.38
481.915	1238.51
482.124	1263.08
482.333	1355.24
482.543	1512.94
482.752	1148.4
482.961	980.47
483.171	1469.93
483.38	1304.04
483.589	1179.12
483.799	1168.88
484.008	1418.73
484.217	1611.24
484.426	1265.13
484.636	1054.19
484.845	1402.35
485.054	1097.2
485.263	1461.74
485.472	1220.08
485.682	1750.5
485.891	1596.9
486.1	1144.3
486.309	1340.91
486.518	1623.53
486.727	1785.32
486.936	1242.61
487.146	1365.48
487.355	1906.15
487.564	1265.13
487.773	1486.31
487.982	1246.7
488.191	1478.12
488.4	1601
488.609	1408.49
488.818	1461.74
489.027	2231.77
489.236	2049.5
489.445	1607.14
489.654	1428.97
489.863	1779.17
490.072	1760.74
490.281	1703.4
490.49	1476.07
490.698	2006.5
490.907	2051.55
491.116	1519.08
491.325	1484.27
491.534	2156
491.743	1744.36
491.952	1701.35
492.16	1564.14
492.369	1877.48
492.578	2088.42
492.787	1709.54
492.996	1580.52
493.204	1740.26
493.413	2215.39
493.622	1590.76
493.831	1445.35
494.039	2221.53
494.248	1689.06
494.457	1603.05
494.665	1654.25
494.874	2035.17
495.083	2364.89
495.291	1820.13
495.5	1734.12
495.709	2123.23
495.917	2151.9
496.126	1912.29
496.335	1666.53
496.543	1854.95
496.752	2151.9
496.96	1965.54
497.169	1918.43
497.377	2127.33
497.586	2469.34
497.794	2115.04
498.003	1697.25
498.211	1971.68
498.42	2725.33
498.628	2106.85
498.837	1850.85
499.045	2407.9
499.254	2166.24
499.462	1904.1
499.671	2004.45
499.879	2602.46
500.087	2508.25
500.296	2076.13
500.504	2010.59
500.713	2270.69
500.921	2819.54
501.129	2067.94
501.338	2047.46
501.546	2330.08
501.754	2311.64
501.962	2047.46
502.171	2033.12
502.379	2397.66
502.587	2852.31
502.795	2272.73
503.004	2069.98
503.212	2362.84
503.42	2704.85
503.628	2291.17
503.837	2325.98
504.045	2684.38
504.253	2780.63
504.461	2158.05
504.669	2049.5
504.877	2672.09
505.085	2903.51
505.294	2088.42
505.502	2500.06
505.71	2508.25
505.918	2788.82
506.126	2213.34
506.334	2268.64
506.542	2442.71
506.75	2717.14
506.958	2434.52
507.166	2428.38
507.374	2399.71
507.582	3085.78
507.79	2473.43
507.998	2321.88
508.206	2690.52
508.414	2848.21
508.622	2549.21
508.83	2489.82
509.037	2979.28
509.245	2549.21
509.453	2395.61
509.661	2436.57
509.869	2977.23
510.077	2571.74
510.285	2612.7
510.492	2311.64
510.7	3313.1
510.908	2743.77
511.116	2536.92
511.324	2565.59
511.531	2528.73
511.739	2934.23
511.947	2823.64
512.155	2893.27
512.362	2831.83
512.57	2633.18
512.778	2534.87
512.985	2428.38
513.193	3050.96
513.401	3280.33
513.608	2678.23
513.816	2557.4
514.024	3026.39
514.231	3235.28
514.439	2657.75
514.646	2817.49
514.854	3177.94
515.061	3161.55
515.269	2670.04
515.477	2819.54
515.684	2690.52
515.892	3216.85
516.099	2692.57
516.307	2596.31
516.514	3128.78
516.722	3331.53
516.929	2856.4
517.136	2911.7
517.344	3442.12
517.551	3175.89
517.759	2801.11
517.966	2901.46
518.173	3014.1
518.381	3083.73
518.588	2950.61
518.796	2926.04
519.003	3313.1
519.21	3210.7
519.418	3010
519.625	3130.83
519.832	3210.7
520.039	3110.35
520.247	2981.33
520.454	2926.04
520.661	3462.6
520.868	3288.53
521.076	3141.07
521.283	2981.33
521.49	3782.09
521.697	3212.75
521.904	3048.91
522.112	2940.37
522.319	3511.75
522.526	3304.91
522.733	3202.51
522.94	3083.73
523.147	3323.34
523.354	3665.35
523.561	3034.58
523.768	3089.87
523.975	3663.3
524.183	3378.64
524.39	3210.7
524.597	3028.43
524.804	3499.47
525.011	3378.64
525.218	3075.54
525.425	3214.8
525.632	3689.93
525.838	3313.1
526.045	3464.65
526.252	3233.23
526.459	4390.33
526.666	4322.75
526.873	3352.01
527.08	3298.77
527.287	3864.01
527.494	3786.18
527.701	3306.96
527.907	3352.01
528.114	3720.65
528.321	3581.39
528.528	3583.43
528.735	3435.98
528.941	3550.67
529.148	3521.99
529.355	3378.64
529.562	3392.97
529.768	4089.28
529.975	3718.6
530.182	3579.34
530.388	3517.9
530.595	4038.08
530.802	3528.14
531.008	3665.35
531.215	3720.65
531.422	4410.81
531.628	4515.26
531.835	3888.58
532.042	3761.61
532.248	3702.22
532.455	3880.39
532.661	3712.46
532.868	3581.39
533.074	3966.4
533.281	4163.01
533.487	3864.01
533.694	3665.35
533.9	3763.65
534.107	4044.23
534.313	3804.61
534.52	3642.82
534.726	4259.26
534.933	4425.15
535.139	3636.68
535.345	3673.54
535.552	4113.86
535.758	4079.04
535.965	3886.53
536.171	3894.72
536.377	4392.38
536.584	4365.76
536.79	3909.06
536.996	4148.67
537.203	4195.78
537.409	4314.56
537.615	3962.31
537.821	4158.91
538.028	4304.32
538.234	4363.71
538.44	3995.08
538.646	4138.43
538.853	4439.48
539.059	4152.77
539.265	4496.83
539.471	3868.1
539.677	4486.59
539.883	4179.39
540.09	4023.75
540.296	4558.27
540.502	4361.66
540.708	4169.15
540.914	4273.6
541.12	4146.62
541.326	4423.1
541.532	4246.98
541.738	4402.62
541.944	4320.7
542.15	4558.27
542.356	4359.61
542.562	4136.38
542.768	4402.62
542.974	5152.18
543.18	5041.59
543.386	4183.49
543.592	4171.2
543.798	4984.24
544.004	4740.54
544.21	4431.29
544.415	4398.52
544.621	4629.95
544.827	4818.36
545.033	4355.52
545.239	4677.05
545.445	4683.19
545.651	4672.95
545.856	4443.58
546.062	4421.05
546.268	4548.03
546.474	4730.3
546.679	4447.68
546.885	4490.68
547.091	4593.08
547.297	5094.83
547.502	4650.43
547.708	4462.01
547.914	4732.34
548.119	4937.14
548.325	4470.2
548.531	4326.85
548.736	5223.86
548.942	4548.03
549.147	4582.84
549.353	5029.3
549.559	5230
549.764	4914.61
549.97	4548.03
550.175	4701.62
550.381	5051.83
550.586	4842.93
550.792	4664.76
550.997	4840.89
551.203	4996.53
551.408	4916.66
551.614	4830.65
551.819	4836.79
552.025	5457.32
552.23	5526.96
552.435	4707.77
552.641	5006.77
552.846	4937.14
553.052	5279.15
553.257	4984.24
553.462	5088.69
553.668	5053.87
553.873	5285.3
554.078	4812.21
554.283	5053.87
554.489	5461.42
554.694	5160.37
554.899	4926.9
555.105	5076.4
555.31	5442.99
555.515	5424.56
555.72	5195.18
555.925	4941.24
556.131	5416.37
556.336	5252.53
556.541	5043.64
556.746	4887.99
556.951	5531.05
557.156	5731.75
557.361	5213.62
557.567	5115.31
557.772	5965.22
557.977	5582.25
558.182	5148.08
558.387	5082.55
558.592	5277.1
558.797	5555.63
559.002	5338.54
559.207	5399.98
559.412	5471.66
559.617	5854.63
559.822	5168.56
560.027	5285.3
560.232	5524.91
560.437	5850.53
560.642	5281.2
560.847	5230
561.051	5531.05
561.256	5625.26
561.461	5361.07
561.666	5246.38
561.871	5707.18
562.076	5676.46
562.281	5389.74
562.485	5426.61
562.69	5868.97
562.895	5901.73
563.1	5410.22
563.305	5291.44
563.509	5911.97
563.714	6249.89
563.919	5395.89
564.123	5512.62
564.328	5557.68
564.533	5977.51
564.737	5545.39
564.942	5578.15
565.147	6272.42
565.351	6323.62
565.556	5676.46
565.761	5621.16
565.965	5854.63
566.17	5641.64
566.374	5764.52
566.579	5541.29
566.784	5715.37
566.988	5782.95
567.193	5563.82
567.397	5580.2
567.602	5610.92
567.806	5954.98
568.011	5744.04
568.215	5903.78
568.42	5977.51
568.624	5940.65
568.828	5860.77
569.033	5948.84
569.237	6178.21
569.442	6200.74
569.646	5701.03
569.85	5903.78
570.055	6229.41
570.259	6161.83
570.463	6041
570.668	5916.07
570.872	5940.65
571.076	5963.17
571.281	5879.21
571.485	6075.81
571.689	6041
571.893	6292.9
572.098	6172.07
572.302	5922.21
572.506	6188.45
572.71	6266.27
572.914	6000.04
573.119	6000.04
573.323	6544.8
573.527	6593.95
573.731	6006.18
573.935	5989.8
574.139	6532.51
574.343	5979.56
574.547	6120.87
574.751	5954.98
574.955	6520.22
575.159	6499.74
575.364	6043.04
575.568	5899.69
575.772	6340
575.976	6706.59
576.18	5957.03
576.383	6243.74
576.587	6729.11
576.791	6655.39
576.995	6024.61
577.199	5850.53
577.403	6784.41
577.607	6866.33
577.811	6364.57
578.015	6315.42
578.219	6565.28
578.422	6802.84
578.626	6239.65
578.83	6364.57
579.034	6663.58
579.238	6512.03
579.442	6405.53
579.645	6890.9
579.849	6561.18
580.053	6802.84
580.257	6415.77
580.46	6436.25
580.664	6753.69
580.868	6686.11
581.071	6665.63
581.275	6528.41
581.479	6624.67
581.682	6851.99
581.886	6512.03
582.09	6708.63
582.293	6966.68
582.497	6878.62
582.7	6677.91
582.904	6690.2
583.107	6796.7
583.311	6550.94
583.515	6776.22
583.718	6698.39
583.922	6790.55
584.125	7234.96
584.329	6770.07
584.532	6940.05
584.735	7417.23
584.939	6964.63
585.142	6399.39
585.346	6446.49
585.549	7116.18
585.753	6851.99
585.956	6921.62
586.159	6817.18
586.363	7497.1
586.566	7288.21
586.769	6679.96
586.973	6755.74
587.176	7355.79
587.379	7495.05
587.582	7247.25
587.786	7126.42
587.989	7185.81
588.192	7474.57
588.395	6935.96
588.599	7280.02
588.802	7417.23
589.005	7413.13
589.208	7198.1
589.411	7030.16
589.615	7370.13
589.818	7751.05
590.021	7247.25
590.224	7196.05
590.427	7427.47
590.63	7429.52
590.833	6942.1
591.036	7169.43
591.239	7419.28
591.442	7261.59
591.645	7349.65
591.848	7142.8
592.051	7601.55
592.254	7677.32
592.457	7368.08
592.66	7400.85
592.863	7562.64
593.066	7409.04
593.269	7259.54
593.472	7409.04
593.675	7527.82
593.878	7622.03
594.081	7343.5
594.284	7327.12
594.486	7759.24
594.689	7759.24
594.892	7384.46
595.095	7509.39
595.298	7730.57
595.5	7683.47
595.703	7585.16
595.906	7636.36
596.109	8183.17
596.311	7894.41
596.514	7230.87
596.717	7503.25
596.92	8131.97
597.122	7843.21
597.325	7275.92
597.528	7382.42
597.73	7978.37
597.933	8021.38
598.136	7662.99
598.338	7232.91
598.541	7951.75
598.743	8000.9
598.946	7519.63
599.148	7714.19
599.351	8168.84
599.554	8107.4
599.756	7820.68
599.959	7853.45
600.161	8152.45
600.363	8467.84
600.566	8039.81
600.768	7769.48
600.971	8449.41
601.173	8285.57
601.376	7888.26
601.578	7765.39
601.78	8115.59
601.983	8709.5
602.185	7775.63
602.388	8000.9
602.59	7912.84
602.792	8041.86
602.995	8031.62
603.197	7789.96
603.399	8166.79
603.601	8342.91
603.804	7933.32
604.006	8005
604.208	8000.9
604.41	7763.34
604.613	8174.98
604.815	7906.7
605.017	8740.22
605.219	8154.5
605.421	8240.51
605.623	8129.92
605.826	8674.68
606.028	8482.17
606.23	8052.1
606.432	8107.4
606.634	8777.08
606.836	8467.84
607.038	7953.8
607.24	8351.1
607.442	8428.93
607.644	8291.71
607.846	8336.77
608.048	8260.99
608.25	8721.79
608.452	8185.22
608.654	8197.51
608.856	8056.2
609.058	8338.82
609.26	8486.27
609.462	8488.32
609.664	8252.8
609.866	8756.6
610.067	8809.85
610.269	8377.73
610.471	8439.17
610.673	8416.64
610.875	8740.22
611.077	8111.49
611.278	8609.15
611.48	8594.81
611.682	9108.85
611.884	8580.48
612.085	8521.09
612.287	8480.13
612.489	8611.2
612.69	8234.37
612.892	8416.64
613.094	8842.62
613.295	8551.81
613.497	8105.35
613.699	8535.42
613.9	9190.77
614.102	8826.23
614.304	8404.35
614.505	8295.81
614.707	8531.33
614.908	8580.48
615.11	8410.5
615.311	8502.65
615.513	8848.76
615.714	8988.02
615.916	8514.94
616.117	8506.75
616.319	8592.76
616.52	8936.82
616.722	8463.74
616.923	8588.67
617.124	9008.5
617.326	8748.41
617.527	8539.52
617.729	8883.58
617.93	8686.97
618.131	9028.98
618.333	8592.76
618.534	8516.99
618.735	8613.24
618.937	9155.96
619.138	8375.68
619.339	8469.89
619.54	8879.48
619.742	8813.95
619.943	8697.21
620.144	8689.02
620.345	9000.31
620.546	9004.41
620.748	8516.99
620.949	8863.1
621.15	8961.4
621.351	8908.15
621.552	8766.84
621.753	8549.76
621.954	8418.69
622.155	9276.79
622.356	8570.24
622.558	8918.39
622.759	9055.61
622.96	9301.36
623.161	8617.34
623.362	8832.38
623.563	9000.31
623.764	9008.5
623.965	8834.43
624.166	9022.84
624.366	9088.37
624.567	8953.21
624.768	8680.83
624.969	8762.75
625.17	9053.56
625.371	9098.61
625.572	8951.16
625.773	8703.36
625.973	9194.87
626.174	9141.62
626.375	8977.78
626.576	8979.83
626.777	9237.88
626.977	9704.81
627.178	9024.89
627.379	8963.45
627.58	9141.62
627.78	9358.71
627.981	8775.03
628.182	8973.69
628.382	9399.66
628.583	8967.54
628.784	8772.99
628.984	9391.47
629.185	9450.86
629.386	9235.83
629.586	9192.82
629.787	8930.68
629.987	9350.51
630.188	9133.43
630.388	9057.65
630.589	9123.19
630.79	9921.9
630.99	9395.57
631.191	9364.85
631.391	9303.41
631.591	9440.62
631.792	9588.08
631.992	9213.3
632.193	9135.48
632.393	9676.14
632.594	9309.55
632.794	8985.97
632.994	9528.69
633.195	9297.27
633.395	9418.1
633.595	9158
633.796	9551.21
633.996	9311.6
634.196	9747.82
634.397	9100.66
634.597	9399.66
634.797	9090.42
634.997	9708.91
635.198	9434.48
635.398	9031.03
635.598	9618.8
635.798	9823.59
635.998	9624.94
636.199	9272.69
636.399	9622.89
636.599	9485.68
636.799	9538.93
636.999	9551.21
637.199	9649.52
637.399	9647.47
637.599	9497.97
637.799	9608.56
637.999	9543.02
638.199	9899.37
638.399	9327.99
638.599	9588.08
638.799	9715.05
638.999	10237.28
639.199	9729.39
639.399	9633.13
639.599	10243.43
639.799	9436.53
639.999	9698.67
640.199	9327.99
640.399	9774.44
640.599	9626.99
640.799	9735.53
640.998	9721.2
641.198	10153.32
641.398	9860.46
641.598	9856.36
641.798	9676.14
641.997	10696.03
642.197	9790.83
642.397	9702.76
642.597	9792.87
642.796	9958.76
642.996	10296.67
643.196	9901.42
643.395	9651.56
643.595	10116.45
643.795	9327.99
643.994	9753.96
644.194	9735.53
644.394	10022.25
644.593	10188.13
644.793	9594.22
644.992	10106.21
645.192	10257.76
645.392	9577.84
645.591	9882.99
645.791	9882.99
645.99	10098.02
646.19	10036.58
646.389	9999.72
646.589	9952.62
646.788	10055.01
646.987	10108.26
647.187	10245.48
647.386	10239.33
647.586	10085.73
647.785	10284.39
647.984	9960.81
648.184	9905.51
648.383	10018.15
648.582	10118.5
648.782	10110.31
648.981	10134.89
649.18	9815.4
649.38	10319.2
649.579	10186.08
649.778	9817.45
649.977	10296.67
650.177	10384.74
650.376	9991.53
650.575	10024.3
650.774	10571.1
650.973	10093.93
651.173	10003.82
651.372	10036.58
651.571	10155.37
651.77	10569.05
651.969	10311.01
652.168	10268
652.367	10241.38
652.566	10200.42
652.765	10073.45
652.964	10431.84
653.163	11052.38
653.362	10421.6
653.561	10227.04
653.76	10204.52
653.959	10380.64
654.158	10435.94
654.357	10458.46
654.556	10165.6
654.755	10732.89
654.954	10632.54
655.153	10257.76
655.352	10517.86
655.551	10612.06
655.749	10208.61
655.948	10476.9
656.147	10319.2
656.346	10671.45
656.545	10548.58
656.743	10593.63
656.942	10448.22
657.141	10511.71
657.34	10220.9
657.538	10569.05
657.737	10564.96
657.936	10444.13
658.135	10530.14
658.333	10407.27
658.532	10571.1
658.731	11062.62
658.929	10913.11
659.128	10718.56
659.326	10532.19
659.525	10974.55
659.724	10579.29
659.922	10181.99
660.121	10372.45
660.319	10589.53
660.518	10456.42
660.716	10343.78
660.915	10276.2
661.113	11056.47
661.312	10290.53
661.51	10704.22
661.709	10450.27
661.907	10775.9
662.105	11167.06
662.304	10616.16
662.502	10681.69
662.701	10894.68
662.899	10480.99
663.097	11029.85
663.296	10513.76
663.494	10890.59
663.692	11072.86
663.891	10442.08
664.089	10378.59
664.287	10823
664.485	11234.64
664.684	10726.75
664.882	10753.37
665.08	10685.79
665.278	10812.76
665.476	10659.17
665.675	10888.54
665.873	11273.56
666.071	10921.31
666.269	10628.45
666.467	10890.59
666.665	10835.29
666.863	10538.34
667.061	10988.89
667.259	10677.6
667.457	10753.37
667.655	11091.29
667.853	10636.64
668.051	10868.06
668.249	10782.04
668.447	10708.32
668.645	10513.76
668.843	10933.59
669.041	11117.91
669.239	10788.19
669.437	10859.87
669.635	11124.05
669.833	10812.76
670.031	10866.01
670.229	10853.72
670.426	10657.12
670.624	10845.53
670.822	10605.92
671.02	10493.28
671.218	10636.64
671.415	10401.12
671.613	11066.71
671.811	10874.2
672.009	10792.28
672.206	11240.79
672.404	10986.84
672.602	10884.44
672.799	10890.59
672.997	11257.17
673.195	11271.51
673.392	10894.68
673.59	10605.92
673.788	10966.36
673.985	10362.21
674.183	10833.24
674.38	10751.32
674.578	11197.78
674.775	10630.49
674.973	10634.59
675.17	10655.07
675.368	11300.18
675.565	11277.65
675.763	10599.77
675.96	10607.97
676.158	11136.34
676.355	10886.49
676.553	10790.24
676.75	10831.19
676.947	11068.76
677.145	10753.37
677.342	10849.63
677.539	10954.07
677.737	10997.08
677.934	11498.83
678.131	11085.14
678.329	10863.96
678.526	11306.32
678.723	11304.28
678.92	10923.35
679.118	10874.2
679.315	10855.77
679.512	11298.13
679.709	10734.94
679.906	10823
680.104	11205.97
680.301	11093.33
680.498	10857.82
680.695	10736.99
680.892	10763.61
681.089	10800.48
681.286	11019.61
681.483	10569.05
681.68	10997.08
681.877	11281.75
682.075	10734.94
682.272	10919.26
682.469	11150.68
682.665	10857.82
682.862	10419.55
683.059	10736.99
683.256	10956.12
683.453	11095.38
683.65	10736.99
683.847	10890.59
684.044	10923.35
684.241	10802.52
684.438	10755.42
684.635	10710.36
684.831	11351.38
685.028	11519.31
685.225	10829.15
685.422	10878.3
685.619	10923.35
685.815	11072.86
686.012	10847.58
686.209	10726.75
686.405	10804.57
686.602	10906.97
686.799	10616.16
686.996	10806.62
687.192	10442.08
687.389	11306.32
687.586	10634.59
687.782	10970.46
687.979	11248.98
688.175	11085.14
688.372	10911.07
688.568	10749.28
688.765	10929.5
688.962	11181.4
689.158	10726.75
689.355	10657.12
689.551	11066.71
689.748	10806.62
689.944	10945.88
690.14	10610.01
690.337	11136.34
690.533	10911.07
690.73	10628.45
690.926	10816.86
691.123	10949.98
691.319	10757.47
691.515	10710.36
691.712	10728.8
691.908	10982.74
692.104	10960.22
692.301	10884.44
692.497	10786.14
692.693	11027.8
692.889	11281.75
693.086	10831.19
693.282	10384.74
693.478	10935.64
693.674	11275.6
693.87	10720.6
694.067	10552.67
694.263	10851.67
694.459	10841.43
694.655	10939.74
694.851	10876.25
695.047	10782.04
695.243	11187.54
695.439	11089.24
695.635	10683.74
695.831	10919.26
696.027	11171.16
696.224	10661.21
696.42	11259.22
696.615	11304.28
696.811	11013.46
697.007	10390.88
697.203	10739.04
697.399	10886.49
697.595	11111.77
697.791	10634.59
697.987	10644.83
698.183	10683.74
698.379	10489.18
698.575	10665.31
698.77	10663.26
698.966	10859.87
699.162	11040.09
699.358	10851.67
699.554	10792.28
699.749	10894.68
699.945	11085.14
700.141	10792.28
700.337	10634.59
700.532	10794.33
700.728	10528.1
700.924	10814.81
701.119	10562.91
701.315	10675.55
701.511	10796.38
701.706	10739.04
701.902	10567.01
702.097	10804.57
702.293	10972.5
702.489	10841.43
702.684	10667.36
702.88	10874.2
703.075	10577.25
703.271	10784.09
703.466	10218.85
703.662	10730.84
703.857	11103.57
704.053	10657.12
704.248	10646.88
704.443	10788.19
704.639	11265.36
704.834	10851.67
705.03	10790.24
705.225	10974.55
705.42	11046.23
705.616	10696.03
705.811	10612.06
706.006	10810.72
706.202	10816.86
706.397	10890.59
706.592	10624.35
706.787	10747.23
706.983	10964.31
707.178	10837.34
707.373	10730.84
707.568	10941.79
707.763	11066.71
707.959	10741.08
708.154	10683.74
708.349	10796.38
708.544	10728.8
708.739	10761.56
708.934	10630.49
709.129	10806.62
709.324	11074.9
709.519	10683.74
709.714	10675.55
709.909	11105.62
710.104	10720.6
710.299	10620.25
710.494	10886.49
710.689	11054.42
710.884	10591.58
711.079	10583.39
711.274	10759.52
711.469	11031.9
711.664	10769.76
711.859	10554.72
712.054	10827.1
712.249	11062.62
712.443	11097.43
712.638	10474.85
712.833	10423.65
713.028	10560.86
713.223	10743.13
713.417	10706.27
713.612	10468.7
713.807	10911.07
714.002	11224.4
714.196	10704.22
714.391	10515.81
714.586	10968.41
714.78	10808.67
714.975	10644.83
715.17	10595.68
715.364	10638.69
715.559	11074.9
715.754	10159.46
715.948	10454.37
716.143	11177.3
716.337	10816.86
716.532	10997.08
716.726	10712.41
716.921	11072.86
717.115	11046.23
717.31	10331.49
717.504	11091.29
717.699	10575.2
717.893	10972.5
718.088	10458.46
718.282	10480.99
718.476	10919.26
718.671	10802.52
718.865	10446.18
719.059	10358.11
719.254	10601.82
719.448	10939.74
719.642	11568.46
719.837	10319.2
720.031	10857.82
720.225	10749.28
720.419	10503.52
720.614	10499.42
720.808	10757.47
721.002	10521.95
721.196	10313.06
721.39	10579.29
721.585	11042.14
721.779	10538.34
721.973	10435.94
722.167	10263.91
722.361	10657.12
722.555	10882.39
722.749	10491.23
722.943	10364.26
723.137	10536.29
723.331	10591.58
723.525	10104.17
723.719	10265.96
723.913	10673.5
724.107	10704.22
724.301	10218.85
724.495	10519.9
724.689	10751.32
724.883	10833.24
725.077	10216.8
725.271	10468.7
725.465	10792.28
725.659	10550.62
725.853	10474.85
726.046	10413.41
726.24	10077.54
726.434	10747.23
726.628	10417.51
726.822	10519.9
727.015	10786.14
727.209	10847.58
727.403	10429.79
727.596	10057.06
727.79	10710.36
727.984	10706.27
728.177	10319.2
728.371	10599.77
728.565	10816.86
728.758	10220.9
728.952	10155.37
729.146	10294.63
729.339	10718.56
729.533	10417.51
729.726	10364.26
729.92	10317.15
730.113	11046.23
730.307	10622.3
730.5	10153.32
730.694	10507.62
730.887	10630.49
731.081	10855.77
731.274	10294.63
731.468	10091.88
731.661	10546.53
731.854	10431.84
732.048	10528.1
732.241	10296.67
732.435	10493.28
732.628	10507.62
732.821	10480.99
733.014	10206.56
733.208	10413.41
733.401	10671.45
733.594	10298.72
733.788	10261.86
733.981	10761.56
734.174	10532.19
734.367	10421.6
734.56	10476.9
734.754	10716.51
734.947	10634.59
735.14	10282.34
735.333	10411.36
735.526	10775.9
735.719	10253.67
735.912	10364.26
736.105	10280.29
736.298	10372.45
736.491	10280.29
736.684	10317.15
736.877	10245.48
737.07	10421.6
737.263	10628.45
737.456	10292.58
737.649	10255.72
737.842	10419.55
738.035	10548.58
738.228	10456.42
738.421	10704.22
738.614	10816.86
738.807	10540.38
739	10186.08
739.192	10130.79
739.385	10677.6
739.578	10524
739.771	10511.71
739.964	10245.48
740.156	10411.36
740.349	10415.46
740.542	10536.29
740.735	10085.73
740.927	10175.84
741.12	10313.06
741.313	10247.52
741.505	10503.52
741.698	10497.38
741.891	10716.51
742.083	10497.38
742.276	10360.16
742.468	10319.2
742.661	10386.79
742.854	10339.68
743.046	10317.15
743.239	11023.7
743.431	10374.5
743.624	10333.54
743.816	10296.67
744.009	10536.29
744.201	10558.81
744.393	10399.07
744.586	10196.32
744.778	10663.26
744.971	10366.31
745.163	10321.25
745.355	10610.01
745.548	10315.11
745.74	10521.95
745.932	10792.28
746.125	10327.39
746.317	11122.01
746.509	10511.71
746.702	10308.96
746.894	10218.85
747.086	10327.39
747.278	10823
747.471	10327.39
747.663	10227.04
747.855	10485.09
748.047	10796.38
748.239	10052.97
748.431	10241.38
748.623	10917.21
748.815	10775.9
749.008	10204.52
749.2	10063.21
749.392	10480.99
749.584	10472.8
749.776	10257.76
749.968	10476.9
750.16	10941.79
750.352	10343.78
750.544	10298.72
750.736	10081.64
750.928	10503.52
751.12	10341.73
751.311	10196.32
751.503	10386.79
751.695	10265.96
751.887	10487.14
752.079	9919.85
752.271	10116.45
752.463	11285.84
752.654	10616.16
752.846	10489.18
753.038	10192.23
753.23	10141.03
753.421	10399.07
753.613	10005.86
753.805	10380.64
753.997	10437.98
754.188	10550.62
754.38	10065.25
754.572	10179.94
754.763	10495.33
754.955	10339.68
755.146	10110.31
755.338	10261.86
755.53	10339.68
755.721	10175.84
755.913	9796.97
756.104	9807.21
756.296	10100.07
756.487	10519.9
756.679	9815.4
756.87	9825.64
757.062	9813.35
757.253	10308.96
757.445	9899.37
757.636	10130.79
757.827	10061.16
758.019	10642.78
758.21	10108.26
758.401	10206.56
758.593	10454.37
758.784	10714.46
758.975	9653.61
759.167	9985.38
759.358	10202.47
759.549	10220.9
759.74	9792.87
759.932	9960.81
760.123	10415.46
760.314	9745.77
760.505	9848.17
760.696	9893.23
760.888	10448.22
761.079	9819.5
761.27	9688.43
761.461	9401.71
761.652	10573.15
761.843	10030.44
762.034	9594.22
762.225	9799.02
762.416	10112.36
762.607	10018.15
762.798	9860.46
762.989	9610.61
763.18	10624.35
763.371	9690.48
763.562	9682.28
763.753	9751.92
763.944	10220.9
764.135	10487.14
764.326	9964.9
764.517	9743.72
764.708	9905.51
764.899	9950.57
765.089	9624.94
765.28	9575.79
765.471	9846.12
765.662	9895.27
765.853	9651.56
766.043	9332.08
766.234	9948.52
766.425	10018.15
766.615	9663.85
766.806	9629.04
766.997	9977.19
767.187	9848.17
767.378	9530.73
767.569	9352.56
767.759	9626.99
767.95	9852.27
768.141	9608.56
768.331	9493.87
768.522	9643.37
768.712	10007.91
768.903	9725.29
769.093	9428.34
769.284	10118.5
769.474	9659.76
769.665	9489.78
769.855	9430.38
770.046	9620.85
770.236	9471.34
770.426	9538.93
770.617	9495.92
770.807	9803.11
770.998	9659.76
771.188	9690.48
771.378	9317.75
771.569	9835.88
771.759	9696.62
771.949	9260.4
772.139	9186.68
772.33	9432.43
772.52	10003.82
772.71	9434.48
772.9	9250.16
773.09	9594.22
773.281	9768.3
773.471	9303.41
773.661	9287.03
773.851	9753.96
774.041	9356.66
774.231	9383.28
774.421	9377.14
774.611	9790.83
774.802	9604.46
774.992	9301.36
775.182	9125.24
775.372	9198.96
775.562	9635.18
775.752	9207.16
775.942	9225.59
776.131	9674.09
776.321	9641.32
776.511	9237.88
776.701	9274.74
776.891	9543.02
777.081	9186.68
777.271	9342.32
777.461	9170.29
777.651	9565.55
777.84	9563.5
778.03	9082.23
778.22	9137.52
778.41	9575.79
778.599	9082.23
778.789	9141.62
778.979	9086.33
779.169	9342.32
779.358	9319.79
779.548	9354.61
779.738	8977.78
779.927	9311.6
780.117	8969.59
780.307	9035.13
780.496	8664.44
780.686	9246.07
780.875	9616.75
781.065	8973.69
781.254	8879.48
781.444	9207.16
781.633	9217.4
781.823	8979.83
782.012	8828.28
782.202	8973.69
782.391	8955.26
782.581	8736.12
782.77	9063.8
782.96	9309.55
783.149	8936.82
783.338	8902.01
783.528	8689.02
783.717	9196.92
783.906	9192.82
784.096	8865.14
784.285	8662.4
784.474	8875.38
784.663	8975.74
784.853	8701.31
785.042	8746.36
785.231	9010.55
785.42	9051.51
785.61	8904.06
785.799	8560
785.988	8875.38
786.177	8795.51
786.366	8754.55
786.555	9063.8
786.744	9293.17
786.933	8908.15
787.122	8617.34
787.312	8631.68
787.501	8899.96
787.69	8942.97
787.879	8736.12
788.068	8646.01
788.257	8611.2
788.445	8809.85
788.634	8693.12
788.823	8605.05
789.012	9301.36
789.201	9135.48
789.39	8596.86
789.579	8285.57
789.768	8783.23
789.957	8791.42
790.145	8635.77
790.334	8357.25
790.523	8486.27
790.712	8701.31
790.9	8709.5
791.089	8285.57
791.278	9117.04
791.467	8836.47
791.655	8662.4
791.844	9020.79
792.033	8512.89
792.221	8652.16
792.41	8557.95
792.599	8476.03
792.787	8940.92
792.976	8932.73
793.164	8351.1
793.353	8609.15
793.541	8873.34
793.73	8947.06
793.918	8656.25
794.107	8488.32
794.295	8574.33
794.484	8588.67
794.672	8461.69
794.861	8576.38
795.049	8783.23
795.238	9024.89
795.426	8361.34
795.614	8383.87
795.803	8590.72
795.991	8865.14
796.179	8574.33
796.368	8453.5
796.556	8979.83
796.744	8226.18
796.932	8125.83
797.121	8301.95
797.309	8639.87
797.497	8668.54
797.685	8420.74
797.874	8428.93
798.062	8463.74
798.25	8799.61
798.438	8027.53
798.626	8379.78
798.814	8637.82
799.002	9274.74
799.19	8537.47
799.378	8318.34
799.566	8781.18
799.755	8953.21
799.943	8633.72
800.131	8267.14
800.318	8574.33
800.506	8830.33
800.694	8422.78
800.882	8504.7
801.07	8844.67
801.258	8576.38
801.446	8463.74
801.634	8285.57
801.822	8504.7
802.01	8623.48
802.197	8383.87
802.385	8549.76
802.573	8508.8
802.761	8418.69
802.949	8623.48
803.136	8226.18
803.324	9143.67
803.512	8697.21
803.699	8494.46
803.887	8252.8
804.075	9217.4
804.262	8699.26
804.45	8381.82
804.638	8590.72
804.825	8506.75
805.013	8482.17
805.201	8756.6
805.388	8263.04
805.576	8551.81
805.763	9129.33
805.951	8424.83
806.138	8656.25
806.326	9160.05
806.513	8930.68
806.701	8701.31
806.888	8381.82
807.075	8848.76
807.263	9028.98
807.45	8451.46
807.638	8791.42
807.825	9272.69
808.012	8922.49
808.2	8545.66
808.387	8877.43
808.574	8797.56
808.761	9172.34
808.949	8527.23
809.136	8619.39
809.323	8775.03
809.51	8605.05
809.698	8916.34
809.885	8975.74
810.072	8787.32
810.259	9092.47
810.446	8766.84
810.633	8746.36
810.82	9428.34
811.008	9233.78
811.195	8828.28
811.382	8703.36
811.569	8750.46
811.756	8580.48
811.943	8918.39
812.13	8637.82
812.317	8840.57
812.504	8891.77
812.691	8834.43
812.878	8899.96
813.064	9174.39
813.251	8738.17
813.438	8574.33
813.625	8682.88
813.812	8969.59
813.999	8922.49
814.186	8641.92
814.372	8775.03
814.559	8996.21
814.746	9090.42
814.933	8734.07
815.12	8723.83
815.306	8756.6
815.493	8750.46
815.68	8795.51
815.866	8654.2
816.053	9213.3
816.24	9231.73
816.426	8846.71
816.613	8719.74
816.799	9049.46
816.986	9313.65
817.173	8699.26
817.359	8670.59
817.546	8914.3
817.732	8680.83
817.919	8412.54
818.105	8807.8
818.292	8723.83
818.478	8744.31
818.665	8775.03
818.851	8834.43
819.037	9325.94
819.224	9063.8
819.41	8476.03
819.597	8713.6
819.783	9276.79
819.969	8955.26
820.156	8684.92
820.342	8486.27
820.528	9475.44
820.714	8920.44
820.901	9155.96
821.087	8603
821.273	9287.03
821.459	8637.82
821.646	8588.67
821.832	8781.18
822.018	8680.83
822.204	8824.19
822.39	8641.92
822.576	8496.51
822.762	8973.69
822.948	8889.72
823.134	8809.85
823.32	8537.47
823.507	8418.69
823.693	8768.89
823.879	8826.23
824.065	8439.17
824.25	8895.86
824.436	8662.4
824.622	8519.04
824.808	8385.92
824.994	8533.37
825.18	8508.8
825.366	8318.34
825.552	8422.78
825.738	8686.97
825.923	8863.1
826.109	8666.49
826.295	8246.66
826.481	8613.24
826.667	8418.69
826.852	8349.06
827.038	8377.73
827.224	8899.96
827.409	8873.34
827.595	8238.47
827.781	8703.36
827.966	8717.69
828.152	8760.7
828.338	8553.85
828.523	8373.63
828.709	8459.65
828.894	8899.96
829.08	8488.32
829.266	8220.03
829.451	8611.2
829.637	8801.66
829.822	8426.88
830.008	8381.82
830.193	8682.88
830.378	8762.75
830.564	8340.86
830.749	8062.34
830.935	8658.3
831.12	8545.66
831.305	8351.1
831.491	8283.52
831.676	8181.12
831.861	8426.88
832.047	8203.65
832.232	7904.65
832.417	8662.4
832.602	8363.39
832.788	8203.65
832.973	8150.4
833.158	8322.43
833.343	8263.04
833.528	8295.81
833.714	8297.86
833.899	8437.12
834.084	8674.68
834.269	8222.08
834.454	8068.48
834.639	8439.17
834.824	8344.96
835.009	8181.12
835.194	8191.36
835.379	8430.98
835.564	8797.56
835.749	8168.84
835.934	8084.87
836.119	8248.71
836.304	8189.32
836.489	8226.18
836.674	8332.67
836.859	8005
837.044	8572.29
837.228	7976.33
837.413	7849.35
837.598	8166.79
837.783	8377.73
837.968	7912.84
838.152	7882.12
838.337	7710.09
838.522	8234.37
838.707	8267.14
838.891	8070.53
839.076	8113.54
839.261	8390.02
839.445	8029.57
839.63	7890.31
839.815	8443.26
839.999	7890.31
840.184	7925.13
840.368	7767.43
840.553	8293.76
840.737	8248.71
840.922	7798.15
841.106	7595.4
841.291	7746.95
841.475	8035.72
841.66	7859.59
841.844	7751.05
842.029	8699.26
842.213	7736.71
842.397	7591.31
842.582	7720.33
842.766	8377.73
842.951	8123.78
843.135	7749
843.319	7943.56
843.504	8019.33
843.688	8160.64
843.872	7574.92
844.056	7644.56
844.241	8113.54
844.425	7714.19
844.609	7970.18
844.793	7552.4
844.977	7945.61
845.161	7714.19
845.346	7558.54
845.53	7585.16
845.714	7789.96
845.898	8181.12
846.082	7570.83
846.266	7660.94
846.45	7800.2
846.634	7726.47
846.818	7662.99
847.002	7613.84
847.186	8072.58
847.37	7669.13
847.554	7529.87
847.738	7460.24
847.922	7787.91
848.106	7751.05
848.29	7351.7
848.473	7513.49
848.657	7785.87
848.841	7806.34
849.025	7503.25
849.209	7280.02
849.392	7771.53
849.576	7685.51
849.76	7353.74
849.944	7595.4
850.127	7951.75
850.311	7392.66
850.495	7210.39
850.678	7067.03
850.862	7873.93
851.046	8029.57
851.229	7474.57
851.413	7198.1
851.596	7652.75
851.78	7568.78
851.964	7398.8
852.147	7353.74
852.331	8334.72
852.514	7865.74
852.698	7509.39
852.881	7134.61
853.065	7632.27
853.248	7443.85
853.431	7329.17
853.615	7302.54
853.798	8002.95
853.982	7468.43
854.165	7376.27
854.348	7171.47
854.532	7155.09
854.715	7282.06
854.898	7341.46
855.081	7173.52
855.265	7755.15
855.448	7789.96
855.631	7167.38
855.814	7212.43
855.997	7734.67
856.181	7337.36
856.364	7189.91
856.547	7067.03
856.73	7368.08
856.913	7392.66
857.096	6862.23
857.279	7140.76
857.462	7157.14
857.645	7435.66
857.828	7361.94
858.011	7181.71
858.194	7325.07
858.377	7382.42
858.56	7015.83
858.743	7114.13
858.926	7042.45
859.109	7304.59
859.292	6849.94
859.475	6716.83
859.658	7513.49
859.841	7210.39
860.023	7030.16
860.206	6892.95
860.389	7320.98
860.572	7538.06
860.755	7251.35
860.937	7120.28
861.12	7105.94
861.303	7089.56
861.486	6942.1
861.668	6985.11
861.851	7277.97
862.034	7171.47
862.216	7046.55
862.399	6712.73
862.581	7179.67
862.764	7230.87
862.947	6958.49
863.129	6720.92
863.312	6778.26
863.494	7353.74
863.677	6958.49
863.859	6505.88
864.042	7245.2
864.224	7191.95
864.406	6907.29
864.589	6587.8
864.771	7153.04
864.954	6636.95
865.136	6782.36
865.318	6321.57
865.501	6806.94
865.683	6587.8
865.865	6813.08
866.048	6591.9
866.23	6800.79
866.412	6851.99
866.594	6317.47
866.777	6735.26
866.959	7046.55
867.141	6686.11
867.323	6831.51
867.505	6731.16
867.687	6851.99
867.869	6770.07
868.052	6712.73
868.234	6485.41
868.416	6815.13
868.598	6837.66
868.78	6649.24
868.962	6348.19
869.144	7083.41
869.326	6944.15
869.508	6725.02
869.69	6413.73
869.872	6692.25
870.054	7132.56
870.236	6401.44
870.417	6415.77
870.599	6581.66
870.781	6983.06
870.963	6712.73
871.145	6432.16
871.327	6251.94
871.508	6802.84
871.69	6524.32
871.872	6716.83
872.054	6671.77
872.235	6806.94
872.417	6460.83
872.599	6514.08
872.78	7083.41
872.962	6563.23
873.144	6284.7
873.325	6288.8
873.507	7069.08
873.689	6854.04
873.87	6389.15
874.052	6516.12
874.233	6641.05
874.415	6831.51
874.596	6550.94
874.778	6464.93
874.959	6645.15
875.141	7024.02
875.322	6493.6
875.503	6296.99
875.685	6817.18
875.866	6432.16
876.048	6337.95
876.229	6397.34
876.41	6583.71
876.592	6849.94
876.773	6260.13
876.954	6458.78
877.136	7069.08
877.317	6745.5
877.498	6325.66
877.679	6495.64
877.86	6823.32
878.042	6643.1
878.223	6514.08
878.404	6919.57
878.585	6858.14
878.766	7101.84
878.947	6847.9
879.128	6823.32
879.309	6892.95
879.49	7107.99
879.672	6716.83
879.853	6804.89
880.034	6628.76
880.215	6860.18
880.396	6837.66
880.576	6688.15
880.757	6747.55
880.938	6987.16
881.119	6399.39
881.3	6434.21
881.481	6772.12
881.662	7744.91
881.843	6827.42
882.023	6645.15
882.204	6983.06
882.385	6876.57
882.566	6874.52
882.747	6862.23
882.927	6995.35
883.108	7013.78
883.289	6874.52
883.469	6956.44
883.65	6952.34
883.831	6966.68
884.011	7003.54
884.192	6614.43
884.373	7040.4
884.553	7093.65
884.734	6847.9
884.914	7142.8
885.095	7572.88
885.275	7376.27
885.456	7048.6
885.636	6825.37
885.817	6929.81
885.997	7079.32
886.178	6935.96
886.358	6915.48
886.538	7169.43
886.719	7884.17
886.899	6876.57
887.08	6833.56
887.26	7314.83
887.44	7081.36
887.621	6823.32
887.801	7118.23
887.981	7736.71
888.161	7374.22
888.342	7030.16
888.522	6972.82
888.702	7368.08
888.882	7345.55
889.062	7218.58
889.242	6933.91
889.423	7660.94
889.603	7333.26
889.783	6888.85
889.963	7017.88
890.143	7353.74
890.323	7392.66
890.503	6958.49
890.683	6991.25
890.863	7353.74
891.043	7376.27
891.223	7140.76
891.403	7247.25
891.583	7181.71
891.763	7304.59
891.943	7079.32
892.122	7040.4
892.302	7349.65
892.482	7228.82
892.662	7247.25
892.842	7200.15
893.022	7415.18
893.201	7126.42
893.381	7349.65
893.561	7052.69
893.741	7583.12
893.92	7396.75
894.1	7128.47
894.28	7181.71
894.459	7443.85
894.639	7423.37
894.819	7130.52
894.998	7396.75
895.178	7388.56
895.357	7425.42
895.537	7103.89
895.716	6931.86
895.896	7499.15
896.075	7681.42
896.255	6989.21
896.434	6714.78
896.614	7484.81
896.793	7753.1
896.973	7288.21
897.152	7351.7
897.331	7566.73
897.511	7519.63
897.69	6905.24
897.87	7148.95
898.049	7339.41
898.228	7361.94
898.407	7218.58
898.587	7089.56
898.766	7191.95
898.945	7370.13
899.124	7327.12
899.304	7277.97
899.483	7300.5
899.662	7546.25
899.841	6956.44
900.02	7054.74
900.199	7523.73
900.378	7368.08
900.557	6993.3
900.737	6886.81
900.916	7130.52
901.095	7349.65
901.274	7339.41
901.453	6776.22
901.632	6958.49
901.811	7058.84
901.989	6817.18
902.168	6843.8
902.347	7450
902.526	7087.51
902.705	6761.88
902.884	7048.6
903.063	7400.85
903.242	7366.03
903.42	6815.13
903.599	6997.4
903.778	7361.94
903.957	7503.25
904.135	7015.83
904.314	6987.16
904.493	7095.7
904.672	7304.59
904.85	6843.8
905.029	6909.33
905.207	7081.36
905.386	7865.74
905.565	6546.84
905.743	6682.01
905.922	6884.76
906.1	7288.21
906.279	6792.6
906.457	6589.85
906.636	6954.39
906.814	6772.12
906.993	6481.31
907.171	6643.1
907.35	7067.03
907.528	7032.21
907.707	6829.46
907.885	6565.28
908.063	7429.52
908.242	6761.88
908.42	6716.83
908.598	6423.97
908.777	6837.66
908.955	6718.87
909.133	6673.82
909.311	6446.49
909.49	6524.32
909.668	6696.35
909.846	6466.97
910.024	6409.63
910.202	6972.82
910.38	6665.63
910.559	6421.92
910.737	6251.94
910.915	6720.92
911.093	6813.08
911.271	6413.73
911.449	6636.95
911.627	6636.95
911.805	7239.06
911.983	6305.18
912.161	6176.16
912.339	6651.29
912.517	6913.43
912.695	6710.68
912.872	6395.29
913.05	6446.49
913.228	6702.49
913.406	6098.34
913.584	6063.52
913.762	6704.54
913.939	6491.55
914.117	6104.48
914.295	6092.2
914.473	6534.56
914.65	6450.59
914.828	6157.73
915.006	6053.28
915.184	6188.45
915.361	6530.46
915.539	6337.95
915.716	6301.09
915.894	6569.37
916.072	6698.39
916.249	6241.7
916.427	6299.04
916.604	6002.08
916.782	6155.68
916.959	5803.43
917.137	5709.22
917.314	6237.6
917.492	6284.7
917.669	5993.89
917.847	6004.13
918.024	6116.77
918.201	6024.61
918.379	5920.17
918.556	5828.01
918.733	6296.99
918.911	6036.9
919.088	6073.76
919.265	5756.33
919.442	6038.95
919.62	5942.69
919.797	5731.75
919.974	5582.25
920.151	5995.94
920.328	5893.54
920.506	5692.84
920.683	5852.58
920.86	5629.35
921.037	5817.77
921.214	5760.42
921.391	5756.33
921.568	6081.96
921.745	5637.55
921.922	5526.96
922.099	5453.23
922.276	6147.49
922.453	5780.9
922.63	5504.43
922.807	5739.94
922.984	5553.58
923.161	5371.31
923.338	5451.18
923.514	5414.32
923.691	5555.63
923.868	5785
924.045	5393.84
924.222	5363.12
924.399	5410.22
924.575	5739.94
924.752	5572.01
924.929	5359.02
925.105	5610.92
925.282	5289.39
925.459	5275.06
925.635	5146.03
925.812	5119.41
925.989	5180.85
926.165	5199.28
926.342	4992.44
926.518	5160.37
926.695	5340.59
926.871	4982.2
927.048	4795.83
927.224	5539.24
927.401	4900.28
927.577	5180.85
927.754	4959.67
927.93	5348.78
928.107	5498.28
928.283	4953.52
928.459	5051.83
928.636	5332.4
928.812	5074.35
928.988	4740.54
929.165	4861.37
929.341	5035.44
929.517	5113.27
929.693	5109.17
929.87	4472.25
930.046	5334.45
930.222	4896.18
930.398	4640.19
930.574	4830.65
930.751	4789.69
930.927	4652.47
931.103	4795.83
931.279	4640.19
931.455	4605.37
931.631	4619.71
931.807	4392.38
931.983	4535.74
932.159	4552.12
932.335	4689.34
932.511	4404.67
932.687	4431.29
932.863	4627.9
933.039	4627.9
933.215	4367.81
933.391	4068.8
933.566	4314.56
933.742	4343.23
933.918	4312.51
934.094	4013.51
934.27	4292.03
934.445	4154.82
934.621	4230.59
934.797	3878.34
934.973	4441.53
935.148	4146.62
935.324	3786.18
935.5	3651.02
935.675	4212.16
935.851	4136.38
936.027	3773.89
936.202	3753.41
936.378	3868.1
936.553	3720.65
936.729	3804.61
936.904	3415.5
937.08	3317.2
937.255	3368.4
937.431	3390.92
937.606	3145.17
937.782	3290.57
937.957	3284.43
938.133	3347.92
938.308	3106.26
938.483	3210.7
938.659	3053.01
938.834	3106.26
939.009	2919.89
939.185	2938.32
939.36	2942.42
939.535	2565.59
939.71	2889.17
939.886	3120.59
940.061	3225.04
940.236	2784.73
940.411	2733.53
940.586	2788.82
940.761	2901.46
940.937	2696.66
941.112	2483.67
941.287	2622.94
941.462	2682.33
941.637	2473.43
941.812	2559.45
941.987	2745.81
942.162	2725.33
942.337	2487.77
942.512	2377.18
942.687	2792.92
942.862	2754.01
943.037	2125.28
943.212	2067.94
943.386	2420.19
943.561	2422.24
943.736	2463.19
943.911	2469.34
944.086	2561.5
944.26	2506.2
944.435	2207.2
944.61	2250.21
944.785	2667.99
944.959	2776.53
945.134	2137.57
945.309	2026.98
945.483	2207.2
945.658	2665.94
945.833	1893.86
946.007	1992.16
946.182	2731.48
946.357	2215.39
946.531	2074.08
946.706	2141.66
946.88	1992.16
947.055	2405.85
947.229	2086.37
947.404	2174.43
947.578	2616.79
947.752	2309.6
947.927	2112.99
948.101	1953.25
948.276	2330.08
948.45	2366.94
948.624	2403.8
948.799	2135.52
948.973	2461.15
949.147	2119.14
949.321	2192.86
949.496	2158.05
949.67	2545.11
949.844	2278.88
950.018	2098.66
950.193	2078.18
950.367	2878.93
950.541	2325.98
950.715	2385.37
950.889	2297.31
951.063	2385.37
951.237	2520.54
951.411	1861.09
951.585	1965.54
951.759	2373.08
951.933	2266.59
952.107	2108.9
952.281	2368.99
952.455	2604.5
952.629	2555.35
952.803	2131.42
952.977	2125.28
953.151	2500.06
953.325	2387.42
953.499	2330.08
953.672	1983.97
953.846	2086.37
954.02	2203.1
954.194	2008.55
954.368	2069.98
954.541	2412
954.715	2147.81
954.889	2239.97
955.062	2063.84
955.236	2309.6
955.41	2192.86
955.583	2137.57
955.757	2041.31
955.93	2176.48
956.104	2084.32
956.278	2043.36
956.451	2188.77
956.625	2377.18
956.798	2733.53
956.972	2338.27
957.145	2041.31
957.319	2278.88
957.492	2151.9
957.665	2340.32
957.839	2037.22
958.012	2305.5
958.185	2117.09
958.359	2016.74
958.532	2311.64
958.705	2414.04
958.879	2328.03
959.052	2158.05
959.225	1949.15
959.398	2239.97
959.572	2336.22
959.745	2082.27
959.918	2125.28
960.091	2176.48
960.264	2379.23
960.438	2020.83
960.611	2049.5
960.784	2493.91
960.957	2129.38
961.13	2397.66
961.303	1920.48
961.476	2201.05
961.649	2262.49
961.822	1969.63
961.995	2051.55
962.168	2350.56
962.341	2231.77
962.514	2018.79
962.686	1922.53
962.859	2237.92
963.032	2260.45
963.205	1895.91
963.378	1828.32
963.551	2305.5
963.723	2153.95
963.896	2033.12
964.069	2137.57
964.242	2250.21
964.414	2420.19
964.587	2045.41
964.76	2106.85
964.932	2293.21
965.105	2205.15
965.278	2041.31
965.45	1902.05
965.623	2190.81
965.795	2299.36
965.968	2026.98
966.14	1996.26
966.313	2055.65
966.485	2178.53
966.658	1965.54
966.83	2014.69
967.003	2305.5
967.175	2278.88
967.348	1867.24
967.52	2031.07
967.692	2414.04
967.865	2076.13
968.037	1994.21
968.209	2239.97
968.382	2094.56
968.554	2196.96
968.726	1977.83
968.898	1891.81
969.071	2088.42
969.243	2162.14
969.415	1906.15
969.587	1998.31
969.759	2663.9
969.932	2215.39
970.104	1865.19
970.276	1781.22
970.448	1979.87
970.62	2012.64
970.792	1988.07
970.964	2000.35
971.136	2516.44
971.308	2190.81
971.48	1811.94
971.652	1857
971.824	2287.07
971.996	1914.34
972.168	1967.59
972.339	1891.81
972.511	2196.96
972.683	1967.59
972.855	2037.22
973.027	1914.34
973.199	1992.16
973.37	2207.2
973.542	1986.02
973.714	1973.73
973.886	2010.59
974.057	2178.53
974.229	1695.21
974.401	1783.27
974.572	1777.12
974.744	1519.08
974.915	1705.45
975.087	1730.02
975.259	2311.64
975.43	1824.23
975.602	1828.32
975.773	1750.5
975.945	1852.9
976.116	2143.71
976.288	1701.35
976.459	1975.78
976.63	1748.45
976.802	1986.02
976.973	1727.97
977.145	1889.76
977.316	2356.7
977.487	1889.76
977.659	1832.42
977.83	1758.69
978.001	2348.51
978.172	1981.92
978.344	1689.06
978.515	1742.31
978.686	1697.25
978.857	2119.14
979.028	1793.51
979.2	1603.05
979.371	2125.28
979.542	1893.86
979.713	1953.25
979.884	1396.2
980.055	1721.83
980.226	1799.65
980.397	1625.58
980.568	1521.13
980.739	2082.27
980.91	1789.41
981.081	1879.52
981.252	1578.47
981.423	2035.17
981.594	2024.93
981.765	1428.97
981.936	1736.17
982.106	1867.24
982.277	2035.17
982.448	1547.75
982.619	1740.26
982.79	1676.77
982.96	2072.03
983.131	1570.28
983.302	1523.18
983.472	1658.34
983.643	1785.32
983.814	1631.72
983.984	1566.18
984.155	1672.68
984.326	2117.09
984.496	1822.18
984.667	1484.27
984.837	1633.77
985.008	1936.87
985.178	1781.22
985.349	1590.76
985.519	1701.35
985.69	1576.42
985.86	1603.05
986.031	1406.44
986.201	1791.46
986.371	1711.59
986.542	1557.99
986.712	1295.85
986.882	1689.06
987.053	1916.39
987.223	1392.11
987.393	1660.39
987.563	1519.08
987.734	1846.76
987.904	1756.65
988.074	1478.12
988.244	1766.89
988.414	1449.45
988.585	1336.81
988.755	1627.62
988.925	1734.12
989.095	1961.44
989.265	1369.58
989.435	1547.75
989.605	1813.99
989.775	1818.08
989.945	1693.16
990.115	1433.07
990.285	1615.34
990.455	1617.38
990.625	1529.32
990.795	1345
990.965	2008.55
991.134	1439.21
991.304	1390.06
991.474	1314.28
991.644	1754.6
991.814	1938.91
991.984	1291.76
992.153	1351.15
992.323	1541.61
992.493	1564.14
992.662	1252.84
992.832	1541.61
993.002	1648.1
993.171	1615.34
993.341	1209.84
993.511	1412.59
993.68	1478.12
993.85	1539.56
994.019	1140.21
994.189	1263.08
994.358	1619.43
994.528	1353.2
994.697	1074.67
994.867	1281.52
995.036	1662.44
995.206	1404.39
995.375	1304.04
995.544	1420.78
995.714	1601
995.883	1410.54
996.052	1392.11
996.222	1097.2
996.391	1918.43
996.56	1580.52
996.73	1177.07
996.899	1127.92
997.068	1887.72
997.237	1406.44
997.406	1177.07
997.576	1197.55
997.745	1404.39
997.914	1535.46
998.083	984.56
998.252	1254.89
998.421	1525.22
998.59	1215.98
998.759	1166.83
998.928	1068.53
999.097	1715.69
999.266	1494.51
999.435	1265.13
999.604	957.94
999.773	1949.15
999.942	1326.57
1000.111	1142.25
1000.28	972.27
1000.448	1232.37
1000.617	1117.68
1000.786	1277.42
1000.955	1093.1
1001.124	1410.54
1001.292	1992.16
1001.461	1150.45
1001.63	1033.71
1001.798	1619.43
1001.967	1535.46
1002.136	927.22
1002.304	1060.34
1002.473	1388.01
1002.642	1365.48
1002.81	1021.42
1002.979	1000.94
1003.147	1578.47
1003.316	1871.33
1003.484	1097.2
1003.653	935.41
1003.821	1601
1003.99	1361.39
1004.158	1222.13
1004.327	1066.48
1004.495	1338.86
1004.663	1099.25
1004.832	1144.3
1005	945.65
1005.168	1258.99
1005.337	1275.37
1005.505	888.31
1005.673	1211.89
1005.842	1381.87
1006.01	1359.34
1006.178	919.03
1006.346	919.03
1006.514	1392.11
1006.683	1562.09
1006.851	886.26
1007.019	742.9
1007.187	1097.2
1007.355	738.8
1007.523	820.72
1007.691	792.05
1007.859	886.26
1008.027	1383.91
1008.195	886.26
1008.363	740.85
1008.531	1371.63
1008.699	1000.94
1008.867	800.24
1009.035	925.17
1009.203	1437.16
1009.37	1132.01
1009.538	876.02
1009.706	1261.04
1009.874	1158.64
1010.042	1084.91
1010.209	636.41
1010.377	880.11
1010.545	1205.74
1010.713	1172.97
1010.88	730.61
1011.048	878.07
1011.216	1029.62
1011.383	1318.38
1011.551	804.34
1011.718	708.09
1011.886	1443.31
1012.054	1009.14
1012.221	787.96
1012.389	808.44
1012.556	1101.3
1012.724	1500.65
1012.891	884.21
1013.058	687.61
1013.226	1267.18
1013.393	1242.61
1013.561	654.84
1013.728	658.93
1013.895	1285.61
1014.063	1183.21
1014.23	699.89
1014.397	663.03
1014.565	1224.17
1014.732	1043.95
1014.899	730.61
1015.066	597.49
1015.233	986.61
1015.401	1197.55
1015.568	824.82
1015.735	792.05
1015.902	910.83
1016.069	1076.72
1016.236	714.23
1016.403	673.27
1016.57	820.72
1016.737	1146.35
1016.904	724.47
1017.071	554.49
1017.238	919.03
1017.405	1236.46
1017.572	703.99
1017.739	919.03
1017.906	1191.41
1018.073	1236.46
1018.24	609.78
1018.407	650.74
1018.573	1224.17
1018.74	902.64
1018.907	736.76
1019.074	482.81
1019.241	1226.22
1019.407	957.94
1019.574	665.08
1019.741	437.75
1019.907	939.51
1020.074	1043.95
1020.241	433.66
1020.407	577.02
1020.574	1134.06
1020.74	1011.18
1020.907	751.09
1021.073	562.68
1021.24	1467.88
1021.406	1297.9
1021.573	583.16
1021.739	595.45
1021.906	968.18
1022.072	898.55
1022.239	574.97
1022.405	552.44
1022.571	890.35
1022.738	669.17
1022.904	548.34
1023.07	665.08
1023.237	900.59
1023.403	1054.19
1023.569	509.43
1023.735	607.73
1023.902	894.45
1024.068	953.84
1024.234	476.66
1024.4	515.58
1024.566	896.5
1024.732	1089.01
1024.898	474.62
1025.065	497.14
1025.231	951.79
1025.397	650.74
1025.563	591.35
1025.729	503.29
1025.895	437.75
1026.061	605.69
1026.227	493.05
1026.392	503.29
1026.558	982.51
1026.724	929.27
1026.89	396.79
1027.056	617.97
1027.222	941.55
1027.388	699.89
1027.553	425.47
1027.719	357.88
1027.885	1115.63
1028.051	859.63
1028.216	357.88
1028.382	431.61
1028.548	941.55
1028.713	652.79
1028.879	386.55
1029.045	607.73
1029.21	998.9
1029.376	984.56
1029.541	513.53
1029.707	445.95
1029.873	921.07
1030.038	871.92
1030.204	460.28
1030.369	542.2
1030.534	978.42
1030.7	638.45
1030.865	431.61
1031.031	417.27
1031.196	902.64
1031.361	800.24
1031.527	400.89
1031.692	337.4
1031.857	441.85
1032.023	794.1
1032.188	323.07
1032.353	437.75
1032.518	996.85
1032.684	759.28
1032.849	206.33
1033.014	552.44
1033.179	959.99
1033.344	841.2
1033.509	447.99
1033.674	425.47
1033.839	798.2
1034.004	857.59
1034.17	376.31
1034.335	265.72
1034.5	642.55
1034.664	562.68
1034.829	380.41
1034.994	447.99
1035.159	806.39
1035.324	773.62
1035.489	392.7
1035.654	224.76
1035.819	964.08
1035.984	738.8
1036.148	400.89
1036.313	388.6
1036.478	900.59
1036.643	646.65
1036.807	239.1
1036.972	323.07
1037.137	984.56
1037.301	697.85
1037.466	192
1037.631	431.61
1037.795	914.93
1037.96	720.37
1038.124	474.62
1038.289	267.77
1038.454	732.66
1038.618	761.33
1038.783	296.44
1038.947	441.85
1039.111	736.76
1039.276	470.52
1039.44	257.53
1039.605	710.13
1039.769	585.21
1039.933	626.17
1040.098	374.27
1040.262	542.2
1040.426	878.07
1040.591	732.66
1040.755	247.29
1040.919	304.64
1041.083	693.75
1041.248	601.59
1041.412	138.75
1041.576	173.57
1041.74	466.42
1041.904	779.76
1042.068	222.72
1042.232	357.88
1042.397	798.2
1042.561	574.97
1042.725	114.17
1042.889	421.37
1043.053	681.46
1043.217	794.1
1043.381	349.69
1043.544	112.13
1043.708	833.01
1043.872	335.35
1044.036	38.4
1044.2	48.64
1044.364	759.28
1044.528	923.12
1044.691	3005.91
1044.855	146.94
1045.019	742.9
1045.183	732.66
1045.346	175.61
1045.51	237.05
1045.674	660.98
1045.837	699.89
1046.001	232.96
1046.165	251.39
1046.328	1129.97
1046.492	595.45
1046.655	398.84
1046.819	329.21
1046.983	462.33
1047.146	665.08
1047.31	208.38
1047.473	46.59
1047.636	462.33
1047.8	329.21
1047.963	239.1
1048.127	173.57
1048.29	304.64
