Data from Ink_Intensity_USB4F045381__92__00092.txt Node

Date: Mon Jul 17 11:01:48 EDT 2023
User: mmckonesweet
Spectrometer: USB4F04538
Trigger mode: 4
Integration Time (sec): 9.000000E-1
Scans to average: 1
Electric dark correction enabled: true
Nonlinearity correction enabled: false
Boxcar width: 0
XAxis mode: Wavelengths
Number of Pixels in Spectrum: 3648
>>>>>Begin Spectral Data<<<<<
345.52	-1053
345.736	-1053
345.952	-1053
346.168	-981.32
346.384	-1071.43
346.6	-127.32
346.816	-196.95
347.032	-205.14
347.248	294.57
347.464	-186.71
347.68	-129.36
347.896	120.49
348.112	356.01
348.328	-141.65
348.544	34.47
348.76	-33.11
348.975	214.7
349.191	-293.2
349.407	-145.75
349.623	34.47
349.839	-47.44
350.055	-168.27
350.27	97.96
350.486	138.92
350.702	362.15
350.918	263.85
351.133	-162.13
351.349	153.26
351.565	489.12
351.781	-258.39
351.996	79.53
352.212	437.92
352.428	-112.98
352.644	-133.46
352.859	-285.01
353.075	306.85
353.291	95.91
353.506	-166.23
353.722	-252.24
353.938	-2.39
354.153	476.84
354.369	118.44
354.584	-149.84
354.8	226.98
355.016	-264.53
355.231	-270.67
355.447	-98.64
355.662	124.58
355.878	771.74
356.093	-401.74
356.309	-92.5
356.524	-295.25
356.74	167.59
356.955	-246.1
357.171	-86.36
357.386	83.63
357.602	-188.75
357.817	-51.54
358.033	-190.8
358.248	288.42
358.464	136.87
358.679	-106.84
358.895	-332.11
359.11	61.1
359.325	267.94
359.541	1.71
359.756	44.71
359.972	-244.05
360.187	194.22
360.402	-280.91
360.618	-65.88
360.833	1021.6
361.048	122.54
361.264	-215.38
361.479	-18.77
361.694	59.05
361.909	276.13
362.125	-168.27
362.34	-117.08
362.555	253.61
362.77	147.11
362.986	-260.43
363.201	-178.51
363.416	149.16
363.631	67.24
363.847	-196.95
364.062	-123.22
364.277	220.84
364.492	128.68
364.707	-149.84
364.922	-411.98
365.138	304.81
365.353	417.44
365.568	-301.39
365.783	-100.69
365.998	143.02
366.213	571.04
366.428	-280.91
366.643	122.54
366.858	284.33
367.073	261.8
367.288	-141.65
367.503	-198.99
367.718	116.39
367.933	347.81
368.148	-356.69
368.363	-131.41
368.578	3.75
368.793	376.48
369.008	-135.51
369.223	-215.38
369.438	204.46
369.653	362.15
369.868	-256.34
370.083	-285.01
370.298	112.3
370.513	415.4
370.728	46.76
370.943	-158.03
371.157	-194.9
371.372	554.66
371.587	-317.78
371.802	-262.48
372.017	69.29
372.232	337.57
372.446	9.9
372.661	-307.54
372.876	269.99
373.091	136.87
373.306	-26.96
373.52	-244.05
373.735	-180.56
373.95	345.77
374.165	-49.49
374.379	-151.89
374.594	-69.97
374.809	155.3
375.023	95.91
375.238	-231.76
375.453	226.98
375.667	-293.2
375.882	-123.22
376.097	-188.75
376.311	-2.39
376.526	13.99
376.741	-172.37
376.955	200.36
377.17	614.05
377.384	648.86
377.599	79.53
377.813	-215.38
378.028	650.91
378.242	128.68
378.457	-37.2
378.672	-276.82
378.886	145.06
379.101	-33.11
379.315	-285.01
379.53	-141.65
379.744	208.55
379.958	177.83
380.173	-174.42
380.387	-147.8
380.602	140.97
380.816	-84.31
381.031	-188.75
381.245	-96.6
381.459	190.12
381.674	2651.78
381.888	-125.27
382.103	59.05
382.317	-162.13
382.531	538.27
382.746	-24.92
382.96	-115.03
383.174	-49.49
383.388	431.78
383.603	46.76
383.817	-252.24
384.031	161.45
384.246	470.69
384.46	89.77
384.674	409.25
384.888	61.1
385.103	112.3
385.317	-321.87
385.531	69.29
385.745	429.73
385.959	294.57
386.174	-219.47
386.388	-174.42
386.602	75.43
386.816	-47.44
387.03	-59.73
387.244	-57.68
387.458	140.97
387.672	401.06
387.887	-235.86
388.101	-170.32
388.315	456.36
388.529	149.16
388.743	-168.27
388.957	-225.62
389.171	304.81
389.385	-168.27
389.599	-104.79
389.813	153.26
390.027	224.94
390.241	730.78
390.455	-133.46
390.669	-57.68
390.883	-51.54
391.097	419.49
391.311	26.28
391.525	-141.65
391.738	214.7
391.952	290.47
392.166	5.8
392.38	-289.1
392.594	294.57
392.808	378.53
393.022	-61.78
393.236	26.28
393.449	323.24
393.663	214.7
393.877	-158.03
394.091	-88.4
394.305	-129.36
394.518	-67.92
394.732	-252.24
394.946	-74.07
395.16	497.32
395.373	95.91
395.587	-182.61
395.801	-149.84
396.015	427.68
396.228	308.9
396.442	-192.85
396.656	-328.02
396.869	353.96
397.083	497.32
397.297	38.57
397.51	-104.79
397.724	417.44
397.938	106.15
398.151	-295.25
398.365	-166.23
398.578	317.09
398.792	376.48
399.005	9.9
399.219	-96.6
399.433	206.5
399.646	358.05
399.86	89.77
400.073	151.21
400.287	321.19
400.5	122.54
400.714	157.35
400.927	104.11
401.141	325.29
401.354	1214.1
401.567	382.63
401.781	-248.15
401.994	396.96
402.208	681.63
402.421	-72.02
402.635	-90.45
402.848	122.54
403.061	427.68
403.275	26.28
403.488	-108.88
403.701	612
403.915	370.34
404.128	89.77
404.341	-125.27
404.555	284.33
404.768	122.54
404.981	71.34
405.195	-65.88
405.408	571.04
405.621	329.38
405.834	145.06
406.048	-115.03
406.261	566.95
406.474	634.53
406.687	-133.46
406.9	-22.87
407.114	128.68
407.327	329.38
407.54	-190.8
407.753	-149.84
407.966	-61.78
408.179	374.44
408.392	-100.69
408.605	-196.95
408.819	343.72
409.032	390.82
409.245	-59.73
409.458	173.74
409.671	327.33
409.884	468.64
410.097	-139.6
410.31	149.16
410.523	325.29
410.736	57
410.949	87.72
411.162	75.43
411.375	571.04
411.588	456.36
411.801	192.17
412.014	-112.98
412.227	216.74
412.44	186.02
412.653	-121.17
412.865	171.69
413.078	423.59
413.291	333.48
413.504	83.63
413.717	22.19
413.93	409.25
414.143	42.67
414.356	22.19
414.568	-133.46
414.781	550.56
414.994	261.8
415.207	112.3
415.42	91.82
415.632	396.96
415.845	716.45
416.058	208.55
416.271	-59.73
416.483	292.52
416.696	728.74
416.909	-14.68
417.121	-67.92
417.334	396.96
417.547	681.63
417.759	-10.58
417.972	-65.88
418.185	77.48
418.397	497.32
418.61	46.76
418.823	22.19
419.035	646.82
419.248	204.46
419.46	106.15
419.673	198.31
419.885	433.83
420.098	235.18
420.311	81.58
420.523	-133.46
420.736	421.54
420.948	284.33
421.161	102.06
421.373	-112.98
421.586	345.77
421.798	145.06
422.01	-106.84
422.223	253.61
422.435	75.43
422.648	470.69
422.86	143.02
423.073	122.54
423.285	612
423.497	-2.39
423.71	-35.16
423.922	126.63
424.134	425.64
424.347	724.64
424.559	333.48
424.771	413.35
424.984	310.95
425.196	448.16
425.408	-121.17
425.621	-92.5
425.833	489.12
426.045	714.4
426.257	24.23
426.47	163.5
426.682	472.74
426.894	544.42
427.106	151.21
427.318	224.94
427.531	179.88
427.743	575.14
427.955	222.89
428.167	558.75
428.379	491.17
428.591	325.29
428.804	169.64
429.016	75.43
429.228	339.62
429.44	466.6
429.652	464.55
429.864	63.15
430.076	349.86
430.288	376.48
430.5	210.6
430.712	267.94
430.924	648.86
431.136	562.85
431.348	79.53
431.56	52.91
431.772	411.3
431.984	317.09
432.196	183.98
432.408	186.02
432.62	267.94
432.832	532.13
433.044	476.84
433.256	407.2
433.468	544.42
433.679	194.22
433.891	120.49
434.103	439.97
434.315	712.35
434.527	595.62
434.739	356.01
434.95	337.57
435.162	726.69
435.374	362.15
435.586	378.53
435.798	243.37
436.009	249.51
436.221	386.72
436.433	282.28
436.645	247.46
436.856	374.44
437.068	665.25
437.28	284.33
437.491	632.48
437.703	712.35
437.915	597.67
438.126	284.33
438.338	478.88
438.55	554.66
438.761	675.49
438.973	349.86
439.184	384.68
439.396	587.43
439.608	769.69
439.819	358.05
440.031	390.82
440.242	812.7
440.454	784.03
440.665	356.01
440.877	474.79
441.088	773.79
441.3	589.47
441.511	210.6
441.723	315.05
441.934	648.86
442.146	624.29
442.357	442.02
442.569	638.62
442.78	677.54
442.991	1019.55
443.203	693.92
443.414	321.19
443.626	919.2
443.837	358.05
444.048	319.14
444.26	278.18
444.471	749.22
444.682	843.42
444.894	214.7
445.105	267.94
445.316	888.48
445.528	784.03
445.739	472.74
445.95	534.18
446.161	675.49
446.373	886.43
446.584	546.47
446.795	472.74
447.006	945.82
447.217	1085.08
447.429	317.09
447.64	327.33
447.851	1050.27
448.062	661.15
448.273	259.75
448.484	462.5
448.695	874.14
448.907	708.26
449.118	585.38
449.329	769.69
449.54	624.29
449.751	480.93
449.962	399.01
450.173	505.51
450.384	1048.22
450.595	1070.75
450.806	513.7
451.017	556.71
451.228	1078.94
451.439	997.02
451.65	556.71
451.861	345.77
452.072	538.27
452.283	794.27
452.494	779.93
452.705	509.6
452.915	1093.27
453.126	911
453.337	665.25
453.548	519.84
453.759	1128.09
453.97	1316.5
454.181	837.28
454.391	655.01
454.602	927.39
454.813	1126.04
455.024	743.07
455.235	626.34
455.445	884.38
455.656	1021.6
455.867	822.94
456.078	763.55
456.288	794.27
456.499	1093.27
456.71	763.55
456.921	1001.12
457.131	1123.99
457.342	1023.64
457.553	827.04
457.763	714.4
457.974	1230.49
458.184	1244.82
458.395	714.4
458.606	712.35
458.816	1398.42
459.027	1474.2
459.237	870.05
459.448	761.5
459.659	1353.37
459.869	1611.41
460.08	667.3
460.29	1046.17
460.501	1496.72
460.711	994.97
460.922	781.98
461.132	806.56
461.343	1808.02
461.553	829.09
461.764	902.81
461.974	960.16
462.184	1261.21
462.395	1226.39
462.605	1083.03
462.816	898.72
463.026	1267.35
463.236	1558.16
463.447	900.76
463.657	958.11
463.867	1517.2
464.078	1234.58
464.288	1148.57
464.498	1107.61
464.709	1388.18
464.919	1263.26
465.129	1169.05
465.339	1009.31
465.55	1431.19
465.76	1646.23
465.97	1103.51
466.18	1148.57
466.391	1627.79
466.601	1494.68
466.811	1357.46
467.021	1136.28
467.231	1578.64
467.441	1834.64
467.651	1320.6
467.862	1093.27
468.072	1635.99
468.282	1869.45
468.492	1306.26
468.702	1379.99
468.912	1703.57
469.122	2119.31
469.332	1670.8
469.542	1312.41
469.752	1924.75
469.962	1838.73
470.172	1336.98
470.382	1472.15
470.592	1898.13
470.802	2080.39
471.012	1773.2
471.222	1595.03
471.432	2117.26
471.642	1930.89
471.852	1762.96
472.062	1611.41
472.272	1916.56
472.482	1779.34
472.691	1738.38
472.901	1623.7
473.111	2086.54
473.321	2565.76
473.531	1681.04
473.741	1951.37
473.95	2141.83
474.16	2328.2
474.37	2025.1
474.58	1971.85
474.79	2702.98
474.999	2440.84
475.209	1775.25
475.419	2080.39
475.628	2256.52
475.838	2707.07
476.048	2113.16
476.258	1980.04
476.467	2766.46
476.677	2233.99
476.886	2442.89
477.096	2418.31
477.306	2471.56
477.515	2848.38
477.725	2342.53
477.935	2471.56
478.144	3042.94
478.354	2481.8
478.563	2430.6
478.773	2440.84
478.982	2932.35
479.192	2915.97
479.401	2606.72
479.611	2438.79
479.82	2768.51
480.03	3071.61
480.239	2510.47
480.449	2526.85
480.658	3430.01
480.868	2932.35
481.077	2846.34
481.287	2864.77
481.496	3303.03
481.705	3473.01
481.915	3178.11
482.124	3118.72
482.333	3321.46
482.543	3655.28
482.752	3192.44
482.961	3159.67
483.171	3669.62
483.38	3315.32
483.589	3239.55
483.799	3114.62
484.008	3403.38
484.217	3675.76
484.426	3286.65
484.636	3139.19
484.845	3604.08
485.054	3479.16
485.263	3729.01
485.472	3257.98
485.682	4163.18
485.891	3847.79
486.1	3391.09
486.309	3563.12
486.518	3999.34
486.727	4138.6
486.936	3528.31
487.146	3780.21
487.355	4324.97
487.564	3804.78
487.773	3829.36
487.982	3917.42
488.191	3833.46
488.4	4138.6
488.609	3890.8
488.818	3901.04
489.027	4769.38
489.236	4632.16
489.445	4021.87
489.654	3966.57
489.863	4558.44
490.072	4529.77
490.281	4466.28
490.49	4181.61
490.698	4730.47
490.907	4871.78
491.116	4314.73
491.325	4208.23
491.534	4939.36
491.743	4599.4
491.952	4294.25
492.16	4437.61
492.369	4867.68
492.578	5072.48
492.787	4435.56
492.996	4247.15
493.204	4740.71
493.413	5461.59
493.622	4372.07
493.831	4519.53
494.039	5283.42
494.248	4726.37
494.457	4896.35
494.665	4513.38
494.874	5224.03
495.083	5465.69
495.291	4933.22
495.5	4882.02
495.709	5293.66
495.917	5234.27
496.126	5068.38
496.335	4818.53
496.543	5074.53
496.752	5346.91
496.96	5277.27
497.169	5019.23
497.377	5465.69
497.586	5504.6
497.794	5326.43
498.003	4914.78
498.211	5453.4
498.42	5955.15
498.628	5369.43
498.837	5289.56
499.045	5803.6
499.254	5650
499.462	5365.34
499.671	5348.95
499.879	6104.65
500.087	5928.53
500.296	5402.2
500.504	5625.43
500.713	5924.43
500.921	6274.63
501.129	5582.42
501.338	5627.48
501.546	5981.78
501.754	6055.5
501.962	5650
502.171	5568.09
502.379	6223.44
502.587	6461
502.795	5879.38
503.004	5748.31
503.212	6094.41
503.42	6469.19
503.628	5846.61
503.837	6014.54
504.045	6526.54
504.253	6766.15
504.461	6065.74
504.669	5756.5
504.877	6567.49
505.085	6764.1
505.294	6022.73
505.502	6311.5
505.71	6426.18
505.918	6649.41
506.126	6192.72
506.334	6059.6
506.542	6571.59
506.75	6641.22
506.958	6493.77
507.166	6405.7
507.374	6555.21
507.582	7231.04
507.79	6530.63
507.998	6387.27
508.206	6856.26
508.414	6913.6
508.622	6465.1
508.83	6561.35
509.037	7394.87
509.245	6729.28
509.453	6487.62
509.661	6524.49
509.869	7097.92
510.077	6807.11
510.285	6833.73
510.492	6430.28
510.7	7450.17
510.908	6850.11
511.116	6815.3
511.324	6661.7
511.531	7030.34
511.739	7147.07
511.947	6831.68
512.155	7013.95
512.362	7337.53
512.57	7059.01
512.778	6846.02
512.985	6815.3
513.193	7386.68
513.401	7906.87
513.608	7030.34
513.816	7059.01
514.024	7628.34
514.231	7599.67
514.439	7310.91
514.646	7237.18
514.854	7659.06
515.061	7691.83
515.269	7194.17
515.477	7464.5
515.684	7425.59
515.892	7740.98
516.099	7458.36
516.307	7099.97
516.514	7831.09
516.722	8207.92
516.929	7624.25
517.136	7325.24
517.344	8162.86
517.551	7984.69
517.759	7355.96
517.966	7749.17
518.173	7853.62
518.381	8039.98
518.588	7648.82
518.796	7753.27
519.003	8240.68
519.21	7994.93
519.418	7562.81
519.625	7970.35
519.832	8039.98
520.039	8193.58
520.247	7595.57
520.454	7827
520.661	8582.7
520.868	8443.43
521.076	8035.89
521.283	8158.77
521.49	8967.71
521.697	8416.81
521.904	8097.33
522.112	8107.57
522.319	8691.24
522.526	8543.78
522.733	8502.82
522.94	8091.18
523.147	8631.85
523.354	8781.35
523.561	7921.2
523.768	8150.57
523.975	8975.91
524.183	8754.73
524.39	8582.7
524.597	8261.16
524.804	8863.27
525.011	8594.98
525.218	8523.3
525.425	8582.7
525.632	9172.51
525.838	8713.77
526.045	8848.93
526.252	8484.39
526.459	10204.69
526.666	9629.21
526.873	8850.98
527.08	8779.3
527.287	9440.79
527.494	9250.33
527.701	8656.42
527.907	8783.4
528.114	9385.5
528.321	9158.17
528.528	8842.79
528.735	9082.4
528.941	9059.87
529.148	9004.58
529.355	9127.46
529.562	9012.77
529.768	9905.68
529.975	9405.98
530.182	9084.45
530.388	9154.08
530.595	9975.31
530.802	9283.1
531.008	9491.99
531.215	9547.29
531.422	10008.08
531.628	10700.3
531.835	9649.69
532.042	9496.09
532.248	9924.12
532.455	9932.31
532.661	9532.95
532.868	9823.76
533.074	9983.51
533.281	10112.53
533.487	9842.2
533.694	9590.3
533.9	9899.54
534.107	10257.93
534.313	9950.74
534.52	9747.99
534.726	10483.21
534.933	10792.45
535.139	10010.13
535.345	9842.2
535.552	10438.16
535.758	10286.61
535.965	10219.02
536.171	10036.75
536.377	10665.48
536.584	10659.34
536.79	10143.25
536.996	10491.4
537.203	10438.16
537.409	10817.03
537.615	10305.04
537.821	10470.92
538.028	11032.07
538.234	10704.39
538.44	10456.59
538.646	10421.77
538.853	11040.26
539.059	10784.26
539.265	10823.17
539.471	10298.89
539.677	11331.07
539.883	10896.9
540.09	10628.62
540.296	11054.59
540.502	11032.07
540.708	10876.42
540.914	11011.59
541.12	10978.82
541.326	11384.32
541.532	11163.14
541.738	11113.99
541.944	11099.65
542.15	11724.28
542.356	11466.24
542.562	10993.15
542.768	11093.51
542.974	11896.31
543.18	11935.22
543.386	11130.37
543.592	10954.24
543.798	12084.72
544.004	11732.47
544.21	11253.25
544.415	11290.11
544.621	11718.14
544.827	12002.8
545.033	11482.62
545.239	11800.05
545.445	11693.56
545.651	12039.67
545.856	11537.91
546.062	11630.07
546.268	11761.14
546.474	11961.84
546.679	11386.36
546.885	11638.27
547.091	11808.25
547.297	12498.41
547.502	11963.89
547.708	11630.07
547.914	11867.64
548.119	12373.49
548.325	11574.78
548.531	11720.18
548.736	12330.48
548.942	11970.04
549.147	11671.03
549.353	12201.46
549.559	12586.47
549.764	12361.2
549.97	11957.75
550.175	11886.07
550.381	12629.48
550.586	12133.87
550.792	12195.31
550.997	12289.52
551.203	12568.04
551.408	12879.33
551.614	12129.78
551.819	12391.92
552.025	12983.78
552.23	13391.33
552.435	12189.17
552.641	12942.82
552.846	12725.74
553.052	13309.41
553.257	12766.7
553.462	12713.45
553.668	12930.53
553.873	13258.21
554.078	12701.16
554.283	12705.26
554.489	13141.47
554.694	13211.11
554.899	12563.95
555.105	13151.71
555.31	13190.63
555.515	13172.19
555.72	13270.5
555.925	12971.49
556.131	13493.72
556.336	13223.39
556.541	13020.64
556.746	13186.53
556.951	13698.52
557.156	13651.42
557.361	13284.83
557.567	13376.99
557.772	14015.96
557.977	13694.43
558.182	13239.78
558.387	13290.98
558.592	13440.48
558.797	14065.11
559.002	13270.5
559.207	13544.92
559.412	13555.16
559.617	14083.54
559.822	13524.44
560.027	13297.12
560.232	13975
560.437	13966.81
560.642	13272.54
560.847	13624.79
561.051	14101.97
561.256	14056.92
561.461	13991.38
561.666	13645.27
561.871	13891.03
562.076	14206.42
562.281	13948.37
562.485	13575.64
562.69	14308.82
562.895	14304.72
563.1	13757.91
563.305	13688.28
563.509	14349.78
563.714	14728.65
563.919	13850.07
564.123	13737.43
564.328	14257.62
564.533	14679.5
564.737	13938.13
564.942	13940.18
565.147	14730.7
565.351	15039.94
565.556	14179.79
565.761	14245.33
565.965	14636.49
566.17	14409.17
566.374	14230.99
566.579	14245.33
566.784	14456.27
566.988	14642.64
567.193	14108.12
567.397	14298.58
567.602	14392.78
567.806	14808.52
568.011	14605.77
568.215	14575.05
568.42	14960.07
568.624	14738.89
568.828	14343.63
569.033	14585.29
569.237	14951.88
569.442	15044.04
569.646	14462.41
569.85	14783.95
570.055	15048.13
570.259	15121.86
570.463	15203.78
570.668	14712.27
570.872	15203.78
571.076	15119.81
571.281	15365.57
571.485	15064.52
571.689	15312.32
571.893	15465.92
572.098	15293.89
572.302	15023.56
572.506	15590.84
572.71	15470.01
572.914	15242.69
573.119	15050.18
573.323	15828.41
573.527	16006.58
573.731	15314.37
573.935	14988.74
574.139	15480.25
574.343	15242.69
574.547	15308.23
574.751	15674.81
574.955	16113.08
575.159	15883.7
575.364	14925.25
575.568	15492.54
575.772	15908.28
575.976	16227.76
576.18	15541.69
576.383	15455.68
576.587	16274.87
576.791	15996.34
576.995	15482.3
577.199	15447.49
577.403	16123.32
577.607	16516.53
577.811	15814.07
578.015	15859.13
578.219	16276.91
578.422	16192.95
578.626	16297.39
578.83	16143.8
579.034	16629.16
579.238	16401.84
579.442	16221.62
579.645	16367.02
579.849	16303.54
580.053	16657.84
580.257	16149.94
580.46	16383.41
580.664	16588.21
580.868	16604.59
581.071	16385.46
581.275	16778.67
581.479	16321.97
581.682	16827.82
581.886	16156.08
582.09	16817.58
582.293	16874.92
582.497	17051.05
582.7	16893.35
582.904	16483.76
583.107	16833.96
583.311	16936.36
583.515	16856.49
583.718	16725.42
583.922	17370.53
584.125	17704.35
584.329	16657.84
584.532	16811.43
584.735	17565.09
584.939	17325.47
585.142	16690.6
585.346	16709.04
585.549	17194.4
585.753	17239.46
585.956	17046.95
586.159	17348
586.363	17886.62
586.566	17786.27
586.769	16971.18
586.973	16881.07
587.176	17503.65
587.379	17868.19
587.582	17739.16
587.786	17212.84
587.989	17472.93
588.192	18519.44
588.395	17425.82
588.599	17819.03
588.802	18042.26
589.005	17905.05
589.208	17601.95
589.411	17520.03
589.615	17862.04
589.818	18271.64
590.021	17923.48
590.224	17921.43
590.427	18087.32
590.63	18095.51
590.833	17601.95
591.036	17859.99
591.239	18036.12
591.442	17946.01
591.645	18308.5
591.848	17962.39
592.051	18288.02
592.254	18660.75
592.457	18163.09
592.66	18015.64
592.863	18552.21
593.066	18607.5
593.269	18257.3
593.472	18161.05
593.675	18341.27
593.878	18947.47
594.081	18480.53
594.284	18210.2
594.486	18986.38
594.689	18640.27
594.892	18240.92
595.095	18472.34
595.298	18918.79
595.5	18576.78
595.703	18820.49
595.906	18783.63
596.109	19236.23
596.311	19334.53
596.514	18240.92
596.717	19049.86
596.92	19197.32
597.122	18777.48
597.325	18625.93
597.528	18750.86
597.73	19658.11
597.933	19269
598.136	18832.78
598.338	18720.14
598.541	19279.24
598.743	19586.43
598.946	18961.8
599.148	19162.5
599.351	19867
599.554	19942.78
599.756	19242.37
599.959	19570.05
600.161	19805.56
600.363	20209.01
600.566	19279.24
600.768	19543.42
600.971	20108.66
601.173	19760.51
601.376	19297.67
601.578	19488.13
601.78	19821.95
601.983	20462.96
602.185	19301.76
602.388	19920.25
602.59	19916.15
602.792	19758.46
602.995	19891.58
603.197	19662.21
603.399	19963.26
603.601	20053.37
603.804	19510.66
604.006	19522.94
604.208	19815.8
604.41	19840.38
604.613	20170.1
604.815	19701.12
605.017	20282.74
605.219	20116.86
605.421	20282.74
605.623	19692.93
605.826	20551.03
606.028	20344.18
606.23	19977.59
606.432	19918.2
606.634	20768.11
606.836	20551.03
607.038	20051.32
607.24	20110.71
607.442	20209.01
607.644	20364.66
607.846	20221.3
608.048	19879.29
608.25	20512.11
608.452	20417.91
608.654	20102.52
608.856	19948.92
609.058	20340.08
609.26	20510.07
609.462	20290.93
609.664	20329.84
609.866	21054.83
610.067	21044.59
610.269	20618.61
610.471	20297.08
610.673	20639.09
610.875	20934
611.077	20237.69
611.278	20381.04
611.48	20491.63
611.682	20979.05
611.884	20616.56
612.085	20698.48
612.287	20471.15
612.489	20802.93
612.69	20473.2
612.892	20663.66
613.094	21089.64
613.295	20946.28
613.497	20651.38
613.699	20569.46
613.9	21476.71
614.102	21220.71
614.304	20528.5
614.505	20411.76
614.707	21345.64
614.908	20864.36
615.11	20460.91
615.311	20772.21
615.513	21333.35
615.714	21319.01
615.916	20753.77
616.117	20860.27
616.319	21351.78
616.52	21280.1
616.722	20888.94
616.923	20995.43
617.124	21529.95
617.326	20983.15
617.527	20714.86
617.729	21075.31
617.93	21607.78
618.131	21607.78
618.333	20778.35
618.534	21276.01
618.735	21194.09
618.937	21587.3
619.138	20604.27
619.339	21224.81
619.54	21521.76
619.742	21378.4
619.943	21329.25
620.144	21153.13
620.345	21693.79
620.546	21464.42
620.748	21445.99
620.949	21220.71
621.15	21581.15
621.351	21276.01
621.552	21390.69
621.753	20987.24
621.954	21112.17
622.155	21554.53
622.356	21439.84
622.558	21618.02
622.759	21833.05
622.96	22234.46
623.161	21128.55
623.362	21710.18
623.563	21906.78
623.764	21777.76
623.965	21247.33
624.166	21798.24
624.366	21546.34
624.567	21960.03
624.768	21316.97
624.969	21646.69
625.17	21716.32
625.371	21914.97
625.572	21566.82
625.773	21458.28
625.973	22185.3
626.174	22332.76
626.375	21826.91
626.576	21759.33
626.777	22150.49
626.977	22576.47
627.178	21994.84
627.379	21990.75
627.58	21990.75
627.78	21998.94
627.981	21802.33
628.182	22130.01
628.382	22054.23
628.583	21998.94
628.784	21943.64
628.984	21892.44
629.185	22453.59
629.386	22195.54
629.586	22011.23
629.787	22173.02
629.987	22598.99
630.188	22467.92
630.388	21933.4
630.589	21953.88
630.79	23045.45
630.99	22361.43
631.191	22252.89
631.391	22531.41
631.591	22422.87
631.792	22893.9
631.992	22564.18
632.193	22553.94
632.393	22648.15
632.594	22472.02
632.794	22250.84
632.994	22404.44
633.195	22734.16
633.395	22775.12
633.595	22068.57
633.796	22768.98
633.996	22633.81
634.196	22900.05
634.397	22418.77
634.597	22764.88
634.797	22570.32
634.997	23512.39
635.198	22652.24
635.398	22228.31
635.598	22818.13
635.798	23260.49
635.998	22891.85
636.199	22478.16
636.399	23045.45
636.599	22508.88
636.799	22451.54
636.999	22979.92
637.199	23123.27
637.399	23336.26
637.599	22685.01
637.799	23094.6
637.999	23086.41
638.199	23348.55
638.399	22658.38
638.599	22777.17
638.799	23465.28
638.999	23909.69
639.199	23080.27
639.399	23072.07
639.599	23811.39
639.799	22936.91
639.999	22926.67
640.199	22998.35
640.399	23123.27
640.599	22768.98
640.799	23573.83
640.998	23409.99
641.198	23749.95
641.398	23377.22
641.598	23440.71
641.798	23481.67
641.997	24399.16
642.197	23565.64
642.397	23616.83
642.597	23317.83
642.796	23577.92
642.996	23868.73
643.196	23471.43
643.395	23094.6
643.595	23680.32
643.795	23409.99
643.994	23485.76
644.194	23508.29
644.394	23762.24
644.593	23924.03
644.793	23313.73
644.992	23721.28
645.192	23860.54
645.392	23399.75
645.591	23735.62
645.791	23465.28
645.99	24302.9
646.19	23885.12
646.389	23721.28
646.589	23977.28
646.788	24440.12
646.987	23852.35
647.187	23993.66
647.386	24331.58
647.586	23999.8
647.785	24044.86
647.984	24091.96
648.184	24165.69
648.383	23917.89
648.582	23940.41
648.782	24124.73
648.981	23768.38
649.18	24024.38
649.38	24241.46
649.579	23989.56
649.778	23952.7
649.977	24433.97
650.177	24532.28
650.376	24034.62
650.575	23813.44
650.774	24714.55
650.973	24270.14
651.173	24145.21
651.372	24128.83
651.571	24544.56
651.77	24677.68
651.969	24157.5
652.168	24345.91
652.367	24368.44
652.566	24810.8
652.765	24583.48
652.964	24403.25
653.163	25046.32
653.362	24794.42
653.561	24055.1
653.76	24395.06
653.959	24782.13
654.158	24974.64
654.357	24638.77
654.556	24415.54
654.755	25081.13
654.954	24763.7
655.153	24323.38
655.352	24493.36
655.551	24982.83
655.749	24401.21
655.948	24552.76
656.147	24796.46
656.346	25019.69
656.545	24708.4
656.743	24773.94
656.942	24767.79
657.141	24837.42
657.34	24855.86
657.538	24837.42
657.737	24816.94
657.936	25136.43
658.135	25259.31
658.333	24677.68
658.532	24845.62
658.731	25609.51
658.929	25103.66
659.128	25189.67
659.326	24657.2
659.525	25621.8
659.724	25161
659.922	24876.34
660.121	24775.98
660.319	24966.45
660.518	24945.97
660.716	24890.67
660.915	24960.3
661.113	25378.09
661.312	25029.93
661.51	25410.85
661.709	25107.76
661.907	25601.32
662.105	25845.02
662.304	25122.09
662.502	25644.32
662.701	25773.35
662.899	25204.01
663.097	25443.62
663.296	25091.37
663.494	25890.08
663.692	25586.98
663.891	24991.02
664.089	25052.46
664.287	25599.27
664.485	25779.49
664.684	25029.93
664.882	25376.04
665.08	25474.34
665.278	25326.89
665.476	25339.18
665.675	25744.67
665.873	25986.33
666.071	25646.37
666.269	25212.2
666.467	25505.06
666.665	25842.98
666.863	24948.01
667.061	25730.34
667.259	25353.51
667.457	25720.1
667.655	26029.34
667.853	25175.34
668.051	25316.65
668.249	25672.99
668.447	25804.06
668.645	25251.11
668.843	25752.87
669.041	25738.53
669.239	25214.25
669.437	25400.62
669.635	25447.72
669.833	25421.09
670.031	25779.49
670.229	25378.09
670.426	25429.29
670.624	25726.24
670.822	25490.73
671.02	25281.83
671.218	25533.73
671.415	25750.82
671.613	25552.16
671.811	25460.01
672.009	25361.7
672.206	25972
672.404	25480.49
672.602	25672.99
672.799	25644.32
672.997	25763.11
673.195	25847.07
673.392	25701.67
673.59	25257.26
673.788	25701.67
673.985	25095.47
674.183	25408.81
674.38	25474.34
674.578	26139.93
674.775	25548.07
674.973	25161
675.17	25402.66
675.368	26094.88
675.565	26105.12
675.763	25392.42
675.96	25382.18
676.158	26502.42
676.355	25419.05
676.553	25625.89
676.75	25668.9
676.947	25689.38
677.145	25814.3
677.342	25679.14
677.539	25308.46
677.737	25787.68
677.934	26219.8
678.131	25699.62
678.329	25466.15
678.526	25732.39
678.723	26252.57
678.92	25709.86
679.118	25314.6
679.315	25509.16
679.512	25955.61
679.709	25543.97
679.906	25345.32
680.104	26029.34
680.301	25986.33
680.498	25115.95
680.695	25337.13
680.892	25591.08
681.089	25752.87
681.286	25726.24
681.483	24950.06
681.68	25795.87
681.877	26064.16
682.075	25570.6
682.272	25791.78
682.469	25521.45
682.665	25582.88
682.862	25251.11
683.059	25144.62
683.256	25732.39
683.453	25693.47
683.65	25668.9
683.847	25201.96
684.044	25842.98
684.241	25095.47
684.438	25576.74
684.635	25185.58
684.831	26058.01
685.028	25933.09
685.225	25345.32
685.422	25384.23
685.619	25304.36
685.815	25371.94
686.012	25228.59
686.209	25122.09
686.405	25345.32
686.602	25890.08
686.799	25122.09
686.996	25353.51
687.192	24966.45
687.389	25867.55
687.586	24978.73
687.782	25118
687.979	25853.22
688.175	25605.41
688.372	25478.44
688.568	25531.69
688.765	25216.3
688.962	25859.36
689.158	25249.07
689.355	25283.88
689.551	25406.76
689.748	25136.43
689.944	25273.64
690.14	25167.15
690.337	25943.33
690.533	25345.32
690.73	25171.24
690.926	25541.92
691.123	25482.53
691.319	25054.51
691.515	24988.97
691.712	25208.11
691.908	25371.94
692.104	25447.72
692.301	25496.87
692.497	24775.98
692.693	25566.5
692.889	25580.84
693.086	25261.35
693.282	25156.91
693.478	25226.54
693.674	25675.04
693.87	24966.45
694.067	25130.28
694.263	25261.35
694.459	25232.68
694.655	25120.04
694.851	25333.03
695.047	25386.28
695.243	25431.33
695.439	25462.05
695.635	24771.89
695.831	24993.07
696.027	25361.7
696.224	25128.24
696.42	25574.69
696.615	25707.81
696.811	25449.77
697.007	24870.19
697.203	24919.34
697.399	25277.74
697.595	25257.26
697.791	24939.82
697.987	25077.04
698.183	25077.04
698.379	25179.43
698.575	25017.64
698.77	24925.49
698.966	25384.23
699.162	25464.1
699.358	24880.43
699.554	24792.37
699.749	25378.09
699.945	25193.77
700.141	25066.8
700.337	24829.23
700.532	25140.52
700.728	24821.04
700.924	24603.96
701.119	24712.5
701.315	25091.37
701.511	24825.14
701.706	24747.31
701.902	24309.05
702.097	25138.48
702.293	24755.5
702.489	24683.83
702.684	24868.14
702.88	25132.33
703.075	24958.25
703.271	24581.43
703.466	24718.64
703.662	24905.01
703.857	25171.24
704.053	24778.03
704.248	24882.48
704.443	25136.43
704.639	25365.8
704.834	25048.36
705.03	24579.38
705.225	25275.69
705.42	25296.17
705.616	24831.28
705.811	24614.2
706.006	25113.9
706.202	24921.39
706.397	24976.69
706.592	24859.95
706.787	24993.07
706.983	24638.77
707.178	25261.35
707.373	24802.61
707.568	25150.76
707.763	25019.69
707.959	24710.45
708.154	24646.96
708.349	24980.78
708.544	24941.87
708.739	24425.78
708.934	24554.8
709.129	24847.66
709.324	25021.74
709.519	24395.06
709.714	24761.65
709.909	25175.34
710.104	24935.73
710.299	24286.52
710.494	24536.37
710.689	24880.43
710.884	25124.14
711.079	24917.29
711.274	24507.7
711.469	25034.03
711.664	25109.8
711.859	24524.08
712.054	24708.4
712.249	24798.51
712.443	25072.94
712.638	24440.12
712.833	24509.75
713.028	24780.08
713.223	24571.19
713.417	24841.52
713.612	24642.87
713.807	24540.47
714.002	25531.69
714.196	24765.74
714.391	24085.82
714.586	25003.31
714.78	24692.02
714.975	24372.53
715.17	24292.66
715.364	24790.32
715.559	24859.95
715.754	24012.09
715.948	23891.26
716.143	24845.62
716.337	24497.46
716.532	24769.84
716.726	24624.43
716.921	24802.61
717.115	25290.02
717.31	23993.66
717.504	24802.61
717.699	24618.29
717.893	24857.9
718.088	24235.32
718.282	24286.52
718.476	24489.27
718.671	24546.61
718.865	24128.83
719.059	24151.35
719.254	24388.92
719.448	24681.78
719.642	25367.85
719.837	23780.67
720.031	24286.52
720.225	24163.64
720.419	23995.71
720.614	23555.4
720.808	24448.31
721.002	24118.59
721.196	24098.11
721.39	23975.23
721.585	24511.8
721.779	24472.89
721.973	23670.08
722.167	23475.52
722.361	24065.34
722.555	24421.69
722.749	23788.86
722.943	23500.1
723.137	23758.14
723.331	24362.29
723.525	23694.66
723.719	23663.94
723.913	24251.7
724.107	24417.59
724.301	23600.45
724.495	23803.2
724.689	24382.77
724.883	24325.43
725.077	23760.19
725.271	23647.55
725.465	24180.03
725.659	24204.6
725.853	23622.98
726.046	23586.11
726.24	23618.88
726.434	24204.6
726.628	23555.4
726.822	23584.07
727.015	24491.32
727.209	24112.44
727.403	23541.06
727.596	23860.54
727.79	24032.57
727.984	24327.48
728.177	23754.05
728.371	23766.34
728.565	24315.19
728.758	24012.09
728.952	23508.29
729.146	23573.83
729.339	24036.67
729.533	23770.43
729.726	23799.1
729.92	23526.72
730.113	24495.41
730.307	23747.9
730.5	23612.74
730.694	23752
730.887	23948.61
731.081	24227.13
731.274	23434.57
731.468	23934.27
731.661	23936.32
731.854	23999.8
732.048	23846.21
732.241	23565.64
732.435	23887.17
732.628	24175.93
732.821	23815.49
733.014	23790.91
733.208	23928.13
733.401	24147.26
733.594	23534.92
733.788	23338.31
733.981	24319.29
734.174	24151.35
734.367	23561.54
734.56	23909.69
734.754	24130.87
734.947	24161.59
735.14	23780.67
735.333	24016.19
735.526	24591.67
735.719	23878.97
735.912	23426.37
736.105	23491.91
736.298	24130.87
736.491	23702.85
736.684	23766.34
736.877	23639.36
737.07	23866.69
737.263	24124.73
737.456	23700.8
737.649	23346.5
737.842	23604.55
738.035	24094.01
738.228	23453
738.421	23672.13
738.614	24175.93
738.807	24263.99
739	23328.07
739.192	23166.28
739.385	23713.09
739.578	24218.94
739.771	23612.74
739.964	23639.36
740.156	23899.45
740.349	23498.05
740.542	24042.81
740.735	23248.2
740.927	23610.69
741.12	23498.05
741.313	23453
741.505	24003.9
741.698	23842.11
741.891	23788.86
742.083	23805.25
742.276	23727.42
742.468	23803.2
742.661	23547.2
742.854	23172.43
743.046	23401.8
743.239	24036.67
743.431	24116.54
743.624	23612.74
743.816	23197
744.009	23829.82
744.201	24008
744.393	23723.33
744.586	23151.95
744.778	24073.53
744.971	23649.6
745.163	23389.51
745.355	23434.57
745.548	23526.72
745.74	23557.44
745.932	23514.44
746.125	23366.98
746.317	24167.74
746.509	23670.08
746.702	23104.84
746.894	23467.33
747.086	23641.41
747.278	24008
747.471	23532.87
747.663	23399.75
747.855	23387.46
748.047	23799.1
748.239	23151.95
748.431	23250.25
748.623	24180.03
748.815	23768.38
749.008	23235.91
749.2	23422.28
749.392	23641.41
749.584	23582.02
749.776	23319.88
749.968	23080.27
750.16	24012.09
750.352	23272.78
750.544	23434.57
750.736	23018.83
750.928	23532.87
751.12	23266.63
751.311	22885.71
751.503	23242.06
751.695	23389.51
751.887	22979.92
752.079	22795.6
752.271	22867.28
752.463	24061.24
752.654	23491.91
752.846	22953.29
753.038	23000.4
753.23	22818.13
753.421	23299.4
753.613	22783.31
753.805	23197
753.997	23156.04
754.188	23160.14
754.38	22580.56
754.572	22875.47
754.763	23213.38
754.955	23057.74
755.146	22723.92
755.338	22965.58
755.53	23194.95
755.721	22959.44
755.913	22361.43
756.104	22410.58
756.296	23043.4
756.487	23272.78
756.679	22795.6
756.87	22316.37
757.062	22697.3
757.253	23043.4
757.445	22375.77
757.636	22748.5
757.827	22715.73
758.019	23477.57
758.21	22447.44
758.401	22472.02
758.593	23137.61
758.784	22961.48
758.975	22265.17
759.167	22371.67
759.358	22619.47
759.549	22685.01
759.74	22506.84
759.932	22330.71
760.123	22644.05
760.314	22273.37
760.505	22326.61
760.696	22431.06
760.888	22906.19
761.079	22203.74
761.27	22000.99
761.461	22130.01
761.652	22760.78
761.843	21919.07
762.034	22060.38
762.225	22226.26
762.416	22373.72
762.607	22314.33
762.798	21900.64
762.989	21966.17
763.18	23082.31
763.371	22164.82
763.562	21986.65
763.753	21894.49
763.944	22332.76
764.135	22482.26
764.326	21927.26
764.517	21988.7
764.708	21984.6
764.899	22148.44
765.089	21572.96
765.28	21648.74
765.471	22115.67
765.662	22130.01
765.853	21751.13
766.043	21251.43
766.234	22127.96
766.425	22306.13
766.615	21736.8
766.806	21468.52
766.997	22271.32
767.187	21648.74
767.378	21642.59
767.569	21312.87
767.759	21912.92
767.95	21650.78
768.141	21677.41
768.331	21630.3
768.522	21579.11
768.712	21837.15
768.903	21699.94
769.093	21048.68
769.284	21951.84
769.474	21652.83
769.665	20759.92
769.855	21126.5
770.046	21747.04
770.236	21273.96
770.426	21513.57
770.617	20960.62
770.807	21636.45
770.998	21452.13
771.188	21153.13
771.378	21151.08
771.569	21564.77
771.759	21587.3
771.949	20606.32
772.139	20944.24
772.33	21146.98
772.52	21814.62
772.71	20991.34
772.9	20379
773.09	21622.11
773.281	21538.15
773.471	21259.62
773.661	20897.13
773.851	21341.54
774.041	21093.74
774.231	20673.9
774.421	21101.93
774.611	21343.59
774.802	20917.61
774.992	20602.22
775.182	20792.69
775.372	20903.28
775.562	21276.01
775.752	20802.93
775.942	20630.9
776.131	21370.21
776.321	20890.99
776.511	20684.14
776.701	20600.18
776.891	20989.29
777.081	20634.99
777.271	20477.3
777.461	20698.48
777.651	21015.91
777.84	20864.36
778.03	20682.1
778.22	20223.35
778.41	20905.32
778.599	20313.46
778.789	20288.89
778.979	20389.24
779.169	20989.29
779.358	20725.1
779.548	20559.22
779.738	19918.2
779.927	20643.18
780.117	20385.14
780.307	19950.97
780.496	19862.91
780.686	20559.22
780.875	20702.57
781.065	19998.07
781.254	20012.41
781.444	20002.17
781.633	20342.13
781.823	19830.14
782.012	20008.31
782.202	20368.76
782.391	20084.09
782.581	19912.06
782.77	20284.79
782.96	20532.59
783.149	20354.42
783.338	19748.22
783.528	19744.13
783.717	20096.38
783.906	20374.9
784.096	19656.06
784.285	19907.96
784.474	19973.5
784.663	20092.28
784.853	19545.47
785.042	19627.39
785.231	19977.59
785.42	20223.35
785.61	19998.07
785.799	19152.26
785.988	19912.06
786.177	20016.51
786.366	19639.68
786.555	19793.28
786.744	19819.9
786.933	19553.66
787.122	19537.28
787.312	19555.71
787.501	19606.91
787.69	19819.9
787.879	19402.11
788.068	19275.14
788.257	19182.98
788.445	19486.08
788.634	19195.27
788.823	19148.17
789.012	20184.44
789.201	19647.87
789.39	18951.56
789.579	19408.26
789.768	19326.34
789.957	19568
790.145	19369.35
790.334	19010.95
790.523	19219.85
790.712	19465.6
790.9	19148.17
791.089	18736.52
791.278	19404.16
791.467	19246.47
791.655	19357.06
791.844	19412.35
792.033	19035.53
792.221	19191.17
792.41	19092.87
792.599	18490.77
792.787	19203.46
792.976	19469.7
793.164	18769.29
793.353	18906.51
793.541	19389.83
793.73	19412.35
793.918	18840.97
794.107	18804.11
794.295	19137.93
794.484	19236.23
794.672	18627.98
794.861	18947.47
795.049	19039.62
795.238	19436.93
795.426	18871.69
795.614	18791.82
795.803	19092.87
795.991	19350.92
796.179	18529.68
796.368	18541.97
796.556	19019.14
796.744	18531.73
796.932	18435.47
797.121	18480.53
797.309	18808.2
797.497	19107.21
797.685	18814.35
797.874	18818.44
798.062	18972.04
798.25	18924.94
798.438	18570.64
798.626	18466.19
798.814	19004.81
799.002	19428.74
799.19	18560.4
799.378	18822.54
799.566	19275.14
799.755	19006.86
799.943	18654.61
800.131	18800.01
800.318	18804.11
800.506	19068.3
800.694	18523.54
800.882	18695.57
801.07	19185.03
801.258	18668.94
801.446	18658.7
801.634	18646.41
801.822	18910.6
802.01	19017.1
802.197	18910.6
802.385	18769.29
802.573	18871.69
802.761	18847.12
802.949	18857.35
803.136	18683.28
803.324	19248.52
803.512	19088.78
803.699	18447.76
803.887	18533.78
804.075	19557.76
804.262	18969.99
804.45	18607.5
804.638	18781.58
804.825	18765.2
805.013	18900.36
805.201	18910.6
805.388	18486.67
805.576	19008.9
805.763	19645.82
805.951	18781.58
806.138	19127.69
806.326	19574.14
806.513	18953.61
806.701	18949.51
806.888	18828.68
807.075	19451.27
807.263	19854.72
807.45	19015.05
807.638	18992.52
807.825	19805.56
808.012	19117.45
808.2	19221.89
808.387	19254.66
808.574	19285.38
808.761	19668.35
808.949	19019.14
809.136	19125.64
809.323	19164.55
809.51	19547.52
809.698	19551.62
809.885	19086.73
810.072	19606.91
810.259	19938.68
810.446	19398.02
810.633	19228.04
810.82	19895.68
811.008	19776.89
811.195	19541.38
811.382	19338.63
811.569	19498.37
811.756	19217.8
811.943	19328.39
812.13	19297.67
812.317	19162.5
812.504	19541.38
812.691	19223.94
812.878	19465.6
813.064	19666.3
813.251	19520.9
813.438	19142.02
813.625	19252.61
813.812	19365.25
813.999	19568
814.186	19385.73
814.372	19336.58
814.559	19568
814.746	19672.45
814.933	19246.47
815.12	19522.94
815.306	19314.05
815.493	19244.42
815.68	19391.87
815.866	19389.83
816.053	19813.76
816.24	19834.24
816.426	19785.08
816.613	19305.86
816.799	19533.18
816.986	19862.91
817.173	19314.05
817.359	19056.01
817.546	19631.49
817.732	19152.26
817.919	19166.6
818.105	19350.92
818.292	19213.7
818.478	19520.9
818.665	19320.2
818.851	19418.5
819.037	19846.52
819.224	19338.63
819.41	18740.62
819.597	18867.59
819.783	19737.98
819.969	19760.51
820.156	18998.66
820.342	19049.86
820.528	20321.65
820.714	19359.11
820.901	19426.69
821.087	18883.98
821.273	19553.66
821.459	19238.28
821.646	18865.55
821.832	18812.3
822.018	19477.89
822.204	19217.8
822.39	19004.81
822.576	18824.59
822.762	19060.1
822.948	19125.64
823.134	18875.79
823.32	18746.76
823.507	18857.35
823.693	19113.35
823.879	19031.43
824.065	18912.65
824.25	19015.05
824.436	18840.97
824.622	18806.16
824.808	18838.92
824.994	19000.71
825.18	18636.17
825.366	18519.44
825.552	18636.17
825.738	19182.98
825.923	19000.71
826.109	18935.18
826.295	18435.47
826.481	18453.91
826.667	18666.89
826.852	18742.67
827.038	18453.91
827.224	19162.5
827.409	19148.17
827.595	18412.95
827.781	18296.21
827.966	19039.62
828.152	18677.13
828.338	18429.33
828.523	18179.48
828.709	18281.88
828.894	18857.35
829.08	18337.17
829.266	18359.7
829.451	18433.43
829.637	18505.1
829.822	17970.58
830.008	17892.76
830.193	18322.84
830.378	18507.15
830.564	18560.4
830.749	17890.71
830.935	18558.35
831.12	18445.71
831.305	18034.07
831.491	18242.96
831.676	18052.5
831.861	18343.31
832.047	17921.43
832.232	17759.64
832.417	18218.39
832.602	17966.49
832.788	18138.52
832.973	17724.83
833.158	18130.33
833.343	17802.65
833.528	18052.5
833.714	17765.79
833.899	18029.98
834.084	18398.61
834.269	17935.77
834.454	17563.04
834.639	18118.04
834.824	17747.36
835.009	17851.8
835.194	17800.6
835.379	18204.05
835.564	18236.82
835.749	17839.51
835.934	17444.26
836.119	17937.82
836.304	17540.51
836.489	17472.93
836.674	17548.7
836.859	17448.35
837.044	17704.35
837.228	17560.99
837.413	17106.34
837.598	17937.82
837.783	17687.96
837.968	17235.36
838.152	17057.19
838.337	17296.8
838.522	17730.97
838.707	17894.81
838.891	17528.22
839.076	17458.59
839.261	17702.3
839.445	16993.7
839.63	17149.35
839.815	17831.32
839.999	17175.97
840.184	16975.27
840.368	17026.47
840.553	17552.8
840.737	17350.05
840.922	17046.95
841.106	16899.5
841.291	16977.32
841.475	17417.63
841.66	16801.19
841.844	16885.16
842.029	17958.3
842.213	16891.3
842.397	16614.83
842.582	16594.35
842.766	17380.77
842.951	17196.45
843.135	16752.04
843.319	16729.52
843.504	16827.82
843.688	17149.35
843.872	16803.24
844.056	16522.67
844.241	17229.22
844.425	16864.68
844.609	16659.88
844.793	16315.83
844.977	17307.04
845.161	17012.14
845.346	16375.22
845.53	16526.77
845.714	16688.56
845.898	17202.6
846.082	16104.88
846.266	16405.94
846.45	16532.91
846.634	16604.59
846.818	16639.4
847.002	16762.28
847.186	16993.7
847.37	16569.77
847.554	16135.6
847.738	16213.43
847.922	16373.17
848.106	16739.76
848.29	16367.02
848.473	16250.29
848.657	16731.56
848.841	16651.69
849.025	16174.52
849.209	15984.05
849.392	16446.9
849.576	16537.01
849.76	15736.25
849.944	16199.09
850.127	16737.71
850.311	15947.19
850.495	15619.52
850.678	15721.91
850.862	16610.73
851.046	16653.74
851.229	16076.21
851.413	15949.24
851.596	15979.96
851.78	16141.75
851.964	16281.01
852.147	15574.46
852.331	16958.89
852.514	16469.42
852.698	15742.39
852.881	15721.91
853.065	15891.9
853.248	16006.58
853.431	15885.75
853.615	15640
853.798	16489.9
853.982	16051.64
854.165	15920.57
854.348	15795.64
854.532	15908.28
854.715	15742.39
854.898	15691.2
855.081	15467.97
855.265	15734.2
855.448	16338.35
855.631	15416.77
855.814	15381.95
855.997	16180.66
856.181	15662.52
856.364	15416.77
856.547	15189.44
856.73	15754.68
856.913	15564.22
857.096	15365.57
857.279	15441.34
857.462	15500.73
857.645	15916.47
857.828	15400.38
858.011	15410.62
858.194	15246.79
858.377	15517.12
858.56	14906.82
858.743	15197.63
858.926	15111.62
859.109	15633.85
859.292	15005.13
859.475	14982.6
859.658	15717.82
859.841	15560.13
860.023	14888.39
860.206	14962.12
860.389	15572.41
860.572	15455.68
860.755	14882.25
860.937	15283.65
861.12	15158.72
861.303	15318.46
861.486	14874.06
861.668	14747.08
861.851	15189.44
862.034	15171.01
862.216	14796.23
862.399	14624.2
862.581	15105.48
862.764	15207.87
862.947	14829
863.129	14562.76
863.312	14548.43
863.494	15160.77
863.677	14802.38
863.859	14427.6
864.042	15062.47
864.224	15013.32
864.406	14699.98
864.589	14024.15
864.771	14792.14
864.954	14470.61
865.136	14269.9
865.318	14009.81
865.501	14513.61
865.683	13940.18
865.865	14622.16
866.048	14247.38
866.23	14345.68
866.412	14501.33
866.594	13952.47
866.777	14286.29
866.959	14532.04
867.141	14116.31
867.323	14247.38
867.505	14296.53
867.687	14243.28
867.869	14382.54
868.052	13958.61
868.234	14013.91
868.416	14296.53
868.598	14478.8
868.78	13907.41
868.962	14130.64
869.144	14513.61
869.326	14509.52
869.508	14003.67
869.69	13968.85
869.872	14048.72
870.054	14544.33
870.236	13841.88
870.417	13829.59
870.599	13950.42
870.781	14550.48
870.963	14009.81
871.145	14038.48
871.327	13620.7
871.508	14368.21
871.69	13915.61
871.872	13796.82
872.054	14237.14
872.235	14423.5
872.417	13901.27
872.599	13628.89
872.78	14489.04
872.962	14261.71
873.144	13696.47
873.325	13809.11
873.507	14527.95
873.689	14151.12
873.87	13888.98
874.052	14083.54
874.233	14153.17
874.415	14421.45
874.596	13860.31
874.778	13825.5
874.959	14108.12
875.141	14403.02
875.322	13878.74
875.503	13858.26
875.685	14274
875.866	13596.12
876.048	13688.28
876.229	13837.78
876.41	14087.64
876.592	14374.35
876.773	13960.66
876.954	13733.34
877.136	14644.68
877.317	13942.23
877.498	13815.26
877.679	14116.31
877.86	14345.68
878.042	14288.34
878.223	13759.96
878.404	14140.88
878.585	14339.54
878.766	14783.95
878.947	14405.07
879.128	14247.38
879.309	14613.96
879.49	14685.64
879.672	14233.04
879.853	14235.09
880.034	13931.99
880.215	14335.44
880.396	14304.72
880.576	13866.46
880.757	14300.62
880.938	14788.04
881.119	14194.13
881.3	14243.28
881.481	14368.21
881.662	15416.77
881.843	14384.59
882.023	14042.58
882.204	14880.2
882.385	14648.78
882.566	14181.84
882.747	14431.69
882.927	14777.8
883.108	14650.83
883.289	14288.34
883.469	14865.86
883.65	14673.35
883.831	14638.54
884.011	14386.64
884.192	14521.81
884.373	15013.32
884.553	14880.2
884.734	14546.38
884.914	14771.66
885.095	15359.42
885.275	15279.55
885.456	14898.63
885.636	14388.69
885.817	14980.55
885.997	14777.8
886.178	14564.81
886.358	14845.38
886.538	14984.65
886.719	16047.54
886.899	14833.1
887.08	14716.36
887.26	15240.64
887.44	14699.98
887.621	14685.64
887.801	14955.97
887.981	15691.2
888.161	15300.03
888.342	14929.35
888.522	14941.64
888.702	15244.74
888.882	15388.1
889.062	15097.28
889.242	14501.33
889.423	15400.38
889.603	15340.99
889.783	15132.1
889.963	14888.39
890.143	15308.23
890.323	15834.55
890.503	14837.19
890.683	15003.08
890.863	15142.34
891.043	15326.66
891.223	15220.16
891.403	15019.46
891.583	15240.64
891.763	15279.55
891.943	15011.27
892.122	14853.58
892.302	15424.96
892.482	15328.7
892.662	15222.21
892.842	15123.91
893.022	15240.64
893.201	15146.44
893.381	15257.03
893.561	15054.28
893.741	15570.37
893.92	15351.23
894.1	15138.24
894.28	15138.24
894.459	15414.72
894.639	15553.98
894.819	15148.48
894.998	15123.91
895.178	15517.12
895.357	15379.9
895.537	14849.48
895.716	15103.43
895.896	15162.82
896.075	15410.62
896.255	15150.53
896.434	14874.06
896.614	15527.36
896.793	15070.66
896.973	14996.93
897.152	15048.13
897.331	15228.35
897.511	15429.06
897.69	14988.74
897.87	14982.6
898.049	15259.07
898.228	15427.01
898.407	15146.44
898.587	15080.9
898.766	14896.58
898.945	15283.65
899.124	15085
899.304	15027.65
899.483	15308.23
899.662	15478.21
899.841	14718.41
900.02	14720.46
900.199	15367.62
900.378	15211.97
900.557	14835.14
900.737	14560.72
900.916	15095.24
901.095	15218.11
901.274	15054.28
901.453	14587.34
901.632	14644.68
901.811	14630.35
901.989	14462.41
902.168	14480.85
902.347	15369.66
902.526	14890.44
902.705	14353.87
902.884	14763.47
903.063	15259.07
903.242	15099.33
903.42	14421.45
903.599	14783.95
903.778	14941.64
903.957	15308.23
904.135	14693.83
904.314	14599.63
904.493	14816.71
904.672	14882.25
904.85	14134.74
905.029	14489.04
905.207	14788.04
905.386	15248.83
905.565	14075.35
905.743	14210.51
905.922	14257.62
906.1	14468.56
906.279	14138.83
906.457	14216.66
906.636	14298.58
906.814	14443.98
906.993	14140.88
907.171	14149.07
907.35	14556.62
907.528	14411.21
907.707	14337.49
907.885	14126.55
908.063	14378.45
908.242	14112.21
908.42	14038.48
908.598	13751.77
908.777	14288.34
908.955	13770.2
909.133	14128.6
909.311	13563.36
909.49	13829.59
909.668	13921.75
909.846	13536.73
910.024	13370.85
910.202	14028.24
910.38	14104.02
910.559	13487.58
910.737	13260.26
910.915	13587.93
911.093	13934.04
911.271	13522.4
911.449	13632.99
911.627	13663.71
911.805	13938.13
911.983	13422.05
912.161	13608.41
912.339	13731.29
912.517	13723.1
912.695	13499.87
912.872	13098.47
913.05	13561.31
913.228	13737.43
913.406	13211.11
913.584	13125.09
913.762	13692.38
913.939	13229.54
914.117	12985.83
914.295	13116.9
914.473	13395.42
914.65	13039.08
914.828	12897.77
915.006	12654.06
915.184	12756.46
915.361	13241.82
915.539	12985.83
915.716	13274.59
915.894	13131.23
916.072	13204.96
916.249	12920.29
916.427	12924.39
916.604	12697.06
916.782	13067.75
916.959	12459.5
917.137	12502.51
917.314	12805.61
917.492	13014.5
917.669	12428.78
917.847	12690.92
918.024	12574.19
918.201	12490.22
918.379	12457.45
918.556	12262.9
918.733	12760.55
918.911	12479.98
919.088	12625.39
919.265	12285.42
919.442	12449.26
919.62	12023.28
919.797	12047.86
919.974	12109.3
920.151	12463.6
920.328	12213.74
920.506	11984.37
920.683	12246.51
920.86	11939.32
921.037	12035.57
921.214	11720.18
921.391	11574.78
921.568	12203.5
921.745	11652.6
921.922	11793.91
922.099	11484.67
922.276	11957.75
922.453	11875.83
922.63	11675.13
922.807	11836.92
922.984	11867.64
923.161	11550.2
923.338	11736.57
923.514	11286.01
923.691	11716.09
923.868	11777.53
924.045	11386.36
924.222	11087.36
924.399	11402.75
924.575	11513.34
924.752	11206.14
924.929	11281.92
925.105	11482.62
925.282	10901
925.459	11064.83
925.635	10948.1
925.812	11163.14
925.989	10814.98
926.165	10876.42
926.342	10696.2
926.518	10769.93
926.695	10939.91
926.871	10550.79
927.048	10442.25
927.224	11097.6
927.401	10753.54
927.577	10505.74
927.754	10286.61
927.93	10937.86
928.107	10649.1
928.283	10184.21
928.459	10591.75
928.636	10550.79
928.812	10454.54
928.988	10042.9
929.165	9883.16
929.341	10239.5
929.517	10561.03
929.693	10286.61
929.87	9584.15
930.046	10253.84
930.222	10049.04
930.398	9672.22
930.574	10036.75
930.751	10026.51
930.927	9659.93
931.103	9774.61
931.279	9623.06
931.455	9657.88
931.631	9834
931.807	9348.64
931.983	9397.79
932.159	9233.95
932.335	9602.58
932.511	9379.36
932.687	9188.89
932.863	9217.57
933.039	9143.84
933.215	8988.19
933.391	8898.08
933.566	9068.06
933.742	9066.02
933.918	8646.18
934.094	8654.37
934.27	9045.54
934.445	8861.22
934.621	8564.26
934.797	8533.54
934.973	8586.79
935.148	8451.63
935.324	8164.91
935.5	7861.81
935.675	8412.71
935.851	8089.14
936.027	7853.62
936.202	7757.36
936.378	7892.53
936.553	7646.77
936.729	7931.44
936.904	7231.04
937.08	6934.08
937.255	7120.45
937.431	6862.4
937.606	6854.21
937.782	6977.09
937.957	7034.43
938.133	6669.89
938.308	6395.47
938.483	6573.64
938.659	6434.38
938.834	6211.15
939.009	6207.05
939.185	6264.4
939.36	5805.65
939.535	5494.36
939.71	5805.65
939.886	6350.41
940.061	6133.33
940.236	5686.87
940.411	5531.22
940.586	5768.79
940.761	5865.04
940.937	5416.54
941.112	5262.94
941.287	5566.04
941.462	5469.78
941.637	5097.05
941.812	5183.07
941.987	5455.45
942.162	5211.74
942.337	4925.02
942.512	4970.08
942.687	5351
942.862	5158.49
943.037	4654.69
943.212	4439.65
943.386	4855.39
943.561	4879.97
943.736	4773.47
943.911	5142.11
944.086	4896.35
944.26	5031.52
944.435	4646.5
944.61	4839.01
944.785	5201.5
944.959	5197.4
945.134	4646.5
945.309	4494.95
945.483	4615.78
945.658	5072.48
945.833	4179.56
946.007	4484.71
946.182	5119.58
946.357	4343.4
946.531	4413.03
946.706	4433.51
946.88	4376.17
947.055	4742.75
947.229	4505.19
947.404	4470.37
947.578	5023.33
947.752	4501.09
947.927	4433.51
948.101	4413.03
948.276	4781.67
948.45	4851.3
948.624	4628.07
948.799	4275.82
948.973	4834.91
949.147	4621.92
949.321	4531.81
949.496	4595.3
949.67	5037.66
949.844	4517.48
950.018	4693.6
950.193	4509.29
950.367	5189.21
950.541	4783.71
950.715	4671.08
950.889	4779.62
951.063	4703.84
951.237	4972.13
951.411	4404.84
951.585	4466.28
951.759	5027.42
951.933	4832.86
952.107	4648.55
952.281	4546.15
952.455	5006.94
952.629	5017.18
952.803	4634.21
952.977	4511.33
953.151	5027.42
953.325	4865.63
953.499	4748.9
953.672	4322.92
953.846	4583.01
954.02	4693.6
954.194	4478.57
954.368	4453.99
954.541	4978.27
954.715	4669.03
954.889	4548.2
955.062	4441.7
955.236	4910.69
955.41	4716.13
955.583	4617.83
955.757	4288.11
955.93	4439.65
956.104	4361.83
956.278	4488.81
956.451	4562.53
956.625	4718.18
956.798	5174.88
956.972	4621.92
957.145	4220.52
957.319	4556.39
957.492	4660.84
957.665	4613.73
957.839	4382.31
958.012	4681.32
958.185	4540.01
958.359	4456.04
958.532	4623.97
958.705	4656.74
958.879	4699.75
959.052	4312.68
959.225	4093.55
959.398	4523.62
959.572	4533.86
959.745	4347.5
959.918	4435.56
960.091	4603.49
960.264	4587.11
960.438	4210.28
960.611	4114.03
960.784	4734.56
960.957	4511.33
961.13	4560.49
961.303	4339.3
961.476	4435.56
961.649	4617.83
961.822	4167.28
961.995	4363.88
962.168	4662.88
962.341	4453.99
962.514	4279.91
962.686	4146.8
962.859	4626.02
963.032	4572.77
963.205	4161.13
963.378	3985.01
963.551	4580.96
963.723	4382.31
963.896	4191.85
964.069	4372.07
964.242	4355.69
964.414	4589.16
964.587	4165.23
964.76	4320.87
964.932	4359.78
965.105	4376.17
965.278	4150.89
965.45	4202.09
965.623	4392.55
965.795	4564.58
965.968	4068.97
966.14	4077.16
966.313	4220.52
966.485	4540.01
966.658	4089.45
966.83	4075.12
967.003	4576.87
967.175	4630.12
967.348	4052.59
967.52	4025.97
967.692	4687.46
967.865	4312.68
968.037	4013.68
968.209	4245.1
968.382	4286.06
968.554	4449.89
968.726	4124.27
968.898	3999.34
969.071	4396.65
969.243	4441.7
969.415	4163.18
969.587	4224.62
969.759	4724.32
969.932	4462.18
970.104	3989.1
970.276	3745.39
970.448	4073.07
970.62	4079.21
970.792	4034.16
970.964	3909.23
971.136	4503.14
971.308	4183.66
971.48	3980.91
971.652	3831.41
971.824	4462.18
971.996	3987.05
972.168	3847.79
972.339	3866.22
972.511	4253.29
972.683	4101.74
972.855	3976.81
973.027	3786.35
973.199	4130.41
973.37	4161.13
973.542	3819.12
973.714	3907.18
973.886	4116.08
974.057	4410.98
974.229	3663.47
974.401	3831.41
974.572	3800.69
974.744	3430.01
974.915	3638.9
975.087	3792.5
975.259	4232.81
975.43	3675.76
975.602	3675.76
975.773	3729.01
975.945	3630.71
976.116	4116.08
976.288	3524.21
976.459	3997.29
976.63	3788.4
976.802	4048.49
976.973	3622.52
977.145	3757.68
977.316	4337.26
977.487	3954.29
977.659	3708.53
977.83	3782.26
978.001	4275.82
978.172	4009.58
978.344	3569.27
978.515	3624.56
978.686	3716.72
978.857	4148.84
979.028	3565.17
979.2	3417.72
979.371	4114.03
979.542	3763.83
979.713	3815.02
979.884	3090.04
980.055	3507.83
980.226	3548.79
980.397	3364.47
980.568	3464.82
980.739	4021.87
980.91	3712.63
981.081	3663.47
981.252	3397.24
981.423	3755.63
981.594	3843.7
981.765	3470.97
981.936	3528.31
982.106	3720.82
982.277	3901.04
982.448	3294.84
982.619	3714.67
982.79	3522.16
982.96	3683.95
983.131	3292.79
983.302	3145.34
983.472	3452.53
983.643	3634.8
983.814	3511.93
983.984	3319.42
984.155	3462.77
984.326	3765.87
984.496	3495.54
984.667	3245.69
984.837	3464.82
985.008	3896.94
985.178	3495.54
985.349	3350.14
985.519	3421.81
985.69	3245.69
985.86	3339.9
986.031	3204.73
986.201	3489.4
986.371	3483.25
986.542	3001.98
986.712	2924.16
986.882	3571.32
987.053	3395.19
987.223	3096.19
987.393	3241.59
987.563	3286.65
987.734	3565.17
987.904	3382.9
988.074	3100.28
988.244	3585.65
988.414	3339.9
988.585	3028.6
988.755	3249.79
988.925	3231.35
989.095	3733.11
989.265	2944.64
989.435	3104.38
989.605	3487.35
989.775	3403.38
989.945	3253.88
990.115	2918.01
990.285	3184.25
990.455	3307.13
990.625	2938.49
990.795	2733.7
990.965	3606.13
991.134	3036.8
991.304	2844.29
991.474	3065.47
991.644	3208.83
991.814	3511.93
991.984	2823.81
992.153	2764.42
992.323	3114.62
992.493	3188.35
992.662	2651.78
992.832	3038.84
993.002	3131
993.171	3264.12
993.341	2766.46
993.511	2918.01
993.68	2938.49
993.85	3176.06
994.019	2760.32
994.189	2676.35
994.358	3110.52
994.528	2868.86
994.697	2533
994.867	2643.59
995.036	3065.47
995.206	3010.17
995.375	2678.4
995.544	2809.47
995.714	3075.71
995.883	2895.49
996.052	2979.45
996.222	2586.24
996.391	3421.81
996.56	3042.94
996.73	2647.68
996.899	2467.46
997.068	3399.29
997.237	2913.92
997.406	2565.76
997.576	2504.32
997.745	2897.53
997.914	2881.15
998.083	2438.79
998.252	2475.65
998.421	2942.59
998.59	2594.44
998.759	2430.6
998.928	2457.22
999.097	3061.37
999.266	3010.17
999.435	2764.42
999.604	2309.77
999.773	3372.66
999.942	2883.2
1000.111	2256.52
1000.28	2297.48
1000.448	2467.46
1000.617	2520.71
1000.786	2586.24
1000.955	2244.23
1001.124	2901.63
1001.292	3327.61
1001.461	2311.82
1001.63	2363.01
1001.798	2885.25
1001.967	2999.93
1002.136	2176.65
1002.304	2160.27
1002.473	2705.03
1002.642	2713.22
1002.81	2459.27
1002.979	2221.7
1003.147	2772.61
1003.316	3012.22
1003.484	2145.93
1003.653	2233.99
1003.821	2989.69
1003.99	2524.8
1004.158	2283.14
1004.327	2268.81
1004.495	2700.93
1004.663	2414.21
1004.832	2272.9
1005	2025.1
1005.168	2686.59
1005.337	2692.74
1005.505	2070.16
1005.673	2446.98
1005.842	2659.97
1006.01	2569.86
1006.178	1906.32
1006.346	2127.5
1006.514	2510.47
1006.683	2619.01
1006.851	2064.01
1007.019	1867.41
1007.187	2246.28
1007.355	1875.6
1007.523	1879.69
1007.691	1941.13
1007.859	2147.98
1008.027	2619.01
1008.195	1967.76
1008.363	1902.22
1008.531	2483.84
1008.699	2250.38
1008.867	1906.32
1009.035	2078.35
1009.203	2563.72
1009.37	2365.06
1009.538	2055.82
1009.706	2414.21
1009.874	2231.94
1010.042	2236.04
1010.209	1891.98
1010.377	1873.55
1010.545	2506.37
1010.713	2367.11
1010.88	1848.97
1011.048	1943.18
1011.216	2236.04
1011.383	2578.05
1011.551	1965.71
1011.718	1855.12
1011.886	2524.8
1012.054	2223.75
1012.221	1865.36
1012.389	1728.14
1012.556	2096.78
1012.724	2520.71
1012.891	1838.73
1013.058	1678.99
1013.226	2363.01
1013.393	2244.23
1013.561	1558.16
1013.728	1578.64
1013.895	2375.3
1014.063	2199.18
1014.23	1662.61
1014.397	1685.14
1014.565	2260.62
1014.732	2098.83
1014.899	1701.52
1015.066	1599.12
1015.233	2018.96
1015.401	2201.23
1015.568	1773.2
1015.735	1703.57
1015.902	2049.68
1016.069	2061.96
1016.236	1660.56
1016.403	1586.83
1016.57	1777.3
1016.737	2277
1016.904	1765.01
1017.071	1498.77
1017.238	1586.83
1017.405	2188.94
1017.572	1595.03
1017.739	1795.73
1017.906	1926.8
1018.073	2133.64
1018.24	1476.24
1018.407	1584.79
1018.573	2137.74
1018.74	1762.96
1018.907	1631.89
1019.074	1293.97
1019.241	2055.82
1019.407	2014.86
1019.574	1453.72
1019.741	1343.13
1019.907	1953.42
1020.074	1853.07
1020.241	1191.58
1020.407	1367.7
1020.574	1988.24
1020.74	1793.68
1020.907	1447.57
1021.073	1226.39
1021.24	2291.34
1021.406	2064.01
1021.573	1179.29
1021.739	1427.09
1021.906	1920.65
1022.072	1668.75
1022.239	1474.2
1022.405	1402.52
1022.571	1678.99
1022.738	1576.59
1022.904	1250.97
1023.07	1449.62
1023.237	1697.42
1023.403	2012.81
1023.569	1445.52
1023.735	1296.02
1023.902	1689.23
1024.068	1730.19
1024.234	1257.11
1024.4	1246.87
1024.566	1699.47
1024.732	1816.21
1024.898	1234.58
1025.065	1103.51
1025.231	1855.12
1025.397	1468.05
1025.563	1263.26
1025.729	1199.77
1025.895	1308.31
1026.061	1384.09
1026.227	1005.21
1026.392	1234.58
1026.558	1898.13
1026.724	1660.56
1026.89	1111.71
1027.056	1201.82
1027.222	1674.9
1027.388	1470.1
1027.553	1228.44
1027.719	1167
1027.885	1799.82
1028.051	1603.22
1028.216	1001.12
1028.382	1232.54
1028.548	1685.14
1028.713	1355.41
1028.879	966.3
1029.045	1304.21
1029.21	1914.51
1029.376	1664.66
1029.541	1123.99
1029.707	1111.71
1029.873	1629.84
1030.038	1570.45
1030.204	1087.13
1030.369	1134.23
1030.534	1644.18
1030.7	1351.32
1030.865	1185.43
1031.031	960.16
1031.196	1549.97
1031.361	1435.28
1031.527	949.92
1031.692	964.25
1031.857	933.53
1032.023	1611.41
1032.188	982.68
1032.353	1128.09
1032.518	1742.48
1032.684	1445.52
1032.849	759.46
1033.014	1021.6
1033.179	1533.59
1033.344	1443.48
1033.509	1093.27
1033.674	906.91
1033.839	1496.72
1034.004	1537.68
1034.17	818.85
1034.335	890.53
1034.5	1226.39
1034.664	1164.95
1034.829	890.53
1034.994	919.2
1035.159	1466
1035.324	1379.99
1035.489	976.54
1035.654	792.22
1035.819	1611.41
1035.984	1328.79
1036.148	923.29
1036.313	898.72
1036.478	1400.47
1036.643	1205.91
1036.807	857.76
1036.972	804.51
1037.137	1437.33
1037.301	1285.78
1037.466	663.2
1037.631	958.11
1037.795	1386.13
1037.96	1275.54
1038.124	978.59
1038.289	650.91
1038.454	1351.32
1038.618	1287.83
1038.783	818.85
1038.947	906.91
1039.111	1169.05
1039.276	1066.65
1039.44	722.59
1039.605	1197.72
1039.769	1097.37
1039.933	1128.09
1040.098	788.13
1040.262	917.15
1040.426	1326.74
1040.591	1224.34
1040.755	626.34
1040.919	745.12
1041.083	1242.78
1041.248	1040.03
1041.412	538.27
1041.576	532.13
1041.74	1099.42
1041.904	1210.01
1042.068	597.67
1042.232	743.07
1042.397	1373.85
1042.561	992.92
1042.725	452.26
1042.889	820.89
1043.053	1042.07
1043.217	1158.81
1043.381	718.5
1043.544	452.26
1043.708	1339.03
1043.872	800.41
1044.036	308.9
1044.2	595.62
1044.364	1210.01
1044.528	1324.69
1044.691	4046.44
1044.855	523.94
1045.019	1162.9
1045.183	1140.38
1045.346	673.44
1045.51	636.58
1045.674	1158.81
1045.837	1160.86
1046.001	661.15
1046.165	521.89
1046.328	1513.11
1046.492	1136.28
1046.655	716.45
1046.819	636.58
1046.983	843.42
1047.146	1097.37
1047.31	669.34
1047.473	323.24
1047.636	947.87
1047.8	747.17
1047.963	507.55
1048.127	409.25
1048.29	724.64
